Freq,On Axis,Listening Window,Sound Power,Early Reflections,Early Reflections DI,Sound Power DI,DI offset
22.4,8.287341772151876,10.69648882546636,7.038033054866219,9.225040030424594,41.471448795041766,43.65845577060014,40
23.0,9.487341772151865,11.803471977018035,8.007102029867951,10.14790526255203,41.655566714466005,43.79636994715008,40
23.6,10.387341772151899,12.754379885984235,8.822901672726829,10.917340300296047,41.83703958568819,43.93147821325741,40
24.0,11.287341772151876,13.560334247254161,9.502141953284507,11.563700286182808,41.99663396107135,44.058192293969654,40
25.0,12.087341772151888,14.381908950520426,10.153278132832867,12.173211112216308,42.20869783830412,44.22863081768756,40
25.8,13.887341772151899,16.432056487113186,11.964815722460372,14.021475515529659,42.41058097158353,44.467240764652814,40
26.5,15.487341772151893,18.326461050728142,13.608725860104471,15.721501692062816,42.604959358665326,44.71773519062367,40
27.2,16.68734177215191,19.84650903418793,14.856647010836042,17.049383234013817,42.797125800174115,44.98986202335189,40
28.0,17.587341772151888,21.129772458624586,15.870390697538596,18.12703614976658,43.002736308858005,45.25938176108599,40
29.0,18.3873417721519,22.25536600150224,16.728975072459093,19.053612226904107,43.20175377459813,45.526390929043146,40
30.0,18.98734177215192,23.269405457503183,17.459604468418377,19.86771829967057,43.40168715783261,45.809800989084806,40
30.7,20.287341772151876,24.875377863333767,18.882292445780422,21.337016515866253,43.538361347467514,45.993085417553345,40
31.5,21.8873417721519,26.71523508440731,20.688438027263487,23.12357138866247,43.59166369574484,46.026797057143824,40
32.5,22.987341772151893,28.024747917220537,21.989836857096435,24.40363747422478,43.62111044299576,46.0349110601241,40
33.5,23.8873417721519,29.047732797244976,22.965797673883884,25.377161092638687,43.67057170460629,46.08193512336109,40
34.5,24.487341772151865,29.82896079794557,23.753527220101432,26.13351256656236,43.69544823138321,46.07543357784414,40
35.5,25.18734177215191,30.74529269955147,24.691353203823184,27.02532454679738,43.71996815275409,46.05393949572829,40
36.5,27.087341772151888,32.38463812744959,26.524928868756632,28.747954191859975,43.636683935589616,45.85970925869296,40
37.5,28.587341772151888,33.6136761116457,27.982182133557416,30.096822097183406,43.5168540144623,45.63149397808829,40
38.7,29.787341772151876,34.5362534645887,29.16723544484836,31.14842166948347,43.38783179510523,45.36901801974034,40
40.0,30.8873417721519,35.3367882754178,30.20108686299963,32.069804525945614,43.26698374947219,45.13570141241817,40
41.2,32.787341772151876,36.87352283172373,32.05580712263466,33.775883558219164,43.09763927350457,44.81771570908907,40
42.5,35.287341772151876,38.75659090266754,34.37884669198783,35.91452736273283,42.84206353993471,44.37774421067971,40
43.7,37.18734177215191,40.205706204761185,36.17888565230686,37.57472170926451,42.630984495496676,44.026820552454325,40
45.0,38.787341772151876,41.34057643020918,37.69752681520251,38.94796178028787,42.39261464992131,43.643049615006674,40
46.2,40.58734177215189,42.75352359831294,39.46713229129119,40.58285356329347,42.17067003501947,43.286391307021745,40
47.5,42.787341772151876,44.438678008252054,41.55323877797534,42.521514880042844,41.91716312820921,42.88543923027672,40
48.7,44.48734177215189,45.81812145846041,43.2758126704062,44.13526386885866,41.68285758960175,42.542308788054214,40
50.0,46.08734177215189,47.07466456316885,44.77430646534481,45.556969248914044,41.51769531425481,42.300358097824045,40
51.5,47.8873417721519,48.67635232960558,46.65356403607075,47.35178497344748,41.3245673561581,42.02278829353483,40
53.0,49.58734177215189,50.190258263367696,48.41740334852841,49.04035754772761,41.149900715640086,41.772854914839286,40
54.5,51.18734177215191,51.525319786834416,49.919944138952616,50.50141876761393,41.02390101922049,41.6053756478818,40
56.0,52.98734177215189,53.28070563193535,51.831117457589386,52.367036680929715,40.91366895100563,41.44958817434596,40
58.0,55.18734177215191,55.32330021956878,54.03046868291824,54.53955828614943,40.78374193341935,41.29283153665054,40
60.0,56.8873417721519,57.00588259389198,55.80792981044081,56.288931432836506,40.716951161055476,41.19795278345117,40
61.5,58.48734177215189,58.53653910236227,57.424118967203626,57.88908921473464,40.64744988762763,41.112420135158644,40
63.0,59.98734177215189,59.978176447648565,58.89414547836364,59.359107364644274,40.61906908300429,41.084030969284925,40
65.0,61.187341772151896,61.197746001569755,60.18066712722772,60.6309878325813,40.56675816898846,41.01707887434203,40
67.0,62.58734177215189,62.626336181488966,61.64090296444736,62.08491357612283,40.54142260536614,40.9854332170416,40
69.0,63.98734177215189,63.96513308116016,63.06550898028652,63.492971886940296,40.472161194219865,40.89962410087364,40
71.0,65.2873417721519,65.22774785749417,64.38843713320358,64.8029003632005,40.42484749429367,40.839310724290584,40
73.0,66.58734177215189,66.5903420470621,65.80545976907143,66.19961662761139,40.3907254194507,40.78488227799066,40
75.0,67.7873417721519,67.82074476239177,67.08214333356476,67.46170974585051,40.359035016541256,40.73860142882701,40
77.5,68.8873417721519,68.88500275016091,68.1703812207861,68.53661335796329,40.34838939219762,40.71462152937481,40
80.0,69.78734177215189,69.81691179275893,69.1479010411432,69.49933930086424,40.317572491894694,40.66901075161573,40
82.5,70.78734177215189,70.82756002616338,70.19001293326185,70.53234924683588,40.295210779327505,40.63754709290153,40
85.0,71.78734177215188,71.88144317697967,71.32812645508903,71.64173518015352,40.239707996826155,40.55331672189064,40
87.5,72.7873417721519,72.81410158839672,72.27863774041018,72.56944911692003,40.2446524714767,40.53546384798655,40
90.0,73.4873417721519,73.60265533674456,73.08238544996354,73.36807557953573,40.234579757208834,40.52026988678102,40
92.5,74.18734177215191,74.27967193082799,73.7681698467918,74.0448780872869,40.234793843541084,40.51150208403618,40
95.0,74.6873417721519,74.82400117007438,74.30252175082444,74.5775313020101,40.24646986806428,40.52147941924994,40
97.5,75.3873417721519,75.45731559821559,74.93436593086567,75.21014853789401,40.24716706032157,40.52294966734992,40
100.0,75.9873417721519,76.11283537835592,75.58893373236384,75.86532542179887,40.24750995655705,40.52390164599208,40
103.0,76.58734177215189,76.69064954738973,76.15112292635666,76.4398135216174,40.25083602577233,40.53952662103306,40
106.0,77.1873417721519,77.27914123623438,76.66475534643172,76.96590672039392,40.31323451584046,40.61438588980266,40
109.0,77.8873417721519,77.9568059042942,77.28873061319283,77.63079902703227,40.32600687726193,40.668075291101374,40
112.0,78.4873417721519,78.55706955732705,77.809477969843,78.17844321912632,40.37862633820073,40.74759158748405,40
115.0,78.9873417721519,78.97939173171574,78.18555422136423,78.58254678431416,40.396844947401576,40.79383751035151,40
118.0,79.3873417721519,79.36811649343569,78.4722308236934,78.92095392696854,40.447162566467156,40.8958856697423,40
122.0,79.6873417721519,79.67965401720068,78.73228364038059,79.2007499274312,40.47890408976947,40.94737037682009,40
125.0,79.9873417721519,79.95756735570373,78.95015261074835,79.45106159195201,40.50650576375172,41.00741474495538,40
128.0,80.08734177215189,80.09014970659727,79.0569033618004,79.57430002721141,40.515849679385866,41.03324634479688,40
132.0,80.2873417721519,80.25756735570374,79.15269166252821,79.70508544647569,40.55248190922805,41.10487569317553,40
136.0,80.3873417721519,80.39014970659727,79.22745238366161,79.81325979561201,40.57688991098526,41.16269732293566,40
140.0,80.4873417721519,80.42347586515258,79.2427778931849,79.84368434258293,40.57979152256965,41.18069797196769,40
145.0,80.4873417721519,80.4786400690875,79.24399076983511,79.86929107675593,40.609348992331576,41.234649299252396,40
150.0,80.4873417721519,80.47838953024619,79.19739548469897,79.85785160858322,40.62053792166297,41.28099404554722,40
155.0,80.4873417721519,80.47838953024619,79.15794508247993,79.83841099703123,40.63997853321496,41.32044444776626,40
160.0,80.4873417721519,80.41205432615064,79.06400855534692,79.76628860727996,40.64576571887068,41.34804577080372,40
165.0,80.4873417721519,80.3783895302462,78.97763729276372,79.71387257545513,40.66451695479107,41.40075223748248,40
170.0,80.3873417721519,80.31153956516103,78.8713352412432,79.62402367516955,40.687515889991474,41.440204323917825,40
175.0,80.3873417721519,80.28963816345654,78.78742531361037,79.56056742136832,40.729070742088226,41.502212849846174,40
180.0,80.3873417721519,80.2343553814215,78.70048451716562,79.49962687260319,40.73472850881831,41.533870864255874,40
185.0,80.3873417721519,80.2343553814215,78.62442598670548,79.46140484674127,40.77295053468022,41.60992939471602,40
190.0,80.3873417721519,80.22322212356949,78.57183316001348,79.41694930232717,40.80627282124232,41.651388963556,40
195.0,80.3873417721519,80.22322212356949,78.5217244124025,79.40133299208343,40.82188913148606,41.70149771116698,40
200.0,80.3873417721519,80.23461436847641,78.50652515255824,79.40051699133528,40.834097377141134,41.728089215918175,40
206.0,80.4873417721519,80.31280615300476,78.52120034764587,79.4422573872807,40.87054876572405,41.791605805358884,40
212.0,80.4873417721519,80.32422571754049,78.51349476881724,79.44436559576509,40.879860121775394,41.81073094872325,40
218.0,80.58734177215189,80.41280615300475,78.53310454898676,79.49554876700938,40.91725738599537,41.879701604017995,40
224.0,80.58734177215189,80.44698117314414,78.56870230468992,79.54554961890297,40.90143155424117,41.87827886845422,40
230.0,80.68734177215188,80.55805376768683,78.61245277947381,79.60251028405007,40.95554348363676,41.945600988213016,40
236.0,80.78734177215189,80.60361145642774,78.63190259987957,79.62516648764958,40.97844496877816,41.971708856548176,40
240.0,80.8873417721519,80.68263757840073,78.63973644063236,79.65221808918182,41.030419489218914,42.04290113776837,40
250.0,80.8873417721519,80.6938752283646,78.63415621567191,79.65610566703883,41.037769561325774,42.059719012692696,40
258.0,80.8873417721519,80.68362753733615,78.56477382127625,79.59449627148723,41.08913126584892,42.1188537160599,40
265.0,80.78734177215189,80.60685679359011,78.4511573740114,79.48764392915385,41.119212864436264,42.15569941957871,40
272.0,80.78734177215189,80.51855799328425,78.29392589972244,79.35835420418552,41.16020378909873,42.22463209356181,40
280.0,80.68734177215188,80.43022775112156,78.13859406205952,79.2341847988948,41.19604295222676,42.29163368906204,40
290.0,80.58734177215189,80.34213695938904,77.98633811492394,79.10684577254239,41.23529118684665,42.3557988444651,40
300.0,80.4873417721519,80.23245927710649,77.80809137029314,78.96253332773001,41.26992594937647,42.424367906813345,40
307.0,80.3873417721519,80.18815303487821,77.63514856102216,78.83769280181059,41.35046023306762,42.55300447385605,40
315.0,80.3873417721519,80.12386304804085,77.48187633932575,78.75241245542077,41.37145059262008,42.641986708715095,40
325.0,80.3873417721519,80.1116245890684,77.35850791301353,78.68930195009472,41.42232263897368,42.75311667605487,40
335.0,80.3873417721519,80.1116245890684,77.22111518823759,78.63768723373053,41.47393735533787,42.89050940083081,40
345.0,80.3873417721519,80.10988194107512,77.1002331550391,78.60059372858579,41.509288212489324,43.00964878603601,40
355.0,80.3873417721519,80.13245927710649,77.01406638117226,78.5967415702631,41.535717706843386,43.118392895934235,40
365.0,80.3873417721519,80.16382737779338,76.93907337961431,78.6069463528274,41.556881024965975,43.22475399817907,40
375.0,80.4873417721519,80.21901603667426,76.83429580032828,78.60267878032658,41.61633725634768,43.384720236345984,40
387.0,80.3873417721519,80.11801123795695,76.65043699156209,78.51747955319189,41.60053168476506,43.46757424639486,40
400.0,80.3873417721519,80.11775717688637,76.52475207178739,78.48517554541394,41.63258163147243,43.59300510509898,40
412.0,80.3873417721519,80.08439276509161,76.38326653691693,78.41977094508826,41.66462182000335,43.70112622817467,40
425.0,80.1873417721519,79.91801123795693,76.13699514083252,78.24062546427561,41.67738577368132,43.78101609712441,40
437.0,80.1873417721519,79.85165922106084,76.00226324310869,78.1797601662739,41.67189905478695,43.849395977952156,40
450.0,80.08734177215189,79.7747909574929,75.88518843767534,78.10297608309243,41.67181487440047,43.88960251981756,40
462.0,79.9873417721519,79.71801123795694,75.79511756577809,78.02439512590719,41.69361611204975,43.92289367217886,40
475.0,79.9873417721519,79.70899328505953,75.75614516114963,78.00624034117625,41.70275294388328,43.9528481239099,40
487.0,80.08734177215189,79.76449263678738,75.7969169097274,78.05178831333741,41.71270432344997,43.96757572705998,40
500.0,80.08734177215189,79.85290255686941,75.86922783253365,78.11314082395508,41.73976173291433,43.983674724335756,40
515.0,80.1873417721519,79.9433163403557,75.93690542229413,78.16582212231842,41.777494218037276,44.00641091806156,40
530.0,80.1873417721519,79.94517417355976,75.93888493382383,78.14061357371557,41.804560599844194,44.006289239735935,40
545.0,80.1873417721519,79.98181248679845,75.9296569630402,78.10750486134089,41.87430762545756,44.052155523758245,40
560.0,80.1873417721519,79.94960332200478,75.89004126153861,78.02777959429744,41.921823727707334,44.05956206046616,40
580.0,80.1873417721519,79.90719579254456,75.74892937218854,77.88725304290845,42.0199427496361,44.158266420356014,40
600.0,80.1873417721519,79.88283179936852,75.6325706946944,77.7941622720135,42.08866952735502,44.250261104674124,40
615.0,80.1873417721519,79.87289348042538,75.53585231400187,77.7125242163331,42.16036926409228,44.337041166423504,40
630.0,80.3873417721519,79.97287469325288,75.49495656121871,77.72109843139042,42.25177626186246,44.47791813203416,40
650.0,80.3873417721519,79.99409332229376,75.3997441499612,77.67587928468781,42.318214037605955,44.59434917233257,40
670.0,80.3873417721519,79.93812906347432,75.2146274563416,77.57154867601118,42.366580387463145,44.72350160713272,40
690.0,80.3873417721519,79.90596703767552,75.03680278767713,77.48401100742835,42.42195603024717,44.86916424999839,40
710.0,80.2873417721519,79.80570026387281,74.80096107120741,77.33223279666781,42.473467467205,45.0047391926654,40
730.0,80.08734177215189,79.70279131499842,74.61788006129333,77.21650202576748,42.48628928923094,45.08491125370509,40
750.0,79.9873417721519,79.63493420590925,74.46103737453473,77.13344016144427,42.50149404446498,45.17389683137452,40
775.0,79.8873417721519,79.58771660723636,74.33743595126269,77.06673868909307,42.52097791814329,45.25028065597367,40
800.0,79.78734177215189,79.55403203898699,74.21926205923424,77.00719960062824,42.54683243835875,45.33476997975275,40
825.0,79.6873417721519,79.48546820956074,74.0649254104743,76.90201790019145,42.58345030936928,45.420542799086434,40
850.0,79.78734177215189,79.50870544317115,73.96044138888635,76.85972375205715,42.648981691114,45.5482640542848,40
875.0,79.8873417721519,79.62955410655113,73.94616717462677,76.90588547544372,42.7236686311074,45.68338693192436,40
900.0,80.1873417721519,79.87622229239919,74.01632979969168,77.0442086048339,42.83201368756529,45.859892492707516,40
925.0,80.3873417721519,80.03277005499045,74.00566834845992,77.11869666597065,42.914073389019805,46.02710170653053,40
950.0,80.58734177215189,80.14690272039924,73.90901000132665,77.10623911000687,43.04066361039237,46.23789271907259,40
975.0,80.58734177215189,80.13863660522142,73.6851133873302,76.96559723547216,43.17303936974926,46.45352321789122,40
1000.0,80.4873417721519,79.96669278071288,73.29334273738613,76.66705018120231,43.29964259951056,46.67335004332675,40
1030.0,80.2873417721519,79.72857224389368,72.83036138265734,76.32300294158148,43.4055693023122,46.898210861236336,40
1060.0,80.1873417721519,79.56832709185782,72.40979684742581,76.03158378748903,43.5367433043688,47.158530244432015,40
1090.0,80.1873417721519,79.57649846992776,72.17537484569868,75.92970684503348,43.64679162489428,47.40112362422907,40
1120.0,80.2873417721519,79.63008728031463,72.02938046576492,75.89178510605842,43.738302174256205,47.60070681454971,40
1150.0,80.3873417721519,79.72576989651128,71.94021580056494,75.92207015777079,43.80369973874049,47.78555409594634,40
1180.0,80.58734177215189,79.80471986533968,71.81797612238627,75.92969628144617,43.87502358389351,47.98674374295341,40
1220.0,80.58734177215189,79.74664242617638,71.59256026131729,75.81504674968728,43.931595676489096,48.15408216485909,40
1250.0,80.4873417721519,79.61299004656605,71.31796704168117,75.63451709155935,43.97847295500671,48.29502300488488,40
1280.0,80.3873417721519,79.45736955248546,71.04085534608342,75.42045638528629,44.036913167199174,48.41651420640204,40
1320.0,80.3873417721519,79.40515515455155,70.8342365245476,75.2882343156054,44.11692083894616,48.570918630003945,40
1360.0,80.3873417721519,79.38601926365334,70.6875465158059,75.18611799219094,44.199901271462394,48.69847274784743,40
1400.0,80.2873417721519,79.28601926365334,70.49289137309232,74.9977062167645,44.288313046888845,48.793127890561024,40
1450.0,80.1873417721519,79.16016559266126,70.25538276670547,74.7448745214851,44.415291071176156,48.90478282595579,40
1500.0,80.1873417721519,79.1044743147157,70.08203565543819,74.53381474791843,44.570659566797275,49.02243865927751,40
1550.0,80.2873417721519,79.16225814359304,70.03867757261668,74.44097542219035,44.72128272140269,49.12358057097636,40
1600.0,80.2873417721519,79.15067425123192,69.95425009470928,74.31910546279725,44.831568788434666,49.19642415652264,40
1650.0,80.3873417721519,79.22625572059351,69.94235749754786,74.3239565164432,44.90229920415031,49.283898223045654,40
1700.0,80.2873417721519,79.14015300025,69.77223255295223,74.1704009871593,44.9697520130907,49.36792044729776,40
1750.0,80.1873417721519,79.09714158814455,69.63723796301329,74.08273002412633,45.01441156401822,49.45990362513126,40
1800.0,80.1873417721519,79.12653454857016,69.63327759459656,74.09307971206711,45.033454836503054,49.4932569539736,40
1850.0,80.1873417721519,79.13648537808618,69.64092942636884,74.10558229605606,45.03090308203012,49.495555951717336,40
1900.0,79.9873417721519,79.10375050156028,69.6726593704538,74.10013413726044,45.003616364299845,49.431091131106484,40
1950.0,79.78734177215189,78.95431378772062,69.60177699060546,73.99080948197582,44.963504305744806,49.352536797115164,40
2000.0,79.58734177215189,78.82271456074272,69.53475433728927,73.89097039453937,44.93174416620336,49.28796022345345,40
2060.0,79.58734177215189,78.8052574348499,69.58932972494532,73.91316243543729,44.89209499941262,49.21592770990459,40
2120.0,79.6873417721519,78.91147893592901,69.7477529766577,74.05185451075812,44.85962442517089,49.16372595927132,40
2180.0,79.78734177215189,79.08735609699359,69.9887510876498,74.2623262186036,44.825029878389984,49.098605009343785,40
2240.0,79.9873417721519,79.23376916514054,70.1961810613869,74.43774812975487,44.79602103538568,49.03758810375365,40
2300.0,79.9873417721519,79.23444604842229,70.2939201102464,74.48585819573992,44.74858785268236,48.94052593817588,40
2360.0,79.9873417721519,79.14000844263948,70.35915957446896,74.48090708157625,44.659101361063236,48.78084886817052,40
2400.0,80.08734177215189,79.11587462107002,70.4799113468425,74.55035614881217,44.56551847225785,48.63596327422752,40
2500.0,80.08734177215189,79.03859261682433,70.56785113158669,74.56411229121686,44.47448032560747,48.47074148523764,40
2580.0,80.1873417721519,78.98749535143634,70.67318136691469,74.63577681066731,44.35171854076903,48.31431398452165,40
2650.0,80.2873417721519,78.94653779013582,70.82168161574904,74.74023965194516,44.20629813819066,48.12485617438678,40
2720.0,80.08734177215189,78.58351670348094,70.60007835306425,74.49873314498653,44.08478355849441,47.98343835041669,40
2800.0,79.58734177215189,78.04464286872134,70.17751984667642,74.09795050424826,43.94669236447308,47.86712302204492,40
2900.0,79.3873417721519,77.76545547386415,69.91664170615155,73.89354208083817,43.87191339302598,47.8488137677126,40
