Freq "Rear Wall Bounce"
22.4 15.886041936419588
23.0 18.12060879441944
23.6 20.450070813200682
24.0 22.97184022380054
25.0 25.48861383450594
25.8 28.114831352569013
26.5 30.80276414816609
27.2 33.35692769372773
28.0 34.79748642866926
29.0 36.13553516595974
30.0 37.829319854272626
30.7 38.63186024058433
31.5 40.21276404471399
32.5 41.332196794748455
33.5 42.211578269968896
34.5 43.532209039855246
35.5 45.21801586733534
36.5 47.387515727355265
37.5 49.583879223805326
38.7 51.69750527498053
40.0 53.66005723353797
41.2 55.291499849050496
42.5 56.92412548117787
43.7 58.62273585489129
45.0 60.00746308314589
46.2 60.971286650777955
47.5 60.5936328375154
48.7 60.77400090612775
50.0 61.15453367023582
51.5 61.95974950143798
53.0 63.13059737567171
54.5 64.55277531627547
56.0 66.27836390889023
58.0 67.66860096310687
60.0 68.84263254922917
61.5 70.08830432878665
63.0 71.45514016092642
65.0 72.74888264958534
67.0 73.78521477569748
69.0 74.5366468966522
71.0 75.0532809463351
73.0 75.56402567521519
75.0 76.07524268993316
77.5 76.7247448647658
80.0 77.27861097917717
82.5 77.72200220641444
85.0 78.09269119992618
87.5 78.53000994299052
90.0 78.81448622577011
92.5 79.13940400884361
95.0 79.45401607096095
97.5 79.53443813031744
100.0 79.49808059807872
103.0 79.37439430983315
106.0 79.15426055651218
109.0 79.00923887188857
112.0 78.8285629243675
115.0 78.75497938690583
118.0 78.75694385327364
122.0 78.76513053654554
125.0 78.72702724871212
128.0 78.9213682425008
132.0 79.1008510978759
136.0 79.15999629711317
140.0 79.3360742197097
145.0 79.08034346470595
150.0 78.93136864469355
155.0 78.72171632604126
160.0 78.53735393223093
165.0 78.64553203860913
170.0 78.70693590022432
175.0 78.92767072453154
180.0 78.99552913212673
185.0 78.91249858229878
190.0 78.68985301356389
195.0 78.4781842026174
200.0 78.14544713200164
206.0 77.81154239134014
212.0 77.24789277844704
218.0 76.74304990861145
224.0 76.2432761005207
230.0 75.34287406294567
236.0 74.52956387430689
240.0 74.28616645351588
250.0 74.70032946446109
258.0 75.12835721714725
265.0 75.32063042859457
272.0 75.57868110525996
280.0 75.82919958358764
290.0 76.26890334997502
300.0 76.88867366140946
307.0 77.35380013351865
315.0 77.02809393582268
325.0 76.20777695542463
335.0 75.62242336412983
345.0 75.0360636025214
355.0 74.5011474441801
365.0 74.14887786578261
375.0 73.6190552904967
387.0 73.4530278943979
400.0 73.6586012034445
412.0 73.84453274699699
425.0 73.99284808778368
437.0 73.90955717291286
450.0 73.71284608896931
462.0 73.83912999792362
475.0 74.10155034982473
487.0 73.95863418039633
500.0 73.02204641072302
515.0 71.94037428064757
530.0 70.85589858105804
545.0 70.62382752489758
560.0 70.69022784367709
580.0 70.45331263416476
600.0 69.94993369000542
615.0 69.44561683241467
630.0 68.54438663766979
650.0 66.53004873419589
670.0 65.2649763614
690.0 65.46873840295603
710.0 66.28041385403657
730.0 66.21160179546146
750.0 66.29818229866245
775.0 66.19025348529803
800.0 66.22649040315224
825.0 66.54794525998383
850.0 65.54986635185202
875.0 65.46759958911457
900.0 65.77703489876318
925.0 64.44751987812529
950.0 65.4336922027993
975.0 65.21946985512699
1000.0 63.90820444505488
1030.0 63.795693482339985
1060.0 63.58655706360639
1090.0 62.78744692768318
1120.0 62.08236201895595
1150.0 63.06825126210332
1180.0 62.86388222773084
1220.0 63.45769209356294
1250.0 63.31082081094448
1280.0 62.96965281229511
1320.0 61.30974551138067
1360.0 61.73763938032596
1400.0 63.99052750253715
1450.0 64.37307551975084
1500.0 62.884409361881666
1550.0 61.475613909946986
1600.0 60.45880003569738
1650.0 59.829354036973285
1700.0 59.60322052314612
1750.0 60.84874888825546
1800.0 60.67412326462065
1850.0 59.59907449992305
1900.0 59.59915781968036
1950.0 59.15704440610858
2000.0 59.89867390886923
2060.0 60.27570121050809
2120.0 60.99555484216435
2180.0 62.27762988244838
2240.0 62.92377869236611
2300.0 62.713329621196635
2360.0 61.550873323393546
2400.0 60.87826529954319
2500.0 60.65816495955828
2580.0 60.71546694759654
2650.0 59.785899998279575
2720.0 58.83583768104643
2800.0 58.0698546611039
2900.0 57.67847134952703
3000.0 57.93004576379573
3070.0 58.203446776787686
3150.0 58.407107660813665
3250.0 58.63703824694802
3350.0 58.0181797417207
3450.0 58.4005582289351
3550.0 59.82143627860853
3650.0 60.25168718552874
3750.0 59.35261416569659
3870.0 58.38310244785511
4000.0 56.30960052694536
4120.0 55.94421635386598
4250.0 56.19531011249737
4370.0 55.000598294368075
4500.0 55.733445478669864
4620.0 57.8594563139977
4750.0 59.16447704844053
4870.0 58.41699287730198
5000.0 57.157137522760166
5150.0 55.41942565495938
5300.0 55.05999306823966
5450.0 54.41605501973001
5600.0 55.72780511328676
5800.0 56.91246994081092
6000.0 57.5047717337749
6150.0 55.32384800258299
6300.0 53.85995468043501
6500.0 54.069254894198735
6700.0 54.99928333154526
6900.0 55.715635436133255
7100.0 54.65510451752343
7300.0 54.416802320497226
7500.0 53.367447101075726
7750.0 52.7682637371272
8000.0 52.865707398542554
8250.0 50.51533560238195
8500.0 48.75966958374673
8750.0 50.74461545241792
9000.0 51.53519503318179
9250.0 51.051007237212445
9500.0 50.803407364632506
9750.0 50.13779697986581
10000.0 48.27617265683932
10300.0 50.29521744230263
10600.0 49.64382601615776
10900.0 48.782231496616134
11200.0 49.7375078144112
11500.0 50.611113459971364
11800.0 48.841367998972856
12200.0 48.459358159630796
12500.0 50.231030399692486
12800.0 48.1046428860449
13200.0 48.603787494686514
13600.0 50.92238335183001
14000.0 47.23049160143114
14500.0 45.2918982630633
15000.0 42.68314579271518
15500.0 42.494449827742955
16000.0 50.00023024994994
16500.0 49.15410199792757
17000.0 51.03513068648763
17500.0 48.621542537853884
18000.0 40.41969081209078
18500.0 44.18466227273123
19000.0 43.08292363479919
19500.0 35.41530444327714
