Freq "Estimated In-Room Response"
20.5078 50.62124467331225
21.9727 51.95556905171961
23.4375 54.13392391223957
24.9023 58.121757807645736
26.3672 61.037000746107935
27.832 63.02137523452532
29.2969 65.55359150309603
30.7617 67.82167379629915
32.2266 70.43311004065987
33.6914 72.86939845253696
35.1562 75.26334403118625
36.6211 77.38502621888509
38.0859 79.00134994624987
39.5508 79.9150064048966
41.0156 80.23418125969077
42.4805 80.26480464701618
43.9453 80.16310716542263
45.4102 80.3999443694276
46.875 80.24948415311658
48.3398 80.18783947254295
51.2695 80.17918201429066
52.7344 80.20965122821289
54.1992 80.26809146740675
55.6641 80.39718349553848
58.5938 80.69414584842397
60.0586 80.88747502295115
62.9883 81.24689339426163
64.4531 81.44547593475514
67.3828 81.86410031813335
68.8477 82.05650452132176
71.7773 82.4523794059399
74.707 82.94839968053716
77.6367 83.30484804247754
79.1016 83.51347067996491
82.0312 83.81261234208401
84.9609 84.11381709878466
87.8906 84.43517231788397
90.8203 84.86111394065564
95.2148 85.23149383142962
98.1445 85.52211960738627
101.074 85.74515539861959
105.469 85.877555068304
108.398 85.98148432684202
112.793 85.96370782414897
117.188 85.76099867908445
120.117 85.87918514729087
124.512 86.05132105110388
128.906 85.83938051762692
133.301 85.55156964214025
139.16 85.3258699555001
143.555 85.21997960713747
147.949 85.52312971127459
153.809 85.54690180184859
159.668 85.12616002145445
165.527 84.93249605571803
171.387 84.8642351663016
177.246 84.9091119083646
183.105 84.8428790965578
188.965 84.94791198737303
196.289 84.8924353119335
203.613 84.90456579010157
210.938 84.74200303631034
218.262 84.81173086215254
225.586 84.43111713766535
232.91 84.14312903758163
241.699 84.06690286228581
250.488 85.43686899888903
259.277 84.86145130908785
268.066 84.8531899537599
276.855 84.64580386876486
287.109 83.97443116151811
297.363 83.92882823666758
307.617 83.44218041426171
319.336 83.63012640459755
329.59 83.91303870734677
341.309 83.79377673942837
353.027 83.72214813833797
366.211 83.69003528975226
379.395 83.8344919016518
392.578 84.62246483472603
405.762 84.1339331531231
420.41 84.12738214257305
435.059 83.36420839041698
451.172 82.46340392149384
465.82 83.31692775481197
483.398 83.64814178489758
499.512 83.79637331147647
517.09 82.87393434187435
536.133 83.02095510239907
555.176 83.35727097164033
574.219 82.91363854392911
594.727 83.09817827350538
615.234 83.38385886517338
637.207 83.68905195853901
659.18 83.95591811873072
682.617 83.3085327813971
707.52 83.17871301924694
732.422 83.12310692680559
757.324 83.84133850354613
785.156 83.72389163766928
811.523 83.2487360807696
840.82 83.89956087094289
870.117 83.90395448997108
900.879 82.90575898438048
933.105 82.32836161619127
965.332 82.33461128667818
1000.49 82.17054890624173
1035.64 81.52085914133511
1072.27 81.76739955202049
1108.89 81.79040042758028
1148.44 81.31564682496901
1189.45 81.15773129130488
1230.47 81.50563031514251
1274.41 81.24600801842979
1319.82 81.87035305343491
1366.7 81.96941210457821
1413.57 82.23180882563409
1463.38 82.5499522071198
1516.11 82.2120852991772
1568.85 82.05977094959871
1624.51 81.93001194691422
1681.64 82.38723027692187
1741.7 82.32806690962447
1803.22 82.50514820408284
1866.21 82.06506143842086
1932.13 82.01870413782214
1999.51 81.71840794788976
2069.82 81.49214386200593
2143.07 81.01380335492883
2219.24 80.79215306944249
2296.88 81.43552814986019
2378.91 81.29920834037705
2462.4 80.93783736947225
2548.83 81.13017690233495
2639.65 81.77480714054957
2731.93 81.71761364587634
2828.61 81.54319044481926
2928.22 81.15489843657676
3030.76 81.27417534533026
3137.7 81.4681695312063
3249.02 80.89463768957513
3363.28 81.13880162792096
3481.93 80.9827083536561
3604.98 80.78252463856842
3732.42 80.767269695234
3864.26 80.53074585105867
4000.49 80.86789897194924
4141.11 80.7375006400612
4287.6 80.49107069092184
4438.48 80.81133991668963
4595.21 80.35897275805888
4756.35 80.47398918750214
4924.8 80.3161346143942
5097.66 80.4627532464848
5277.83 80.31344645671689
5463.87 80.44721512455108
5657.23 80.32976523288202
5856.45 80.23849866241794
6062.99 80.35654130333265
6276.86 80.2756960376637
6498.05 80.25361976206395
6726.56 80.50556997197104
6963.87 80.57899047401199
7209.96 80.59316415984881
7464.84 80.45503679055244
7727.05 80.09645732209097
7999.51 80.01289119064535
8282.23 79.8578761867435
8573.73 80.08834669697
8876.95 80.55602168471682
9188.96 80.60876628448875
9514.16 80.49402805729908
9849.61 80.49026779609177
10196.8 80.4862836641541
10555.7 80.39819541038054
10927.7 80.34400515681439
11313.0 80.40982959605341
11712.9 80.48799137977889
12126.0 80.56366219855249
12553.7 80.50391552807879
12996.1 80.18670907879572
13454.6 80.04549931642428
13929.2 80.51638916281291
14419.9 80.83975348726366
14928.2 80.88064068718565
15455.6 80.4635835243268
16000.5 79.93593502661662
16564.5 79.58615008055791
17148.9 79.20863052641627
17752.4 78.6560251277941
18379.4 77.88439871213565
19026.9 76.91531371930068
19697.8 76.3399032986263
19999.5 76.15558987994301
