Freq "Floor Bounce"
22.4 40.69753403021713
23.0 41.42650262845197
23.6 42.05186867286278
24.0 42.8508126246478
25.0 44.199912311668186
25.8 45.422106170540644
26.5 47.238892568787605
27.2 48.843566837153816
28.0 50.71738472610997
29.0 52.37556281823666
30.0 54.493594245257924
30.7 56.28062916112867
31.5 58.16917334262055
32.5 59.659232762456185
33.5 61.05081262464779
34.5 62.48063071841577
35.5 63.907737324112475
36.5 65.33855057997485
37.5 66.56985686850769
38.7 67.73471514066279
40.0 68.73241306407587
41.2 69.73241306407587
42.5 70.66523539650024
43.7 71.53164556962028
45.0 72.23164556962026
46.2 72.63164556962028
47.5 72.66523539650024
48.7 72.36523539650022
50.0 72.36523539650022
51.5 73.0667761614001
53.0 74.36828132629213
54.5 75.8000964076746
56.0 76.9000964076746
58.0 77.59856742078077
60.0 77.93241306407587
61.5 78.16523539650024
63.0 78.43164556962026
65.0 78.59856742078077
67.0 78.73241306407587
69.0 78.99856742078077
71.0 79.29856742078077
73.0 79.63164556962026
75.0 80.19856742078076
77.5 80.89856742078076
80.0 81.59856742078077
82.5 82.36523539650022
85.0 82.93164556962026
87.5 83.33164556962026
90.0 83.53164556962027
92.5 83.73164556962027
95.0 84.09856742078077
97.5 84.86523539650022
100.0 85.66523539650024
103.0 86.36523539650022
106.0 86.69856742078075
109.0 87.09856742078077
112.0 87.49856742078077
115.0 87.86523539650024
118.0 87.99856742078076
122.0 88.23241306407589
125.0 88.76523539650023
128.0 89.19856742078075
132.0 89.23241306407587
136.0 89.19856742078075
140.0 89.26523539650024
145.0 89.23241306407587
150.0 88.89856742078075
155.0 88.5659969783053
160.0 88.4000964076746
165.0 88.3000964076746
170.0 88.2659969783053
175.0 88.2659969783053
180.0 88.2659969783053
185.0 88.03393018358045
190.0 87.66828132629212
195.0 87.53393018358045
200.0 87.50009640767459
206.0 87.30009640767457
212.0 87.36828132629212
218.0 87.54151185634356
224.0 87.40773732411247
230.0 87.17741276400496
236.0 87.14757249188733
240.0 87.05514242028006
250.0 86.40247527246324
258.0 86.18686526270403
265.0 85.25691010890874
272.0 84.25691010890873
280.0 84.65923276245618
290.0 85.3138452429433
300.0 85.87741276400496
307.0 86.27741276400496
315.0 86.18425510164244
325.0 85.99261071199209
335.0 85.58686526270405
345.0 85.21384369752082
355.0 85.33062002092952
365.0 85.22147413635498
375.0 85.0926107119921
387.0 84.70247527246323
400.0 84.44127813643647
412.0 84.58062916112868
425.0 84.72053104117029
437.0 84.72053104117029
450.0 84.73638087080602
462.0 84.75567043988049
475.0 84.90552518184845
487.0 85.76523539650024
500.0 86.03241306407588
515.0 86.33696363728497
530.0 86.14151185634356
545.0 86.5893268478398
560.0 87.71658049422875
580.0 88.20613907992464
600.0 88.30166045219504
615.0 88.3698568685077
630.0 88.1459519482431
650.0 88.1592591270558
670.0 88.08768293486585
690.0 88.07824249766858
710.0 88.02858261343917
730.0 87.52634775583051
750.0 86.99512589200125
775.0 85.99415879027545
800.0 85.32613425894316
825.0 85.21546891129621
850.0 85.28341478066253
875.0 86.4586434465975
900.0 86.97085718276487
925.0 86.89070820619534
950.0 86.36775264939376
975.0 86.20860332576943
1000.0 85.59292037509945
1030.0 84.68245172880131
1060.0 83.71924480646243
1090.0 83.14126631716863
1120.0 82.53255945976069
1150.0 83.08924439089566
1180.0 83.3047876809811
1220.0 82.93396551551801
1250.0 82.96677616140009
1280.0 83.16176622936835
1320.0 82.34108510627256
1360.0 81.35313642349178
1400.0 80.2918113897543
1450.0 79.90670860133694
1500.0 80.26320103368866
1550.0 81.43256642991452
1600.0 81.9559414673434
1650.0 83.0315039629372
1700.0 83.74413168834883
1750.0 84.07296842934213
1800.0 83.86348766341213
1850.0 83.91674377441211
1900.0 84.02302573420219
1950.0 84.54032247237444
2000.0 86.13155416580918
2060.0 85.89783892391557
2120.0 86.35926994388592
2180.0 86.12474975527944
2240.0 87.83784754357434
2300.0 88.31438891698889
2360.0 87.64587951926187
2400.0 87.46940481680687
2500.0 86.60775251022947
2580.0 86.07073495664494
2650.0 85.03430318596995
2720.0 83.75785950090984
2800.0 83.58136949302555
2900.0 83.29003823495017
3000.0 83.02906761963008
3070.0 82.09292669014941
3150.0 80.58408209783529
3250.0 78.45911280047994
3350.0 76.93607490481733
3450.0 76.72223471766523
3550.0 77.64635590939983
3650.0 80.21022389177126
3750.0 82.08263380463245
3870.0 82.25702260039338
4000.0 81.38672261316414
4120.0 81.33400217225724
4250.0 80.37223791374466
4370.0 79.19466110232835
4500.0 78.22009487719114
4620.0 79.00593881643628
4750.0 79.54396328968427
4870.0 79.85038040683243
5000.0 80.0460865465102
5150.0 80.13486883296706
5300.0 79.35339744779382
5450.0 78.89640539227062
5600.0 79.47959791700534
5800.0 79.8598544958652
6000.0 80.88065847686327
6150.0 82.80383092304437
6300.0 83.16301353752803
6500.0 81.15915446625581
6700.0 78.75510509121119
6900.0 77.13347028416644
7100.0 79.22804421141838
7300.0 79.66371555254213
7500.0 77.35495211266557
7750.0 79.66934464440476
8000.0 80.74708691607249
8250.0 82.12971070211456
8500.0 82.18248842428117
8750.0 80.20592534578338
9000.0 77.86258708895322
9250.0 78.5846435684018
9500.0 80.25495211266558
9750.0 85.95915446625581
10000.0 87.55898161323412
10300.0 85.02406615189334
10600.0 83.23681514634646
10900.0 82.38135107809626
11200.0 85.92202916952273
11500.0 82.61095876225737
11800.0 79.97885369215467
12200.0 82.88338732261573
12500.0 85.95477046874093
12800.0 87.81097923472015
13200.0 84.65070973667724
13600.0 73.35771477122245
14000.0 73.48708600401974
14500.0 71.03706957694688
15000.0 76.9482361965481
15500.0 76.76998056646097
16000.0 78.28481485005723
16500.0 82.3009229900085
17000.0 79.59797320767406
17500.0 80.74604673907898
18000.0 83.02219799721802
18500.0 85.36498163321394
19000.0 83.82538192416892
19500.0 81.11466708342527
