Freq "Side Wall Bounce"
22.4 42.406592461317246
23.0 43.36618312243928
23.6 44.55130830409843
24.0 45.71032146871309
25.0 47.16972647568525
25.8 48.4198868128924
26.5 49.926338075123596
27.2 51.23700614024074
28.0 52.754442942555784
29.0 54.11694418672627
30.0 55.79592073831208
30.7 57.2763012756356
31.5 58.744441439338345
32.5 59.9544429425558
33.5 61.0722137210486
34.5 62.30342665002863
35.5 63.55335640399274
36.5 64.74146291180585
37.5 65.8038617806146
38.7 66.71284979096862
40.0 67.6717659101362
41.2 68.59074930308948
42.5 69.40920611180408
43.7 70.1983760640218
45.0 70.8184027493346
46.2 71.14673677241468
47.5 71.06604130619769
48.7 70.59977505304927
50.0 70.3824011242456
51.5 70.90245227663601
53.0 72.20513209549597
54.5 73.63276641677855
56.0 74.85246659320063
58.0 75.60493402485065
60.0 75.95816432842567
61.5 76.18505351870532
63.0 76.41434683019867
65.0 76.56516840337088
67.0 76.57834014173957
69.0 76.70231930882494
71.0 76.94775843976285
73.0 77.1225024750195
75.0 77.53276641677856
77.5 78.28305423355704
80.0 79.03664851326837
82.5 79.89153992130704
85.0 80.60231930882493
87.5 81.066651612293
90.0 81.21672712400493
92.5 81.26078752378508
95.0 81.44273466336205
97.5 82.07643251199421
100.0 82.91763579607706
103.0 83.56756483937922
106.0 83.98450416897482
109.0 84.27643251199422
112.0 84.70082052216034
115.0 85.00082052216034
118.0 84.99428747076436
122.0 85.04827116221921
125.0 85.47314358007525
128.0 85.92971702685195
132.0 85.98372978683008
136.0 85.85832444967306
140.0 85.96806738705084
145.0 86.06447139029322
150.0 85.69922136315495
155.0 85.29758538133055
160.0 84.9508253968645
165.0 84.59887955682922
170.0 84.368864092308
175.0 84.45553353459144
180.0 84.5550979799905
185.0 84.48231818670511
190.0 83.99100417603569
195.0 83.71649989227733
200.0 83.64564283831302
206.0 83.4343165268212
212.0 83.31291304320713
218.0 83.99941274353074
224.0 83.84705516601959
230.0 83.61721141113702
236.0 83.66748393554857
240.0 84.01355047682564
250.0 83.69664527155413
258.0 83.53411398341756
265.0 83.30561568938897
272.0 82.99240872140722
280.0 82.88249614301543
290.0 82.8166928957646
300.0 82.91742499163887
307.0 83.01742499163886
315.0 82.94462902895951
325.0 82.81555362166333
335.0 82.88190738450912
345.0 82.56369220375488
355.0 82.14045466118651
365.0 81.73059903873931
375.0 81.5550774971912
387.0 81.27347733649675
400.0 80.96730733239568
412.0 80.67395185355832
425.0 80.68281359920745
437.0 80.48358985047722
450.0 80.48716676319988
462.0 80.20054336902055
475.0 79.80191939638898
487.0 80.1450094061318
500.0 80.32004234482619
515.0 80.41264166042082
530.0 80.39720492233292
545.0 80.13373197180718
560.0 79.90637865476137
580.0 79.87857839098143
600.0 80.08800878819383
615.0 80.22597306196145
630.0 80.01377129258861
650.0 80.2233668213963
670.0 80.01990167380495
690.0 79.58212710979929
710.0 79.69442318062026
730.0 79.18997693082707
750.0 78.75653643769466
775.0 78.40836893766641
800.0 78.50265424422733
825.0 78.66182730842505
850.0 79.05767767147427
875.0 79.83603146888824
900.0 80.16251235862127
925.0 79.97663493575563
950.0 79.51878026002622
975.0 79.15877021280468
1000.0 78.60981761820545
1030.0 77.63578767775022
1060.0 76.5185649571925
1090.0 76.03760115318957
1120.0 76.79351579564745
1150.0 77.45458640791787
1180.0 76.54441840857962
1220.0 75.96208911991837
1250.0 76.24037525407212
1280.0 75.73288893390409
1320.0 75.61487539946012
1360.0 75.90606361785692
1400.0 75.80855360013868
1450.0 76.14347447859892
1500.0 75.74341296030477
1550.0 74.76979165109495
1600.0 74.83370428214278
1650.0 74.82429945112463
1700.0 74.62322298627578
1750.0 74.25830471210244
1800.0 72.09943636866905
1850.0 71.51963990479794
1900.0 72.21065455900631
1950.0 73.6762958841806
2000.0 74.82663962844846
2060.0 76.23624532624454
2120.0 76.82033007610981
2180.0 77.0201669388497
2240.0 77.34620244859897
2300.0 76.99740056610554
2360.0 75.56321262628093
2400.0 75.91765457364112
2500.0 75.54294820800465
2580.0 75.08961796644455
2650.0 74.79327060542946
2720.0 74.84089403785767
2800.0 74.51486955580357
2900.0 73.66534483998898
3000.0 73.59472516527859
3070.0 72.9660910736399
3150.0 71.8222738743244
3250.0 70.30527045093129
3350.0 69.8612496533027
3450.0 70.5196723115859
3550.0 72.03460156089639
3650.0 73.12098863713504
3750.0 73.22532922893274
3870.0 72.8843159266336
4000.0 72.42077291305993
4120.0 72.41590516662617
4250.0 72.92597936686455
4370.0 72.33871121559832
4500.0 72.08638633398402
4620.0 72.08158751055653
4750.0 72.21373224420165
4870.0 71.92628458112132
5000.0 71.51555422419149
5150.0 70.16771458539998
5300.0 70.03185406187909
5450.0 70.46912147616649
5600.0 71.95845043383082
5800.0 72.30108811223025
6000.0 72.64892707476803
6150.0 73.11909735949094
6300.0 74.39756677742767
6500.0 75.04946570828223
6700.0 72.5130022835428
6900.0 67.30297593309334
7100.0 67.61488872742837
7300.0 71.81202466204093
7500.0 73.24146259355051
7750.0 74.03074761321213
8000.0 72.22413297295327
8250.0 73.24294720107694
8500.0 73.51605905766452
8750.0 70.28389512290437
9000.0 68.31393559395093
9250.0 71.68548256976577
9500.0 72.89762970557881
9750.0 73.62580301848422
10000.0 76.86678157452987
10300.0 74.44686597042408
10600.0 75.09226238180052
10900.0 75.4041247528055
11200.0 76.30669671350496
11500.0 74.27589237065759
11800.0 74.8129704142909
12200.0 71.15052794921486
12500.0 72.60911623435821
12800.0 74.461443989423
13200.0 75.50697422185327
13600.0 70.74437777344632
14000.0 70.0021438798658
14500.0 69.11167907921771
15000.0 64.2475932284092
15500.0 62.52365089350249
16000.0 60.860246340744
16500.0 64.59596034660774
17000.0 63.667228352241736
17500.0 65.03191603087713
18000.0 65.90168572774529
18500.0 63.969878977183924
19000.0 64.01638880920144
19500.0 64.8340463605836
