Freq,On Axis,Listening Window,Sound Power,Early Reflections,Early Reflections DI,Sound Power DI,DI offset
20.5078,53.6421,53.50883872449211,58.18862005592371,56.35856612358927,37.15027260090284,35.3202186685684,40
21.9727,56.4684,56.39292762439612,60.35386442049429,58.739660175813526,37.653267448582596,36.03906320390183,40
23.4375,58.70320000000001,58.62981945293683,61.64932589765098,60.323621734805954,38.306197718130875,36.98049355528585,40
24.9023,60.21109999999999,60.15518250172161,62.90498326529631,61.680786481066065,38.47439602065555,37.2501992364253,40
26.3672,60.98340000000002,60.92474365880312,63.602119845231954,62.40716612817347,38.51757753062965,37.32262381357117,40
27.832,61.703,61.66605719482108,64.43320798271384,63.210031135706274,38.456026059114805,37.23284921210724,40
29.2969,64.2364,64.24317758745674,66.62867557909443,65.56280343219748,38.68037415525926,37.61450200836231,40
30.7617,65.23310000000001,65.22913863860737,67.20046149467699,66.29051269081835,38.93862594778902,38.02867714393038,40
32.2266,66.9839,66.99296777617772,68.75581560760729,67.93977100425468,39.05319677192304,38.23715216857043,40
33.6914,68.785,68.78649764088196,70.17233966256366,69.5057779023335,39.280719738548456,38.6141579783183,40
35.1562,69.17520000000002,69.17609412875616,70.63665537724994,69.93190037083593,39.24419375792023,38.539438751506225,40
36.6211,70.3624,70.39449363673413,71.89473254651529,71.19518017307877,39.19931346365536,38.49976109021884,40
38.0859,71.9164,71.93360780925607,73.0093900727868,72.49091286016416,39.442694949091916,38.924217736469274,40
39.5508,72.78640000000001,72.80343873223833,73.82316737896795,73.32637782015087,39.47706091208747,38.98027135327038,40
41.0156,73.6228,73.64074639319996,74.5636228399276,74.11057689313412,39.53016950006584,39.07712355327236,40
42.4805,74.4336,74.4527946255659,75.31073653105874,74.88761584572003,39.565178779845866,39.14205809450716,40
43.9453,75.15809999999999,75.1780969526134,75.97290107416933,75.57900573275221,39.599091219861194,39.20519587844407,40
45.4102,75.73429999999999,75.75683963728633,76.5391831495778,76.15201239486844,39.6048272424179,39.21765648770854,40
46.875,76.4091,76.43053881766033,77.1263604224216,76.77871722587675,39.65182159178359,39.304178395238736,40
48.3398,76.9676,76.98912794267173,77.62099489715483,77.30389435335853,39.6852335893132,39.3681330455169,40
51.2695,77.9297,77.95014517044883,78.50428390924804,78.22282425431354,39.7273209161353,39.44586126120079,40
52.7344,78.2603,78.28484229385454,78.88078192081169,78.5805569103791,39.70428538347544,39.40406037304285,40
54.1992,78.66660000000002,78.69050580305682,79.2325242972621,78.95750814993728,39.73299765311954,39.45798150579472,40
55.6641,79.0436,79.06611253113194,79.55403978516951,79.30451848763845,39.76159404349349,39.51207274596243,40
58.5938,79.6695,79.69139980128807,80.11920405548155,79.89841513655276,39.792984664735314,39.572195745806525,40
60.0586,79.9649,79.98624339551172,80.38429241112706,80.17750300128418,39.80874039422754,39.60195098438466,40
62.9883,80.49,80.51058799807902,80.86081970917543,80.67659683189684,39.83399116618217,39.64976828890359,40
64.4531,80.73680000000002,80.7562835614203,81.06891475203138,80.90289741646757,39.85338614495274,39.68736880938893,40
67.3828,81.2646,81.28264857448173,81.53390232031077,81.3975113206825,39.88513725379923,39.74874625417095,40
68.8477,81.4605,81.47860798134772,81.71992015330626,81.5879869689188,39.89062101242892,39.75868782804146,40
71.7773,81.8175,81.83530850108838,82.05360860926761,81.93269661997459,39.902611881113785,39.781699891820764,40
74.707,82.174,82.19067371802278,82.37270704459912,82.2691346989162,39.921539019106575,39.817966673423655,40
77.6367,82.51690000000002,82.53242013207377,82.67907854975456,82.59205257895178,39.94036755312199,39.8533415823192,40
79.1016,82.6654,82.68028879689919,82.80986878185284,82.73081726584675,39.94947153105244,39.87042001504635,40
82.0312,82.9297,82.94366158553873,83.04739007176644,82.98020200482945,39.963459580709284,39.89627151377229,40
84.9609,83.1883,83.20118905660898,83.2816385283934,83.22517732425072,39.97601173235826,39.91955052821558,40
87.8906,83.4553,83.46701091840119,83.54038949254175,83.48630119069477,39.98070972770641,39.92662142585944,40
90.8203,83.75229999999999,83.76184240764447,83.80043611008358,83.76230302421826,39.99953938342621,39.961406297560885,40
95.2148,84.0891,84.09524360541275,84.06276027830964,84.05926969843424,40.03597390697851,40.03248332710311,40
98.1445,84.2611,84.26536064951043,84.20130901293035,84.21241460259915,40.05294604691127,40.064051636580075,40
101.074,84.4206,84.42205503028121,84.30944135571958,84.34382980058172,40.0782252296995,40.11261367456163,40
105.469,84.6809,84.67920962770219,84.50155439001686,84.5689127321985,40.110296895503694,40.17765523768533,40
108.398,84.7747,84.77424558509614,84.62899156153087,84.67960519809068,40.094640387005455,40.14525402356527,40
112.793,84.8376,84.83534005915537,84.70670710635305,84.7457481791676,40.089591879987765,40.12863295280232,40
117.188,84.947,84.93922490095267,84.73445449260517,84.80751051535968,40.131714385592986,40.2047704083475,40
120.117,85.094,85.0827281975836,84.81177041922064,84.91514980058992,40.16757839699369,40.27095777836297,40
124.512,85.4247,85.41243067561645,85.12831330913836,85.23926985982594,40.17316081579051,40.284117366478085,40
128.906,85.416,85.40226317067683,85.12005861959062,85.22871502186086,40.17354814881597,40.28220455108621,40
133.301,85.5097,85.49169721965103,85.10243480720861,85.26523669575725,40.22646052389378,40.38926241244242,40
139.16,85.4568,85.44245747855354,85.10143284440596,85.24191718766542,40.200540290888114,40.34102463414757,40
143.555,85.3505,85.33326173960839,85.0086557383946,85.13715178191168,40.196109957696706,40.324606001213795,40
147.949,85.4116,85.38672498612596,85.02902729503171,85.1644992575174,40.22222572860855,40.357697691094245,40
153.809,85.5787,85.55061593862932,85.07226769224765,85.27342041231003,40.27719552631929,40.47834824638167,40
159.668,85.35329999999999,85.3297620586239,84.87149804268688,85.06942870141208,40.26033335721182,40.45826401593702,40
165.527,85.0517,85.02469251362675,84.65781210954435,84.80230081264583,40.22239170098092,40.366880404082394,40
171.387,84.9907,84.94434695789708,84.37551531454639,84.60176156595973,40.34258539193735,40.56883164335069,40
177.246,84.7808,84.75168037655857,84.4080624103724,84.51566007297058,40.23602030358799,40.34361796618617,40
183.105,84.5121,84.4643954007043,84.15595833538026,84.20770834345306,40.25668705725124,40.30843706532404,40
188.965,84.7244,84.65910921010266,84.03947277942858,84.2503744391064,40.40873477099626,40.61963643067408,40
196.289,84.8811,84.80909009704638,84.04820094765302,84.35803927587841,40.45105082116797,40.760889149393364,40
203.613,84.6666,84.58557389660338,83.64738411823738,84.05444781639936,40.53112608020402,40.938189778365995,40
210.938,84.6458,84.56530429948589,83.41947866559661,83.96060029290567,40.60470400658022,41.145825633889274,40
218.262,84.481,84.41261714124278,83.36301941493171,83.86779965699856,40.54481748424422,41.04959772631106,40
225.586,83.8789,83.818204529495,83.38492778471698,83.56082592023888,40.25737860925612,40.43327674477803,40
232.91,83.50919999999999,83.37655984157699,82.72906018872175,82.97219637840963,40.40436346316736,40.647499652855245,40
241.699,84.28059999999999,84.13373871428905,82.78561266646132,83.38327626600034,40.750462448288715,41.34812604782773,40
250.488,84.2693,84.11421098873383,82.16818797050428,83.09674590768569,41.017465081048144,41.94602301822955,40
259.277,84.99540000000002,84.85294293782626,82.72291560898196,83.78922348398405,41.06371945384221,42.13002732884429,40
268.066,84.9301,84.81023479358329,83.06499764134495,83.9153242015585,40.894910592024786,41.745237152238346,40
276.855,84.2998,84.16031418988217,82.41390254775197,83.2420148700866,40.918299319795565,41.7464116421302,40
287.109,84.2493,84.12041973225516,82.04215570407706,83.09370370271608,41.026716029539074,42.0782640281781,40
297.363,84.72540000000001,84.58413152112036,82.16143039990268,83.39385657251968,41.190274948600674,42.42270112121767,40
307.617,84.4435,84.34826256852119,82.58810356253579,83.46663037103394,40.88163219748725,41.7601590059854,40
319.336,83.63,83.49425784464113,81.57177489130027,82.52134239612711,40.972915448514016,41.92248295334086,40
329.59,83.8047,83.65345215295963,81.41046507651511,82.55083437758238,41.102617775377254,42.24298707644452,40
341.309,83.8031,83.65120396737092,81.31265567944546,82.5135309128002,41.13767305457071,42.33854828792546,40
353.027,83.80509999999998,83.63770165841146,81.09137510693685,82.38034017695577,41.25736148145569,42.54632655147461,40
366.211,84.01850000000002,83.90094971727878,81.29781797208028,82.6777401555704,41.22320956170837,42.603131745198496,40
379.395,83.57,83.41376557114972,80.8880696126928,82.18889472197667,41.22487084917306,42.52569595845692,40
392.578,83.66319999999999,83.52439478654102,80.81879748477853,82.2360086638348,41.28838612270623,42.705597301762495,40
405.762,83.3717,83.21257118614221,80.59332056478709,81.9578256389914,41.25474554715082,42.61925062135512,40
420.41,83.27440000000001,83.12012237919325,80.36161020178608,81.79272399413304,41.32739838506021,42.75851217740717,40
435.059,83.5997,83.42423880447917,80.57026563231946,82.06590537189956,41.35833343257961,42.85397317215971,40
451.172,83.601,83.49794852566411,80.88717088836256,82.31343486661842,41.18451365904569,42.61077763730155,40
465.82,83.85659999999999,83.6721105362071,80.53789873518404,82.20455294538812,41.467557590818984,43.134211801023056,40
483.398,83.49709999999999,83.34509942495735,80.43440604306888,81.98214958847805,41.3629498364793,42.91069338188848,40
499.512,83.4012,83.2796473325316,80.42808555054182,81.98246651673188,41.29718081579972,42.85156178198977,40
517.09,83.1651,82.97109206340674,80.08866273432446,81.60321512467792,41.36787693872883,42.882429329082285,40
536.133,84.06370000000001,83.8109011401394,80.45502193003927,82.17823526336986,41.63266587676955,43.35587921010014,40
555.176,84.4654,84.21585187837381,80.6204546000593,82.5240827060508,41.691769172323006,43.59539727831451,40
574.219,85.1044,84.84613988852686,80.91454413653562,82.93313588483755,41.91300400368931,43.93159575199124,40
594.727,84.96540000000002,84.77842857622375,80.96857996345929,82.96651523127936,41.81191334494439,43.809848612764455,40
615.234,84.65200000000002,84.4167961176812,80.7612149924133,82.6911728546676,41.7256232630136,43.6555811252679,40
637.207,85.1123,84.8815666253534,80.8298646861666,82.99235306892308,41.88921355643032,44.0517019391868,40
659.18,84.5957,84.43228057337183,80.98510025910649,82.7907136636397,41.64156690973212,43.44718031426534,40
682.617,84.8149,84.52091922302185,80.6013223503179,82.59538350847826,41.925535714543585,43.91959687270395,40
707.52,85.5905,85.20732281030322,80.69280935735003,82.98159343665105,42.22572937365217,44.514513452953196,40
732.422,85.2519,84.95467829043596,80.86139439394043,82.88902862039467,42.065649670041296,44.093283896495535,40
757.324,85.5018,85.08718005385911,80.75193266115099,82.88995794966833,42.197222104190786,44.335247392708126,40
785.156,85.85050000000001,85.49873063948753,80.56175571657568,83.03028932014254,42.46844131934499,44.93697492291186,40
811.523,84.369,84.01563388540191,79.64121096628344,81.76025685809975,42.25537702730216,44.37442291911847,40
840.82,83.8279,83.37328351921403,78.92922240861955,81.2023753544422,42.17090816477183,44.444061110594475,40
870.117,84.5618,83.99745139074896,79.57939810617648,81.90521378489822,42.09223760585074,44.41805328457248,40
900.879,86.4266,85.69011055411721,80.88673878315038,83.37337897605039,42.31673157806682,44.803371770966834,40
933.105,86.0836,85.45146042184415,80.27769644769859,82.68601235882836,42.76544806301578,45.17376397414556,40
965.332,85.9839,85.39668188446382,80.63467304840574,82.26198925711418,43.13469262734964,44.76200883605807,40
1000.49,84.7346,84.7828494036786,80.6481504771848,81.53724756431525,43.245601839363346,44.1346989264938,40
1035.64,84.2181,84.11822243438516,79.4234762897153,81.12438148310626,42.9938409512789,44.694746144669864,40
1072.27,83.4998,83.29351536145276,78.70835170455574,80.70908479642509,42.584430565027674,44.58516365689702,40
1108.89,84.11849999999998,83.63074176648561,78.55729283900769,80.84958756699146,42.78115419949415,45.073448927477926,40
1148.44,84.7286,84.22802369918692,78.61100089154918,81.10845524982248,43.119568449364436,45.61702280763774,40
1189.45,84.79319999999998,84.27198042457043,78.42721395051821,80.83111568166433,43.4408647429061,45.84476647405222,40
1230.47,84.2684,83.88197211835363,78.3455286508092,80.53122540361345,43.35074671474018,45.53644346754443,40
1274.41,84.1577,83.66017640758183,78.12562313546415,80.30663619299861,43.35354021458322,45.53455327211768,40
1319.82,83.8395,83.36286079614844,78.06138162420831,80.13508085108049,43.22777994506795,45.30147917194013,40
1366.7,84.4011,83.87260318333566,78.41009447302687,80.41630494528263,43.45629823805302,45.46250871030878,40
1413.57,85.6543,84.8160970967605,79.0613035759727,81.14629550433156,43.66980159242894,45.7547935207878,40
1463.38,85.6887,84.96301849307444,79.22279728913317,81.09982705453814,43.863191438536305,45.740221203941275,40
1516.11,85.6635,84.88342607265827,78.73667531232068,80.85181061419983,44.03161545845843,46.14675076033758,40
1568.85,84.7902,84.38493363081523,78.74097509904848,80.92197211496243,43.4629615158528,45.64395853176674,40
1624.51,85.2365,84.67291498653411,78.76379729978089,80.82724149447743,43.845673492056676,45.90911768675322,40
1681.64,85.8812,85.28771020763625,78.7436119604385,81.07253223736498,44.21517797027127,46.54409824719775,40
1741.7,85.4653,85.0733447976807,78.81801928590738,80.90441441316793,44.16893038451278,46.25532551177332,40
1803.22,85.0949,84.62794459857308,78.74963742959686,80.33181518469492,44.29612941387816,45.87830716897622,40
1866.21,85.5282,84.7936996542608,78.5656893332813,80.45119735202279,44.34250230223802,46.22801032097951,40
1932.13,86.1892,85.36235728386134,78.67385269384576,80.69931944471061,44.66303783915073,46.68850459001558,40
1999.51,86.2437,85.4879010909629,79.2370108039365,80.89914056082584,44.58876053013705,46.250890287026394,40
2069.82,86.08690000000001,85.25652005267102,78.98529103129415,80.82424747679697,44.43227257587405,46.27122902137687,40
2143.07,86.63909999999998,85.81968015065756,79.51446023872572,81.60458087703762,44.21509927361994,46.30521991193184,40
2219.24,86.66329999999999,85.95433821573101,80.12909441986278,81.97677252122973,43.97756569450128,45.82524379586823,40
2296.88,85.8643,85.49957358895135,80.17487733756388,81.87406658224924,43.62550700670211,45.324696251387465,40
2378.91,85.7315,85.57447578628712,80.30453970726295,82.20935633546368,43.36511945082344,45.26993607902418,40
2462.4,85.9737,86.02616921926654,80.87262049287375,82.80195694045007,43.224212278816466,45.153548726392785,40
2548.83,85.295,85.52060051343624,80.4609733785529,82.47292127684543,43.04767923659081,45.05962713488334,40
2639.65,85.7201,85.7189768265965,80.67944550419085,82.76527632005902,42.95370050653749,45.03953132240565,40
2731.93,86.05799999999999,86.13718821357429,80.96463792761827,83.2090169821846,42.9281712313897,45.17255028595602,40
2828.61,85.7073,86.03225001372665,80.98781502346554,83.28605689879468,42.74619311493197,45.04443499026111,40
2928.22,85.6724,85.8513696734332,80.80461253507049,83.07920169499421,42.772167978438986,45.04675713836271,40
3030.76,86.3879,86.27957138043173,80.83245467829605,83.43129421349971,42.84827716693202,45.44711670213569,40
3137.7,85.774,86.00175978948153,81.04127580445095,83.5433889293394,42.458370860142125,44.96048398503058,40
3249.02,85.3174,85.49497438554222,80.68687034747704,83.26583666729847,42.22913771824375,44.80810403806518,40
3363.28,85.5312,85.84965505021559,81.15036267920308,83.70754673024098,42.14210831997461,44.699292371012504,40
3481.93,85.25299999999999,85.59586628771122,81.2988920403698,83.56666337746063,42.02920291025059,44.296974247341424,40
3604.98,85.92949999999999,86.02451679155935,81.5928768733109,83.84226308644232,42.182253705117034,44.43163991824845,40
3732.42,85.9236,85.90911449879017,81.69275224232034,83.99043696656999,41.91867753222019,44.216362256469836,40
3864.26,86.73340000000002,86.2604802451144,81.62280254645833,84.18028727399914,42.08019297111525,44.63767769865606,40
4000.49,87.053,86.1146840481727,81.39820137404362,84.2550942110853,41.85958983708741,44.71648267412908,40
4141.11,88.316,87.08520852614669,81.72536913025213,84.8666154573809,42.218593068765784,45.359839395894554,40
4287.6,88.3537,87.131935044753,81.83118826537567,84.86506225520685,42.266872789546156,45.300746779377334,40
4438.48,88.0254,86.97600847104815,82.07333255684269,84.83148759529041,42.144520875757735,44.90267591420546,40
4595.21,86.5969,86.19111034537335,81.92334900593639,84.4056078495571,41.785502495816246,44.26776133943696,40
4756.35,86.7621,86.29509768583426,81.92048709827093,84.60951680250287,41.6855808833314,44.37461058756334,40
4924.8,86.85250000000002,86.47933699868253,81.91460382234028,84.82173678737726,41.657600211305265,44.564733176342244,40
5097.66,87.1474,86.78772025436538,81.84696813432038,84.9988957028545,41.788824551510885,44.940752120045005,40
5277.83,87.2956,86.89036057473594,81.80310585381095,85.02793022004171,41.862430354694226,45.08725472092499,40
5463.87,87.154,86.9185976473215,81.72958433928878,85.01456435234361,41.90403329497789,45.18901330803273,40
5657.23,86.5947,86.55156918460001,81.47445593222596,84.8167280886509,41.73484109594911,45.07711325237405,40
5856.45,86.90189999999998,86.72918821680251,81.3984433722774,84.74998069307347,41.979207523729045,45.330744844525114,40
6062.99,86.9675,86.68138552619445,81.10322380662392,84.52829349389191,42.15309203230254,45.57816171957053,40
6276.86,87.36510000000001,86.79421216709002,80.95789289732747,84.3632215424403,42.43099062464972,45.836319269762555,40
6498.05,87.5837,86.91314702483973,80.81361503515194,84.18907596206452,42.72407106277521,46.09953198968779,40
6726.56,87.6172,86.94429939712111,80.76130385493481,84.05597815944208,42.88832123767904,46.182995542186305,40
6963.87,87.9259,87.18042575052968,80.70252762609117,84.09272747962851,43.08769827090117,46.47789812443851,40
7209.96,88.0721,87.26519087506563,80.6026879105197,84.1321628503738,43.133028024691825,46.66250296454592,40
7464.84,88.0249,87.2675736513575,80.43766101812717,84.09856894564928,43.16900470570822,46.82991263323032,40
7727.05,87.86179999999999,87.31281532348999,80.29930803873611,84.07680173631567,43.23601358717431,47.01350728475387,40
7999.51,87.5861,87.2483648860441,80.14320370777783,84.02827722471766,43.220087661326446,47.10516117826627,40
8282.23,87.57150000000001,87.24848172101505,79.88598451471063,83.95507858911324,43.29340313190181,47.362497206304425,40
8573.73,87.7061,87.25731305881719,79.62226808289722,83.81058300410959,43.4467300547076,47.63504497591997,40
8876.95,88.0051,87.33260358388904,79.47113696261601,83.6294238623278,43.70317972156124,47.861466621273024,40
9188.96,88.0221,87.4001326017423,79.41581756808803,83.56565697588154,43.83447562586076,47.98431503365427,40
9514.16,88.2027,87.57736655143117,79.35986525762007,83.61019482775308,43.96717172367809,48.2175012938111,40
9849.61,88.707,88.06214933878745,79.62119499370942,84.00690094188697,44.05524839690048,48.440954345078026,40
10196.8,89.17669999999998,88.59264406137238,79.92755419707153,84.39571849917155,44.19692556220083,48.66508986430085,40
10555.7,89.5386,88.86433036365491,79.95020882628127,84.51454388678245,44.34978647687247,48.914121537373646,40
10927.7,89.7951,89.03284255305077,79.91588749495224,84.5402264713809,44.492616081669865,49.116955058098526,40
11313.0,89.82989999999998,89.1004668294918,79.87979459762373,84.52739864366075,44.57306818583105,49.220672231868065,40
11712.9,89.9467,89.17929161355325,79.69304343988394,84.43084634904723,44.74844526450602,49.48624817366931,40
