Freq "Listening Window"
20.5078 53.50883872449211
21.9727 56.39292762439612
23.4375 58.62981945293683
24.9023 60.15518250172161
26.3672 60.92474365880312
27.832 61.66605719482108
29.2969 64.24317758745674
30.7617 65.22913863860737
32.2266 66.99296777617772
33.6914 68.78649764088196
35.1562 69.17609412875616
36.6211 70.39449363673413
38.0859 71.93360780925607
39.5508 72.80343873223833
41.0156 73.64074639319996
42.4805 74.4527946255659
43.9453 75.1780969526134
45.4102 75.75683963728633
46.875 76.43053881766033
48.3398 76.98912794267173
51.2695 77.95014517044883
52.7344 78.28484229385454
54.1992 78.69050580305682
55.6641 79.06611253113194
58.5938 79.69139980128807
60.0586 79.98624339551172
62.9883 80.51058799807902
64.4531 80.7562835614203
67.3828 81.28264857448173
68.8477 81.47860798134772
71.7773 81.83530850108838
74.707 82.19067371802278
77.6367 82.53242013207377
79.1016 82.68028879689919
82.0312 82.94366158553873
84.9609 83.20118905660898
87.8906 83.46701091840119
90.8203 83.76184240764447
95.2148 84.09524360541275
98.1445 84.26536064951043
101.074 84.42205503028121
105.469 84.67920962770219
108.398 84.77424558509614
112.793 84.83534005915537
117.188 84.93922490095267
120.117 85.0827281975836
124.512 85.41243067561645
128.906 85.40226317067683
133.301 85.49169721965103
139.16 85.44245747855354
143.555 85.33326173960839
147.949 85.38672498612596
153.809 85.55061593862932
159.668 85.3297620586239
165.527 85.02469251362675
171.387 84.94434695789708
177.246 84.75168037655857
183.105 84.4643954007043
188.965 84.65910921010266
196.289 84.80909009704638
203.613 84.58557389660338
210.938 84.56530429948589
218.262 84.41261714124278
225.586 83.818204529495
232.91 83.37655984157699
241.699 84.13373871428905
250.488 84.11421098873383
259.277 84.85294293782626
268.066 84.81023479358329
276.855 84.16031418988217
287.109 84.12041973225516
297.363 84.58413152112036
307.617 84.34826256852119
319.336 83.49425784464113
329.59 83.65345215295963
341.309 83.65120396737092
353.027 83.63770165841146
366.211 83.90094971727878
379.395 83.41376557114972
392.578 83.52439478654102
405.762 83.21257118614221
420.41 83.12012237919325
435.059 83.42423880447917
451.172 83.49794852566411
465.82 83.6721105362071
483.398 83.34509942495735
499.512 83.2796473325316
517.09 82.97109206340674
536.133 83.8109011401394
555.176 84.21585187837381
574.219 84.84613988852686
594.727 84.77842857622375
615.234 84.4167961176812
637.207 84.8815666253534
659.18 84.43228057337183
682.617 84.52091922302185
707.52 85.20732281030322
732.422 84.95467829043596
757.324 85.08718005385911
785.156 85.49873063948753
811.523 84.01563388540191
840.82 83.37328351921403
870.117 83.99745139074896
900.879 85.69011055411721
933.105 85.45146042184415
965.332 85.39668188446382
1000.49 84.7828494036786
1035.64 84.11822243438516
1072.27 83.29351536145276
1108.89 83.63074176648561
1148.44 84.22802369918692
1189.45 84.27198042457043
1230.47 83.88197211835363
1274.41 83.66017640758183
1319.82 83.36286079614844
1366.7 83.87260318333566
1413.57 84.8160970967605
1463.38 84.96301849307444
1516.11 84.88342607265827
1568.85 84.38493363081523
1624.51 84.67291498653411
1681.64 85.28771020763625
1741.7 85.0733447976807
1803.22 84.62794459857308
1866.21 84.7936996542608
1932.13 85.36235728386134
1999.51 85.4879010909629
2069.82 85.25652005267102
2143.07 85.81968015065756
2219.24 85.95433821573101
2296.88 85.49957358895135
2378.91 85.57447578628712
2462.4 86.02616921926654
2548.83 85.52060051343624
2639.65 85.7189768265965
2731.93 86.13718821357429
2828.61 86.03225001372665
2928.22 85.8513696734332
3030.76 86.27957138043173
3137.7 86.00175978948153
3249.02 85.49497438554222
3363.28 85.84965505021559
3481.93 85.59586628771122
3604.98 86.02451679155935
3732.42 85.90911449879017
3864.26 86.2604802451144
4000.49 86.1146840481727
4141.11 87.08520852614669
4287.6 87.131935044753
4438.48 86.97600847104815
4595.21 86.19111034537335
4756.35 86.29509768583426
4924.8 86.47933699868253
5097.66 86.78772025436538
5277.83 86.89036057473594
5463.87 86.9185976473215
5657.23 86.55156918460001
5856.45 86.72918821680251
6062.99 86.68138552619445
6276.86 86.79421216709002
6498.05 86.91314702483973
6726.56 86.94429939712111
6963.87 87.18042575052968
7209.96 87.26519087506563
7464.84 87.2675736513575
7727.05 87.31281532348999
7999.51 87.2483648860441
8282.23 87.24848172101505
8573.73 87.25731305881719
8876.95 87.33260358388904
9188.96 87.4001326017423
9514.16 87.57736655143117
9849.61 88.06214933878745
10196.8 88.59264406137238
10555.7 88.86433036365491
10927.7 89.03284255305077
11313.0 89.1004668294918
11712.9 89.17929161355325
12126.0 89.28167015688048
12553.7 89.29045698766294
12996.1 88.97216963242533
13454.6 88.34768646226709
13929.2 87.59133884840685
14419.9 86.59085045806002
14928.2 86.22754263336724
15455.6 86.09445717079976
16000.5 85.91811840716824
16564.5 85.57354677899262
17148.9 84.99429225853817
17752.4 84.38769110361032
18379.4 83.47764041662103
19026.9 82.45735538456579
19697.8 81.65956579291188
19999.5 81.19862597126159
