Freq "Sound Power"
20.5078 57.95409732865099
21.9727 60.1193416932216
23.4375 61.41480317037829
24.9023 62.670460538023576
26.3672 63.36759711795922
27.832 64.19868525544112
29.2969 66.39415285182173
30.7617 66.96593876740425
32.2266 68.52129288033456
33.6914 69.93781693529095
35.1562 70.4021326499772
36.6211 71.66020981924257
38.0859 72.77486734551408
39.5508 73.58864465169525
41.0156 74.32910011265487
42.4805 75.07621380378603
43.9453 75.73837834689662
45.4102 76.30466042230506
46.875 76.89183769514887
48.3398 77.3864721698821
51.2695 78.26976118197531
52.7344 78.64625919353898
54.1992 78.99800156998937
55.6641 79.31951705789679
58.5938 79.88468132820881
60.0586 80.14976968385434
62.9883 80.62629698190273
64.4531 80.83439202475867
67.3828 81.29937959303805
68.8477 81.48539742603354
71.7773 81.81908588199488
74.707 82.1381843173264
77.6367 82.44455582248186
79.1016 82.57534605458014
82.0312 82.81286734449374
84.9609 83.0471158011207
87.8906 83.30586676526903
90.8203 83.56591338281088
95.2148 83.82823755103692
98.1445 83.96678628565763
101.074 84.07491862844688
105.469 84.26703166274415
108.398 84.39446883425813
112.793 84.47218437908032
117.188 84.49993176533243
120.117 84.57724769194793
124.512 84.89379058186564
128.906 84.8855358923179
133.301 84.8679120799359
139.16 84.86691011713326
143.555 84.77413301112188
147.949 84.79450456775899
153.809 84.83774496497492
159.668 84.63697531541415
165.527 84.42328938227165
171.387 84.14099258727369
177.246 84.17353968309969
183.105 83.92143560810753
188.965 83.80495005215586
196.289 83.8136782203803
203.613 83.41286139096465
210.938 83.1849559383239
218.262 83.128496687659
225.586 83.15040505744427
232.91 82.49453746144903
241.699 82.55108993918861
250.488 81.93366524323154
259.277 82.48839288170925
268.066 82.83047491407223
276.855 82.17937982047926
287.109 81.80763297680436
297.363 81.92690767262997
307.617 82.35358083526307
319.336 81.33725216402753
329.59 81.1759423492424
341.309 81.07813295217272
353.027 80.85685237966413
366.211 81.06329524480758
379.395 80.6535468854201
392.578 80.58427475750582
405.762 80.35879783751437
420.41 80.12708747451336
435.059 80.33574290504674
451.172 80.65264816108984
465.82 80.30337600791131
483.398 80.19988331579614
499.512 80.19356282326912
517.09 79.85414000705173
536.133 80.22049920276655
555.176 80.38593187278659
574.219 80.68002140926292
594.727 80.73405723618657
615.234 80.52669226514057
637.207 80.5953419588939
659.18 80.75057753183378
682.617 80.36679962304518
707.52 80.45828663007731
732.422 80.62687166666771
757.324 80.51740993387826
785.156 80.32723298930294
811.523 79.40668823901072
840.82 78.69469968134682
870.117 79.34487537890378
900.879 80.65221605587766
933.105 80.04317372042587
965.332 80.40015032113303
1000.49 80.41362774991208
1035.64 79.18895356244258
1072.27 78.47382897728303
1108.89 78.32277011173497
1148.44 78.37647816427645
1189.45 78.1926912232455
1230.47 78.11100592353648
1274.41 77.89110040819142
1319.82 77.82685889693559
1366.7 78.17557174575416
1413.57 78.82678084869997
1463.38 78.98827456186044
1516.11 78.50215258504797
1568.85 78.50645237177575
1624.51 78.52927457250816
1681.64 78.50908923316578
1741.7 78.58349655863465
1803.22 78.51511470232413
1866.21 78.33116660600858
1932.13 78.43932996657304
1999.51 79.00248807666378
2069.82 78.75076830402143
2143.07 79.279937511453
2219.24 79.89457169259006
2296.88 79.94035461029115
2378.91 80.07001697999024
2462.4 80.63809776560102
2548.83 80.22645065128017
2639.65 80.44492277691812
2731.93 80.73011520034555
2828.61 80.75329229619281
2928.22 80.57008980779779
3030.76 80.59793195102331
3137.7 80.80675307717821
3249.02 80.4523476202043
3363.28 80.91583995193037
3481.93 81.06436931309709
3604.98 81.3583541460382
3732.42 81.45822951504762
3864.26 81.38827981918563
4000.49 81.16367864677089
4141.11 81.4908464029794
4287.6 81.59666553810294
4438.48 81.83880982956995
4595.21 81.68882627866368
4756.35 81.68596437099819
4924.8 81.68008109506755
5097.66 81.61244540704766
5277.83 81.56858312653824
5463.87 81.49506161201607
5657.23 81.23993320495326
5856.45 81.16392064500468
6062.99 80.86870107935121
6276.86 80.72337017005476
6498.05 80.57909230787922
6726.56 80.52678112766209
6963.87 80.46800489881844
7209.96 80.36816518324699
7464.84 80.20313829085447
7727.05 80.06478531146338
7999.51 79.9086809805051
8282.23 79.6514617874379
8573.73 79.3877453556245
8876.95 79.23661423534328
9188.96 79.1812948408153
9514.16 79.12534253034737
9849.61 79.3866722664367
10196.8 79.6930314697988
10555.7 79.71568609900854
10927.7 79.68136476767954
11313.0 79.645271870351
11712.9 79.45852071261122
12126.0 79.30677443637163
12553.7 79.01684607230708
12996.1 78.4636246298905
13454.6 77.64506054677166
13929.2 76.75806861192768
14419.9 75.86610858683738
14928.2 75.54043208894353
15455.6 75.22072348639314
16000.5 74.94141365597321
16564.5 74.43549033575712
17148.9 73.75237636241323
17752.4 72.99635324361876
18379.4 71.9032899261842
19026.9 70.56615681467203
19697.8 69.42316857872939
19999.5 68.87123523320705
