Freq,On Axis,Listening Window,Sound Power,Early Reflections,Early Reflections DI,Sound Power DI,DI offset
22.4,25.540506329113924,25.70344350081521,24.785262627681362,25.228348830084883,20.47509467073033,20.91818087313385,20
23.0,26.340506329113936,26.456044476091023,25.52899291212333,25.984226698946486,20.471817777144537,20.927051563967694,20
23.6,27.040506329113924,27.187294319467185,26.271713350431185,26.726030432388853,20.46126388707833,20.915580969036,20
24.0,27.840506329113936,27.930544108447975,27.00140657782839,27.468992120672965,20.46155198777501,20.929137530619585,20
25.0,28.64050632911392,28.683782475652777,27.761803481376234,28.237092007796264,20.446690467856513,20.921978994276543,20
25.8,29.340506329113936,29.44969631164369,28.52484123767951,28.996877206595258,20.452819105048434,20.92485507396418,20
26.5,30.14050632911392,30.215554719966917,29.28052081498558,29.744806282813784,20.470748437153134,20.93503390498134,20
27.2,30.94050632911393,30.980105711179448,30.051081420053833,30.527541873598636,20.45256383758081,20.929024291125614,20
28.0,31.74050632911394,31.757226504868896,30.83503846583548,31.31430005847929,20.442926446389606,20.922188039033415,20
29.0,32.540506329113924,32.53419557671535,31.617647047911532,32.09138549850806,20.442810078207287,20.916548528803816,20
30.0,33.340506329113936,33.32239269185658,32.393888437787155,32.875616658130866,20.446776033725712,20.928504254069423,20
30.7,34.14050632911392,34.0994590099601,33.17594641822586,33.647767801573025,20.451691208387075,20.923512591734237,20
31.5,34.94050632911393,34.876953669743585,33.96929664361335,34.44063689120051,20.436316778543073,20.907657026130238,20
32.5,35.74050632911394,35.664993972156765,34.75621259385227,35.22032261622533,20.444671355931433,20.908781378304496,20
33.5,36.540506329113924,36.442576645550645,35.53406821098005,36.00668924985328,20.435887395697364,20.908508434570592,20
34.5,37.24050632911394,37.21951673315027,36.30879595556655,36.77091604931434,20.448600683835934,20.91072077758372,20
35.5,38.040506329113924,37.97460980503223,37.092638536673405,37.55587248796036,20.418737317071873,20.881971268358825,20
36.5,38.840506329113936,38.77460980503221,37.890147035292074,38.348907977268794,20.42570182776342,20.88446276974014,20
37.5,39.64050632911392,39.574609805032196,38.67485908927736,39.12784636997935,20.446763435052844,20.899750715754834,20
38.7,40.44050632911393,40.374096155993925,39.487562522343154,39.93883549330158,20.435260662692343,20.88653363365077,20
40.0,41.24050632911394,41.17409615599391,40.28387890211644,40.729054363597754,20.445041792396154,20.890217253877466,20
41.2,42.040506329113924,41.985235279691125,41.087133033831265,41.53507733575887,20.450157943932254,20.89810224585986,20
42.5,42.94050632911393,42.82976474442455,41.92660137128635,42.3839971336364,20.445767610788153,20.9031633731382,20
43.7,43.74050632911394,43.67409615599391,42.77246659960619,43.22498277561894,20.449113380374968,20.901629556387718,20
45.0,44.64050632911392,44.540762175669784,43.61225372205155,44.06065405891502,20.480108116754764,20.928508453618235,20
46.2,45.44050632911393,45.40742818027444,44.49875715101888,44.94960198953805,20.457826190736384,20.908671029255558,20
47.5,46.340506329113936,46.32950824916057,45.387745487036,45.846762233444494,20.482746015716074,20.94176276212457,20
48.7,47.340506329113936,47.2407621756698,46.28380231188552,46.75095446947135,20.489807706198448,20.956959863784277,20
50.0,48.24050632911393,48.16318291741506,47.211938686795065,47.68044904714799,20.48273387026707,20.95124423061999,20
51.5,49.14050632911393,49.11848224692771,48.1446139243283,48.62373053565855,20.49475171126916,20.973868322599415,20
53.0,50.14050632911392,50.06318291741505,49.07277712634399,49.546814908260174,20.516368009154874,20.990405791071055,20
54.5,51.040506329113924,50.9965984841233,49.99894462939625,50.48765523779238,20.508943246330915,20.997653854727048,20
56.0,51.94050632911393,51.94101800715441,50.928637336746334,51.41043626033351,20.5305817468209,21.012380670408078,20
58.0,52.94050632911393,52.86318291741506,51.85060768733548,52.34342893146702,20.519753985948043,21.012575230079577,20
60.0,53.840506329113936,53.78574761304803,52.75642380298913,53.259541128576245,20.526206484471786,21.029323810058898,20
61.5,54.74050632911394,54.69685693037003,53.65711923177527,54.160097250341565,20.536759680028467,21.039737698594763,20
63.0,55.64050632911393,55.58574761304803,54.54671290689613,55.050569976117444,20.535177636930584,21.039034706151895,20
65.0,56.540506329113924,56.49685693037003,55.4325388018581,55.94691843805549,20.54993849231454,21.06431812851193,20
67.0,57.44050632911393,57.385747613048025,56.317230258744104,56.83540998413619,20.550337628911834,21.06851735430392,20
69.0,58.340506329113936,58.296856930370026,57.22078552139979,57.742866467343575,20.55399046302645,21.076071408970236,20
71.0,59.24050632911393,59.2076859828739,58.11357598933435,58.63718860641305,20.57049737646085,21.094109993539547,20
73.0,60.14050632911392,60.11873939419782,59.02424731948142,59.54856379400346,20.57017560019436,21.0944920747164,20
75.0,61.14050632911395,61.05275842634231,59.93937202858588,60.47720844556534,20.57554998077697,21.11338639775643,20
77.5,62.040506329113924,61.9527584263423,60.81682720538214,61.35849465665669,20.59426376968561,21.13593122096016,20
80.0,62.94050632911393,62.83027768951098,61.676877373820986,62.22816148969389,20.60211619981709,21.153400315689993,20
82.5,63.74050632911391,63.674863650449524,62.49883080120928,63.05685466565676,20.618008984792766,21.176032849240244,20
85.0,64.54050632911392,64.47486365044952,63.28331099267022,63.85257543667069,20.62228821377883,21.191552657779297,20
87.5,65.34050632911394,65.21950489248842,64.00139671228627,64.58892145722909,20.630583435259325,21.21810818020215,20
90.0,65.94050632911393,65.90793790238567,64.67055624583367,65.26149710679024,20.646440795595424,21.237381656552003,20
92.5,66.64050632911393,66.55300774494927,65.28349419130971,65.89246261493912,20.66054513001015,21.269513553639555,20
95.0,67.24050632911394,67.15300774494926,65.86132106827392,66.48446446767639,20.668543277272875,21.29168667667534,20
97.5,67.84050632911394,67.73052830199472,66.41037669075777,67.02444823772564,20.706080064269088,21.320151611236952,20
100.0,68.34050632911394,68.27536551938987,66.94367445870128,67.5881205953226,20.687244924067272,21.331691060688584,20
103.0,68.94050632911393,68.80869370679885,67.43774519811998,68.09407480843805,20.714618898360797,21.370948508678865,20
106.0,69.34050632911394,69.25326285611672,67.87316788171172,68.5200285412503,20.733234314866422,21.380094974404997,20
109.0,69.74050632911394,69.62000162942117,68.19918654818915,68.87290255758722,20.747099071833944,21.42081508123202,20
112.0,69.94050632911393,69.82000162942117,68.40625429836598,69.08303442544096,20.736967203980214,21.41374733105519,20
115.0,70.04050632911392,69.90869370679884,68.4541434912145,69.148476169466,20.76021753733285,21.454550215584348,20
118.0,69.84050632911394,69.73128018553827,68.28987118386787,68.99062882187313,20.740651363665137,21.441409001670394,20
122.0,69.54050632911392,69.43128018553827,67.96892740825113,68.69059942033999,20.740680765198277,21.462352777287137,20
125.0,69.14050632911393,69.02000162942116,67.54643054941083,68.26485484851479,20.755146780906372,21.47357108001033,20
128.0,68.64050632911395,68.57510579099312,67.11424592261945,67.82557199243192,20.749533798561203,21.460859868373674,20
132.0,68.34050632911394,68.26394062260603,66.82296816681884,67.54697198171652,20.716968640889505,21.44097245578719,20
136.0,68.24050632911393,68.15274667596518,66.74140052994834,67.44598466792671,20.706762008038467,21.41134614601684,20
140.0,68.34050632911394,68.25274667596517,66.86963517313713,67.56140129734202,20.691345378623154,21.383111502828044,20
145.0,68.54050632911392,68.44227378482609,67.06463878666592,67.7472182762907,20.69505550853539,21.37763499816016,20
150.0,68.64050632911395,68.60869370679885,67.22776111629503,67.89239372265583,20.71629998414302,21.380932590503818,20
155.0,68.74050632911391,68.66468674424506,67.25877045185129,67.92536970046135,20.739317043783714,21.40591629239377,20
160.0,68.74050632911391,68.66468674424506,67.17226212971039,67.87352459228754,20.791162151957522,21.49242461453467,20
165.0,68.74050632911391,68.598865812833,67.00222086183638,67.74160769652222,20.857258116310774,21.59664495099662,20
170.0,68.74050632911391,68.48951666041101,66.73927993059631,67.55077475335588,20.93874190705513,21.750236729814702,20
175.0,68.64050632911395,68.38951666041102,66.46289515748288,67.3666934261028,21.02282323430822,21.926621502928143,20
180.0,68.54050632911392,68.25827190936971,66.1694628934066,67.15305531575311,21.105216593616603,22.088809015963108,20
185.0,68.34050632911394,68.13529540478939,65.93201930532217,66.98285341365495,21.152441991134438,22.203276099467217,20
190.0,68.34050632911394,68.06894908922075,65.79988252915152,66.90011487311305,21.168834216107697,22.269066560069234,20
195.0,68.34050632911394,68.08951666041102,65.81530112960903,66.92878232249703,21.160734337913993,22.274215530801996,20
200.0,68.34050632911394,68.17786336956719,65.93951377142061,67.04513171716154,21.132731652405653,22.238349598146584,20
206.0,68.54050632911392,68.3778633695672,66.1927924200289,67.30404027499954,21.073823094567658,22.1850709495383,20
212.0,68.74050632911391,68.64227378482607,66.4691815802981,67.58787917909221,21.05439460573386,22.173092204527975,20
218.0,68.94050632911393,68.93102377976359,66.74821028610515,67.88771324887003,21.043310530893564,22.182813493658443,20
224.0,69.14050632911393,69.13102377976361,66.92540318643688,68.09819396453568,21.032829815227927,22.205620593326728,20
230.0,69.34050632911394,69.27636934933743,67.01689358041986,68.20611690396457,21.07025244537286,22.259475768917568,20
236.0,69.34050632911394,69.29886581283299,66.99710840672223,68.19301191586811,21.105853896964874,22.301757406110752,20
240.0,69.44050632911393,69.27786336956719,66.86841300812682,68.07447707793654,21.20338629163065,22.409450361440364,20
250.0,69.44050632911393,69.2240272848446,66.64956148144091,67.91967966445878,21.304347620385812,22.574465803403683,20
258.0,69.44050632911393,69.14851126549668,66.36698665450908,67.73227034558997,21.416240919906713,22.781524610987603,20
265.0,69.44050632911393,69.16024347604758,66.11021248631963,67.61881114617925,21.54143232986833,23.050030989727958,20
272.0,69.44050632911393,69.20362288644928,65.9413959799929,67.5875257459725,21.616097140476782,23.262226906456377,20
280.0,69.54050632911392,69.32548292650593,65.93995446063356,67.67023672137876,21.65524620512717,23.38552846587237,20
290.0,69.74050632911394,69.47167809018276,66.05213526180921,67.80618008419972,21.66549800598304,23.41954282837355,20
300.0,69.94050632911393,69.62844530964111,66.1984311631677,67.94725544991988,21.68118985972123,23.43001414647341,20
307.0,69.94050632911393,69.7298340338949,66.30046704278587,68.05559950499385,21.674234528901053,23.429366991109035,20
315.0,70.04050632911392,69.76665750287064,66.27383251438172,68.05931254006038,21.707344962810268,23.49282498848892,20
325.0,69.94050632911393,69.68240798542143,66.08956437992067,67.91918579378662,21.76322219163481,23.59284360550076,20
335.0,69.74050632911394,69.49759664791787,65.83333747372245,67.68892040770166,21.808676240216215,23.664259174195422,20
345.0,69.54050632911392,69.34569421544899,65.62901300385046,67.49692990366523,21.848764311783754,23.716681211598527,20
355.0,69.44050632911393,69.24323871676529,65.51482409483283,67.39770088652921,21.845537830236083,23.72841462193246,20
365.0,69.34050632911394,69.20235815388304,65.51643163065623,67.43150947846487,21.770848675418165,23.68592652322681,20
375.0,69.34050632911394,69.19575707977424,65.51749012658793,67.4457727362165,21.749984343557742,23.67826695318631,20
387.0,69.34050632911394,69.1580288284067,65.47035785957783,67.40534491387825,21.752683914528447,23.68767096882887,20
400.0,69.24050632911393,69.12332599707253,65.364459893707,67.3350426383441,21.78828335872842,23.758866103365534,20
412.0,69.34050632911394,69.13385019505097,65.26236272796845,67.27841079702974,21.855439398021232,23.871487467082517,20
425.0,69.44050632911393,69.20171322751492,65.23902202667458,67.30787124604257,21.89384198147235,23.96269120084034,20
437.0,69.64050632911393,69.37236685129803,65.2613210798483,67.40119691920918,21.97116993208884,24.111045771449724,20
450.0,69.94050632911393,69.5987275064392,65.28825080727017,67.51193535267333,22.08679215376587,24.31047669916903,20
462.0,70.24050632911393,69.84872093376607,65.28729835204042,67.612065847087,22.23665508667908,24.56142258172565,20
475.0,70.44050632911393,70.06045257868844,65.33930799807548,67.72079330711074,22.339659271577702,24.721144580612957,20
487.0,70.54050632911392,70.16332598751714,65.43518254785677,67.81251815064564,22.350807836871496,24.72814343966037,20
500.0,70.64050632911393,70.22968826671624,65.59244331912599,67.91144779906753,22.318240467648707,24.637244947590247,20
515.0,70.64050632911393,70.28454391185363,65.82348969552834,68.03110512848546,22.253438783368168,24.461054216325294,20
530.0,70.54050632911392,70.29466909184829,66.08309391146719,68.16760212542653,22.127066966421765,24.211575180381104,20
545.0,70.34050632911394,70.30225212192562,66.24499529372463,68.27540347709112,22.0268486448345,24.05725682820099,20
560.0,70.34050632911394,70.2361439361172,66.24470453425582,68.27365272330637,21.962491212810832,23.991439401861385,20
580.0,70.34050632911394,70.17499525566843,66.1204540672642,68.20033187576428,21.974663379904158,24.05454118840423,20
600.0,70.34050632911394,70.03641277174533,65.72510030667542,67.92194313640906,22.114469635336278,24.311312465069918,20
615.0,70.14050632911392,69.67958124646965,65.08375317329607,67.40949961068296,22.270081635786696,24.59582807317358,20
630.0,69.84050632911394,69.30067315311673,64.50822745468281,66.93932581619687,22.361347336919863,24.792445698433923,20
650.0,69.74050632911394,69.16331207137159,64.3286079573821,66.77090142537874,22.392410645992854,24.83470411398949,20
670.0,69.44050632911393,68.99153510562695,64.22119885183334,66.60676678442616,22.384768321200795,24.770336253793616,20
690.0,68.54050632911392,68.16415988756805,63.683363314656646,65.96040959394554,22.203750293622505,24.4807965729114,20
710.0,67.74050632911393,67.32892240624182,63.206276255997594,65.41477808492218,21.91414432131964,24.122646150244222,20
730.0,67.74050632911393,67.35983025409207,63.55354273927455,65.68815737108159,21.671672883010487,23.806287514817527,20
750.0,67.64050632911392,67.41330978497164,63.81318183802742,65.98943884348041,21.42387094149123,23.600127946944227,20
775.0,67.14050632911393,67.0128890735447,63.13475529523467,65.63987029609723,21.37301877744747,23.87813377831003,20
800.0,67.64050632911392,67.17246668374264,62.417812624661906,65.3664272073026,21.806039476440034,24.754654059080735,20
825.0,68.44050632911393,67.80719871097328,62.30059463222045,65.50162446709943,22.30557424387385,25.50660407875283,20
850.0,68.74050632911391,68.21626025106858,62.320409642851644,65.56579026159066,22.650469989477912,25.895850608216932,20
875.0,68.94050632911393,68.50095184624598,62.63493109175711,65.90655370392821,22.59439814231777,25.866020754488872,20
900.0,69.24050632911393,68.82228190366007,63.241550901470475,66.51881798184456,22.303463921815506,25.580731002189594,20
925.0,69.14050632911393,68.83087278333275,63.55137487315494,66.74727026269198,22.083602520640767,25.27949791017781,20
950.0,69.14050632911393,68.82068625728617,63.49446718696959,66.73581738507394,22.084868872212226,25.326219070316583,20
975.0,69.14050632911393,68.56171006120934,62.96823618927374,66.43395158790871,22.12775847330063,25.5934738719356,20
1000.0,68.94050632911393,68.29891533678904,62.472182497468324,65.9089247766959,22.38999056009314,25.826732839320712,20
1030.0,69.14050632911393,68.5917724147165,62.565059207416255,66.0078531783308,22.583919236385697,26.026713207300247,20
1060.0,68.54050632911392,68.04967453659695,61.68403924962607,65.33478829224757,22.714886244349387,26.365635286970885,20
1090.0,68.54050632911392,67.96593712914996,61.320764127521315,64.9998060181086,22.966131111041364,26.64517300162865,20
1120.0,69.04050632911392,68.40921509146364,61.50754879203687,65.30573116957129,23.103483921892348,26.901666299426765,20
1150.0,68.84050632911394,68.23864594834687,61.17078386140531,65.01023307557907,23.228412872767805,27.06786208694156,20
1180.0,68.94050632911393,68.39004996684596,61.196494677330406,65.06758425243996,23.322465714406007,27.193555289515558,20
1220.0,68.64050632911395,68.01247249119345,60.85935474185452,64.56266993052783,23.449802560665617,27.153117749338932,20
1250.0,68.64050632911395,67.94231829236911,60.50857433850584,64.3083580936928,23.633960198676306,27.43374395386327,20
1280.0,68.54050632911392,67.70630449414475,59.92550668351224,63.806137246747696,23.90016724739705,27.780797810632507,20
1320.0,69.04050632911392,68.20813715141267,60.64103691336652,64.28770009272702,23.92043705868565,27.56710023804615,20
1360.0,68.64050632911395,67.97905499759705,61.049839993212814,64.33742709335442,23.641627904242625,26.929215004384233,20
1400.0,68.54050632911392,67.9675579525962,60.98536801140713,64.39604932486174,23.57150862773446,26.982189941189063,20
1450.0,68.34050632911394,67.86336956203886,60.89331246787229,64.16015354057907,23.70321602145978,26.970057094166563,20
1500.0,67.74050632911393,67.2523104422844,60.31073348622783,63.78517459692978,23.46713584535462,26.941576956056565,20
1550.0,67.54050632911392,66.69196655123216,59.08333215959837,62.93829481199069,23.75367173924147,27.608634391633785,20
1600.0,67.74050632911393,66.76870333612005,59.02656099587142,62.80113529165712,23.967568044462936,27.742142340248634,20
1650.0,67.24050632911394,66.28987382563315,58.70499847825437,62.35783305624952,23.932040769383633,27.584875347378784,20
1700.0,66.94050632911393,65.98669927634239,58.5707800890155,62.20073130518355,23.78596797115884,27.415919187326892,20
1750.0,66.94050632911393,66.22473772987381,58.585222488750276,62.17069607534128,24.054041654532526,27.639515241123533,20
1800.0,66.84050632911394,66.1207365696925,58.39486367899771,61.82360176878103,24.297134800911465,27.725872890694788,20
1850.0,66.54050632911392,65.9247118099608,58.442211181275866,61.54649960304411,24.378212206916686,27.48250062868493,20
1900.0,66.14050632911395,65.52830252901805,58.336247715764245,61.191375690977765,24.336926838040284,27.192054813253804,20
1950.0,66.14050632911395,65.65103617767465,58.73514917095956,61.31117186941498,24.339864308259678,26.915887006715096,20
2000.0,66.34050632911394,65.98150431387035,59.520798742182464,61.881252991049394,24.100251322820952,26.460705571687882,20
2060.0,66.14050632911395,66.27379801649383,59.77607731166027,62.439481876755266,23.83431613973856,26.497720704833554,20
2120.0,65.94050632911393,66.54996246058556,60.24800808581125,63.00894083625023,23.54102162433533,26.30195437477431,20
2180.0,65.44050632911393,66.6060166134552,60.6997244004377,63.37006325206427,23.235953361390926,25.906292213017494,20
2240.0,65.54050632911392,66.12411990180348,60.87555128334078,63.85066351100559,22.27345639079789,25.2485686184627,20
2300.0,65.04050632911392,65.55565668823274,60.49105253511431,63.67384914483668,21.881807543396064,25.064604153118438,20
2360.0,64.64050632911393,64.82422442548508,59.782242349547886,63.38590746387595,21.438316961609132,25.0419820759372,20
2400.0,64.34050632911394,64.27290332360323,58.60393019728558,62.407023499144174,21.865879824459057,25.668973126317653,20
2500.0,64.44050632911393,63.88923661264354,57.596066983526114,61.47232623860896,22.416910374034586,26.29316962911743,20
2580.0,64.54050632911392,63.74090335384585,57.21573617147638,61.00565721299394,22.735246140851913,26.525167182369472,20
2650.0,64.94050632911393,63.94204648219821,56.868530096291664,60.852339461430546,23.089707020767662,27.073516385906544,20
2720.0,65.84050632911394,64.84853075339709,57.13660258138019,61.36313257523665,23.485398178160438,27.711928172016897,20
