Freq "Sound Power"
22.4 23.844756298567432
23.0 24.58848658300937
23.6 25.331207021317255
24.0 26.060900248714432
25.0 26.821297152262304
25.8 27.58433490856558
26.5 28.340014485871677
27.2 29.110575090939932
28.0 29.894532136721523
29.0 30.67714071879763
30.0 31.453382108673225
30.7 32.23544008911193
31.5 33.02879031449942
32.5 33.81570626473837
33.5 34.59356188186612
34.5 35.36828962645262
35.5 36.152132207559475
36.5 36.949640706178144
37.5 37.73435276016343
38.7 38.547056193229224
40.0 39.34337257300251
41.2 40.14662670471736
42.5 40.98609504217245
43.7 41.83196027049229
45.0 42.67174739293762
46.2 43.55825082190495
47.5 44.44723915792207
48.7 45.34329598277158
50.0 46.271432357681135
51.5 47.20410759521437
53.0 48.13227079723006
54.5 49.058438300282305
56.0 49.98813100763242
58.0 50.91010135822155
60.0 51.8159174738752
61.5 52.71661290266135
63.0 53.60620657778222
65.0 54.49203247274416
67.0 55.376723929630174
69.0 56.280279192285846
71.0 57.173069660220406
73.0 58.08374099036749
75.0 58.99886569947196
77.5 59.87632087626821
80.0 60.736371044707056
82.5 61.558324472095336
85.0 62.34280466355628
87.5 63.06089038317235
90.0 63.73004991671975
92.5 64.34298786219577
95.0 64.92081473916
97.5 65.46987036164384
100.0 66.00316812958735
103.0 66.49723886900605
106.0 66.9326615525978
109.0 67.2586802190752
112.0 67.46574796925205
115.0 67.51363716210055
118.0 67.34936485475393
122.0 67.02842107913722
125.0 66.60592422029691
128.0 66.1737395935055
132.0 65.88246183770492
136.0 65.80089420083442
140.0 65.9291288440232
145.0 66.12413245755201
150.0 66.28725478718108
155.0 66.31826412273736
160.0 66.23175580059647
165.0 66.06171453272243
170.0 65.7987736014824
175.0 65.52238882836893
180.0 65.22895656429269
185.0 64.99151297620824
190.0 64.85937620003759
195.0 64.8747948004951
200.0 64.99900744230668
206.0 65.25228609091496
212.0 65.52867525118415
218.0 65.80770395699123
224.0 65.98489685732294
230.0 66.07638725130593
236.0 66.05660207760832
240.0 65.92790667901288
250.0 65.70905515232698
258.0 65.42648032539515
265.0 65.1697061572057
272.0 65.00088965087897
280.0 64.99944813151961
290.0 65.11162893269527
300.0 65.25792483405378
307.0 65.35996071367192
315.0 65.3333261852678
325.0 65.14905805080673
335.0 64.89283114460851
345.0 64.68850667473654
355.0 64.57431776571892
365.0 64.5759253015423
375.0 64.57698379747401
387.0 64.52985153046389
400.0 64.42395356459306
412.0 64.32185639885451
425.0 64.29851569756065
437.0 64.32081475073436
450.0 64.34774447815624
462.0 64.34679202292648
475.0 64.39880166896155
487.0 64.49467621874285
500.0 64.65193699001208
515.0 64.8829833664144
530.0 65.14258758235327
545.0 65.30448896461071
560.0 65.30419820514187
580.0 65.17994773815028
600.0 64.7845939775615
615.0 64.14324684418216
630.0 63.56772112556888
650.0 63.38810162826816
670.0 63.280692522719406
690.0 62.742856985542716
710.0 62.26576992688368
730.0 62.61303641016062
750.0 62.87267550891349
775.0 62.19424896612074
800.0 61.47730629554799
825.0 61.36008830310652
850.0 61.379903313737714
875.0 61.694424762643195
900.0 62.30104457235653
925.0 62.610868544041026
950.0 62.55396085785567
975.0 62.02772986015982
1000.0 61.53167616835438
1030.0 61.624552878302325
1060.0 60.74353292051212
1090.0 60.3802577984074
1120.0 60.56704246292294
1150.0 60.23027753229138
1180.0 60.255988348216476
1220.0 59.9188484127406
1250.0 59.568068009391894
1280.0 58.98500035439832
1320.0 59.700530584252604
1360.0 60.1093336640989
1400.0 60.0448616822932
1450.0 59.952806138758376
1500.0 59.370227157113916
1550.0 58.142825830484426
1600.0 58.08605466675748
1650.0 57.76449214914044
1700.0 57.63027375990157
1750.0 57.64471615963633
1800.0 57.454357349883765
1850.0 57.50170485216192
1900.0 57.395741386650315
1950.0 57.794642841845615
2000.0 58.58029241306852
2060.0 58.83557098254633
2120.0 59.30750175669732
2180.0 59.75921807132379
2240.0 59.93504495422687
2300.0 59.55054620600038
2360.0 58.84173602043394
2400.0 57.663423868171634
2500.0 56.655560654412184
2580.0 56.275229842362464
2650.0 55.928023767177734
2720.0 56.19609625226626
2800.0 56.060930266958565
2900.0 56.15774939102437
3000.0 56.27395381257551
3070.0 56.59722325025476
3150.0 57.38873152925328
3250.0 57.74286634414507
3350.0 58.14521859460382
3450.0 58.8761653779747
3550.0 59.803656127173824
3650.0 60.258766420374926
3750.0 59.739241176931074
3870.0 59.1781305199259
4000.0 58.60315353597633
4120.0 58.4938888574339
4250.0 58.26172331246373
4370.0 58.44806768757341
4500.0 58.04119309402867
4620.0 57.25459578689018
4750.0 56.90421381412281
4870.0 57.389290189792234
5000.0 59.21760301021524
5150.0 60.36423776141831
5300.0 61.09067079263876
5450.0 61.30068956211933
5600.0 60.220918092608954
5800.0 59.697551606194466
6000.0 58.93196957185705
6150.0 57.642703399945844
6300.0 56.879711602112536
6500.0 57.4594147143863
6700.0 57.53584691256758
6900.0 57.04818332691869
7100.0 56.30926708280852
7300.0 56.8128698900037
7500.0 57.404327653696456
7750.0 56.79353922749455
8000.0 56.3225561036128
8250.0 56.46447399439103
8500.0 56.59296866349207
8750.0 56.62556517018038
9000.0 57.8421125252962
9250.0 57.86939222549695
9500.0 57.19207537609728
9750.0 57.85629609126934
10000.0 57.73697935890152
10300.0 57.014843138379234
10600.0 56.925801191529956
10900.0 56.147461630160194
11200.0 56.169274686348174
11500.0 55.289847479698125
11800.0 51.24355666663968
12200.0 54.3426582865427
12500.0 56.75881786657774
12800.0 56.311407513391714
13200.0 54.198276167438266
13600.0 55.2282500594236
14000.0 55.83606318989436
14500.0 57.28624664028109
15000.0 51.53043881456989
15500.0 51.48629338893889
16000.0 55.18166507731006
16500.0 49.40723667613028
17000.0 51.88767408236467
17500.0 54.75178735394175
18000.0 51.68901719480512
18500.0 52.88699528680701
19000.0 52.85144263215025
19500.0 50.89479721934465
