Freq "Floor Bounce"
20.5078 67.14820882306218
21.2402 68.63523830387653
21.9727 69.60728951667043
22.7051 70.61722700251595
23.4375 71.64531533673524
24.1699 73.16232377152903
25.6348 74.84496070541344
26.3672 75.72992858701772
27.0996 76.44653923837444
27.832 77.67861439104291
29.2969 79.05207686631722
30.0293 79.73912260197945
31.4941 80.90463114897979
32.2266 81.63921881274617
33.6914 82.53550077240278
34.4238 82.96887854932233
35.8887 83.6091625227585
37.3535 84.4378298153713
38.8184 85.08813372741348
39.5508 85.37486348428257
41.0156 85.87296736751968
42.4805 86.4072960211093
43.9453 86.75276966072572
45.4102 87.09716217778647
47.6074 87.62792682270664
49.0723 87.98591615474774
50.5371 88.28605867555704
52.7344 88.69516919507339
54.1992 89.01275172831889
56.3965 89.41817794646914
58.5938 89.87639079851998
60.0586 90.14478132942952
62.2559 90.53748477038998
64.4531 90.81574129038735
66.6504 91.17153075836431
69.5801 91.49650731626004
71.7773 91.77680577961544
73.9746 92.10206093060988
76.9043 92.41154698908107
79.834 92.76912016390018
82.7637 93.05767922610183
85.6934 93.22794044388696
88.623 93.61882084165823
91.5527 93.92566909428866
94.4824 93.88374113035151
98.1445 93.80998650001725
101.807 93.98345238939382
105.469 94.37980320397749
109.131 94.42399550377769
112.793 93.86598627320488
116.455 93.84546725515021
120.85 94.27415717115713
125.244 94.67329963394837
129.639 94.31937924697498
134.033 94.24590717854477
138.428 94.0018609794029
143.555 94.05543316725559
148.682 94.39183719319347
153.809 94.19947442158575
159.668 93.7792681819271
164.795 93.81566552598888
170.654 94.01014493394261
176.514 93.96114254168565
183.105 93.78195986217104
189.697 93.54183934135135
196.289 93.50584813445198
202.881 93.88618152721158
210.205 93.41578238301585
217.529 93.26981076837735
225.586 92.47479467970409
232.91 92.85344085166123
241.699 92.75944501997672
249.756 93.69935518202095
258.545 94.09280535570875
268.066 93.6567775252113
277.588 92.50567695859449
287.109 92.43043709128746
297.363 90.87843120352079
307.617 91.40244984645267
318.604 90.29008726213766
329.59 90.80058746114999
341.309 88.87100032309326
353.76 89.11961389871881
366.211 88.15622237226721
378.662 88.6258726697472
392.578 88.0705969721058
405.762 87.19173401316185
420.41 87.33150017836563
435.059 87.71302702350926
450.439 87.17392175347474
466.553 87.60131291713266
482.666 86.92160124459497
500.244 88.0973995344647
517.822 88.32399934596486
536.133 87.04513842956958
554.443 86.36794287099949
574.219 88.19106706534824
594.727 88.47685194473121
615.234 88.80655254682155
637.207 88.46592299907324
659.912 90.27520580936151
683.35 89.19101729134935
706.787 88.69637248860303
731.689 88.82050223186074
758.057 88.69737122018255
784.424 87.21906457801981
812.256 87.18705698340204
840.82 87.61251665457343
870.85 86.77615225550419
901.611 86.99563662392647
933.105 85.43730457565006
966.064 85.27074963838113
999.756 85.68311934324804
1034.91 85.77178762103073
1071.53 87.69347784632869
1109.62 87.52850438906658
1148.44 88.57774434097699
1189.45 88.81269608702495
1231.2 88.23447070661321
1274.41 89.73516413776149
1319.82 89.86148451833333
1365.97 90.86856571225802
1414.31 89.65649673200096
1464.11 90.82933282027096
1515.38 91.12613245290814
1568.85 90.91016854180752
1624.51 89.97326467237333
1681.64 90.04628069690922
1740.97 90.03059068879672
1802.49 89.92718533912925
1866.21 90.08069061973819
1932.13 91.74306755614289
2000.24 92.44137747015183
2070.56 92.64838022701124
2143.8 92.15912912919049
2219.24 90.97257922393793
2297.61 90.46899920137581
2378.17 89.06412988692782
2462.4 88.0027086029833
2548.83 86.6114627073106
2638.92 84.66764343510607
2731.93 83.63825814669558
2828.61 82.90657900447846
2928.22 82.9686069163351
3031.49 84.14252899214749
3138.43 85.17487861253322
3249.02 86.15871812083189
3363.28 87.00314034648615
3481.93 87.64184689933546
3604.98 88.76124766162317
3732.42 89.25272375580687
3863.53 89.55036286047977
3999.76 90.0759668396296
4141.11 90.44311873490946
4286.87 90.24949745523489
4438.48 90.79125256158893
4594.48 89.85985132870692
4757.08 90.69170920714798
4924.8 90.6854668353159
5098.39 90.7341030258158
5277.83 90.64917171883482
5463.87 90.44243295126196
5656.49 90.2010018674707
5856.45 89.85638235997851
6062.99 89.29518829323786
6276.86 89.36187548944875
6498.05 89.36421495988432
6727.29 88.99174128123295
6964.6 88.69308335918763
7209.96 88.90119157160278
7464.11 88.50145059927875
7727.78 88.11505744886894
8000.24 87.93285497925815
8282.23 87.54248856453638
8574.46 87.63714408049762
8876.22 87.6394229104158
9189.7 87.4953916658339
9513.43 87.50923659145188
9848.88 87.43463216539456
10196.8 87.47147437142172
10556.4 87.3588996597954
10928.5 87.51939613915887
11313.7 87.62788892144413
11712.9 87.3176447672745
12126.0 87.07840650348889
12553.7 86.76560246454918
12996.1 86.53690285569877
13454.6 86.90930843822944
13928.5 87.21661953384056
14419.9 87.14521465448169
14928.2 86.81048739017324
15454.8 86.13385541115689
15999.8 85.92032516125334
16564.5 84.27659586005478
17148.2 81.83529893202217
17753.2 81.35355846549228
18379.4 82.30608722042322
19027.6 75.35075043439858
19698.5 81.00025305661906
19999.5 82.13532740220064
