Freq,On Axis,Listening Window,Sound Power,Early Reflections,Early Reflections DI,Sound Power DI,DI offset
20.5078,50.482175757575746,50.234370024938286,53.238257708696764,51.83053056601405,38.40383945892424,36.99611231624152,40
21.9727,52.184175757575744,51.95061442137428,55.3296269056426,53.80926829009486,38.14134613127942,36.620987515731684,40
23.4375,54.280975757575746,54.15112424419236,57.78878478251802,56.23007684836939,37.92104739582297,36.36233946167434,40
24.9023,56.39977575757574,56.29172312996367,59.113595695732116,57.81826769220039,38.47345543776328,37.178127434231556,40
26.3672,58.01647575757575,57.9592747723094,60.855453234690344,59.560615150755254,38.398659621554145,37.103821537619055,40
27.832,60.32137575757575,60.28446271105716,62.52976031748446,61.483541784711576,38.80092092634558,37.7547023935727,40
29.2969,62.09807575757576,62.075532962077986,64.12373185038666,63.15808909409428,38.91744386798371,37.951801111691324,40
30.7617,63.698175757575754,63.6809236348504,65.52883743695251,64.64480946049628,39.036114174354125,38.15208619789789,40
32.2266,65.19457575757575,65.1907176474395,66.91387382428451,66.09027888849313,39.10043875894637,38.27684382315499,40
33.6914,66.84467575757576,66.84376963470399,68.33583444468242,67.61158371159895,39.232185923105035,38.50793519002157,40
35.1562,68.25977575757575,68.26677693541555,69.67595355902347,68.99135574418553,39.27542119123002,38.59082337639208,40
36.6211,69.46387575757575,69.47311780819469,70.76627694496196,70.13376725211828,39.33935055607641,38.70684086323273,40
38.0859,70.74357575757575,70.75572143192281,71.94695344745563,71.3609134543663,39.39480797755651,38.80876798446718,40
39.5508,71.84647575757575,71.86409130964265,73.038864515968,72.46300214459104,39.4010891650516,38.825226793674645,40
41.0156,73.26437575757575,73.28145186927897,74.28713923454693,73.78989902348219,39.491552845796775,38.99431263473204,40
42.4805,74.08027575757576,74.10007339840591,75.05270576812855,74.5814175263925,39.51865587201341,39.047367630277364,40
43.9453,75.02377575757573,75.04362437636705,75.94668790592644,75.49713571354928,39.546488662817765,39.09693647044061,40
45.4102,75.85567575757575,75.8767917461435,76.73857809936185,76.30786724169768,39.56892450444582,39.13821364678165,40
46.875,76.57737575757575,76.59929993907421,77.41152693862381,77.00465868487882,39.594641254195395,39.187773000450406,40
48.3398,77.22737575757576,77.24980971592738,78.01041544810134,77.6280352889954,39.62177442693198,39.23939426782604,40
51.2695,78.24297575757575,78.26649851278134,78.9493889659009,78.60406513015101,39.662433382630326,39.317109546880445,40
52.7344,78.63087575757575,78.6553566520114,79.31717122941299,78.98259815936582,39.672758492645585,39.338185422598414,40
54.1992,79.02187575757576,79.04652812104864,79.670997814288,79.35537635911894,39.6911517619297,39.37553030676064,40
55.6641,79.29387575757575,79.31878030103734,79.91322973898308,79.61238278603838,39.706397514998955,39.40555056205426,40
58.5938,79.77837575757574,79.80246159759133,80.32030844899262,80.05530534568649,39.74715625190484,39.48215314859871,40
60.0586,79.88407575757573,79.90839710967394,80.40818628661485,80.15189740921689,39.756499700457056,39.50021082305909,40
62.9883,80.41047575757575,80.43337431845416,80.86138536970229,80.63944283661462,39.793931481839536,39.571988948751866,40
64.4531,80.62997575757574,80.65106412623783,81.02719354677156,80.82976026009982,39.82130386613801,39.62387057946627,40
67.3828,80.87857575757575,80.89718976443105,81.20473003850357,81.04029364250532,39.85689612192573,39.69245972592748,40
68.8477,80.88137575757575,80.90094581092613,81.21042185121827,81.04587896043437,39.85506685049177,39.69052395970786,40
71.7773,80.99487575757574,81.01511939682247,81.31835948994349,81.15627358321767,39.8588458136048,39.69675990687898,40
74.707,81.42987575757577,81.45113773172989,81.74461898237382,81.58947823169326,39.86165950003662,39.706518749356064,40
77.6367,81.67857575757576,81.6983259258241,81.93473106416356,81.80762926030171,39.890696665522384,39.763594861660536,40
79.1016,81.71387575757574,81.73253423921551,81.9385690232383,81.82621788669381,39.9063163525217,39.79396521597721,40
82.0312,81.95607575757573,81.97102121474907,82.10265404289999,82.02477527011412,39.94624594463495,39.86836717184909,40
84.9609,82.16837575757575,82.18433796483941,82.32271739374669,82.24102297975593,39.94331498508349,39.86162057109273,40
87.8906,81.80967575757573,81.83749059059163,82.21471774506564,82.0194300708718,39.81806051971982,39.622772845525986,40
90.8203,82.18117575757574,82.1999463982266,82.38478022100564,82.28414843492543,39.91579796330117,39.81516617722096,40
95.2148,82.51137575757575,82.52072757627167,82.54189326795333,82.51871994330985,40.00200763296182,39.97883430831834,40
98.1445,82.67497575757575,82.67936106777334,82.63612709463051,82.64202129393767,40.03733977383567,40.04323397314283,40
101.074,82.63937575757575,82.65234457087026,82.71994015988018,82.67216501202006,39.980179558850196,39.932404410990074,40
105.469,82.71307575757575,82.73841534471771,82.98220582273693,82.85382690152939,39.88458844318832,39.75620952198078,40
108.398,83.02497575757575,83.02802509491707,83.00942638044816,83.00500081188248,40.02302428303459,40.01859871446891,40
112.793,83.04727575757575,83.05326734658323,83.02699427466082,83.02520924116622,40.028058105417,40.026273071922404,40
117.188,83.13897575757575,83.13808253067272,83.0408838887425,83.07005064562645,40.06803188504627,40.09719864193022,40
120.117,83.39347575757576,83.38468301242206,83.10227090612395,83.22509145148219,40.15959156093987,40.28241210629811,40
124.512,83.38197575757574,83.37151294966758,83.03435279757083,83.18234799668281,40.18916495298477,40.33716015209674,40
128.906,83.23667575757575,83.23518573043891,82.95683209260993,83.07830057006959,40.15688516036933,40.278353637828985,40
133.301,83.13597575757575,83.1347724787667,82.95750766908436,83.0252443548043,40.109528123962406,40.17726480968234,40
139.16,83.21827575757575,83.21365308448397,83.00248480705126,83.0848940227208,40.12875906176316,40.211168277432705,40
143.555,83.25487575757573,83.2409207282753,82.93801872551812,83.06343692715076,40.17748380112454,40.30290200275718,40
147.949,83.33017575757574,83.3078551232417,82.83406930081205,83.04414301552977,40.263712107711925,40.47378582242965,40
153.809,82.92837575757575,82.91949587730764,82.66108620635968,82.74866403329932,40.17083184400832,40.258409670947955,40
159.668,82.91517575757575,82.90956179395656,82.72372127713926,82.77780532298223,40.131756470974324,40.185840516817294,40
165.527,83.00447575757575,82.99141736937678,82.75622305729134,82.83721938580665,40.15419798357013,40.23519431208544,40
171.387,82.91527575757576,82.89554880060412,82.62774108321547,82.72147576860198,40.17407303200214,40.26780771738865,40
177.246,83.02097575757575,82.98941012797106,82.6087895872692,82.7556536122484,40.23375651572266,40.380620540701855,40
183.105,83.11087575757576,83.07706133686104,82.41481321550465,82.72473884539616,40.352322491464875,40.662248121356384,40
188.965,82.74667575757574,82.72067955467784,82.26212806571992,82.44664214420457,40.27403741047327,40.45855148895792,40
196.289,82.74637575757575,82.70446792906777,82.2222173792053,82.41206252567265,40.29240540339512,40.48225054986247,40
203.613,82.96417575757575,82.9090146495761,82.14187990378888,82.48657813066019,40.4224365189159,40.76713474578722,40
210.938,82.71187575757575,82.66856821643346,81.97137559564344,82.27326501153462,40.39530320489884,40.69719262079002,40
218.262,82.34647575757573,82.31026913093062,81.82853378657889,82.01210597934487,40.298163151585754,40.48173534435173,40
225.586,82.62537575757575,82.56700534821192,81.8293381878604,82.1373743683241,40.42963097988782,40.73766716035152,40
232.91,82.40567575757575,82.3303746528524,81.53922349726784,81.85736877949206,40.473005873360336,40.79115115558456,40
241.699,82.36327575757575,82.27588938696874,81.15541776412599,81.66596526724406,40.60992411972468,41.12047162284276,40
250.488,82.36697575757574,82.27459631016056,81.04845160505535,81.5874222815473,40.687174028613256,41.22614470510521,40
259.277,82.47307575757576,82.37376956361338,81.11132980076724,81.6781113585816,40.695658205031776,41.26243976284614,40
268.066,82.35847575757575,82.25787410890915,80.89984464627811,81.50455341431572,40.75332069459343,41.35802946263104,40
276.855,82.18877575757575,82.13258273087988,80.87719939753697,81.47622284104612,40.65635988983375,41.255383333342905,40
287.109,82.27447575757576,82.19105263959248,80.8382785442887,81.47856019298807,40.712492446604415,41.352774095303786,40
297.363,82.71427575757575,82.55620714198203,80.69259219193668,81.5444351991592,41.01177194282283,41.863614950045346,40
307.617,82.70377575757574,82.58237462527792,80.7277992690161,81.65741577587318,40.924958849404746,41.85457535626182,40
319.336,82.26017575757575,82.1268670965867,80.40070743705284,81.2680059347553,40.8588611618314,41.72615965953385,40
329.59,81.98917575757575,81.92778622314252,80.21744122338183,81.08939989472057,40.83838632842195,41.71034499976069,40
341.309,82.25417575757575,82.12074840607757,80.22418521802331,81.1185109529383,41.00223745313927,41.89656318805426,40
353.027,82.27267575757575,82.12498213116466,80.04495797859595,81.05519967774823,41.06978245341642,42.08002415256871,40
366.211,82.17687575757576,82.04397512061759,80.07533727678734,81.02506050167867,41.01891461893892,41.96863784383025,40
379.395,82.18797575757576,82.09603170442705,80.15369448210679,81.15937898244292,40.93665272198413,41.94233722232026,40
392.578,81.81697575757575,81.69390317536406,79.78532350547646,80.749522471825,40.94438070353905,41.9085796698876,40
405.762,81.32927575757576,81.15620481661016,79.610894202404,80.23422817374693,40.92197664286323,41.54531061420616,40
420.41,82.21577575757574,81.95733145267035,80.02961973264098,80.69572264024113,41.261608812429216,41.927711720029365,40
435.059,84.05207575757576,83.79340719755197,80.83196278806975,82.19781355305878,41.59559364449319,42.961444409482226,40
451.172,83.98697575757575,83.76162007732081,80.35992012317706,82.18901325433762,41.57260682298319,43.40169995414375,40
465.82,83.78407575757574,83.65388790427305,80.46921719115348,82.17306221598571,41.48082568828734,43.18467071311957,40
483.398,83.48757575757575,83.37460821394568,80.31960716063382,81.96349921558102,41.411108998364654,43.055001053311855,40
499.512,83.86627575757576,83.6880625021986,80.5436736367778,82.21033569610134,41.477726806097266,43.14438886542081,40
517.09,83.23107575757575,83.13052949072775,80.22761575961118,81.77570399151334,41.354825499214414,42.90291373111657,40
536.133,83.64847575757575,83.3960338198844,80.02582146278006,81.69760597304688,41.69842784683752,43.370212357104336,40
555.176,83.35147575757576,83.3821541452621,80.06368966366297,81.75321763834019,41.62893650692192,43.318464481599136,40
574.219,83.44327575757575,83.27628765565008,79.89785160389985,81.70915823116297,41.567129424487106,43.37843605175023,40
594.727,83.00297575757575,82.88314486986799,79.69701736858406,81.4308997673066,41.45224510256139,43.186127501283934,40
615.234,82.61337575757575,82.50722328997087,79.32141438231517,80.96921259136285,41.53801069860802,43.1858089076557,40
637.207,82.26137575757575,82.16230619665119,79.12471086901006,80.7914928018288,41.37081339482239,43.03759532764113,40
659.18,82.12087575757575,81.91968690243836,78.81073161308713,80.45574430832615,41.46394259411221,43.10895528935123,40
682.617,81.83047575757575,81.7861137035501,78.73432457031565,80.25007245762306,41.53604124592704,43.05178913323445,40
707.52,80.89667575757575,80.82797459714926,78.83689094371339,80.10236633284252,40.72560826430674,41.99108365343588,40
732.422,81.12617575757575,80.92666865703472,78.67080668293637,80.10225120343007,40.82441745360465,42.25586197409835,40
757.324,82.30167575757575,81.95023580028483,79.21135769586556,80.93797421243904,41.012261587845785,42.73887810441927,40
785.156,83.30127575757577,82.85111227134063,79.99533964579925,81.84240429142459,41.00870797991604,42.85577262554138,40
811.523,84.31487575757576,83.75777156664236,80.46700264099195,82.37486022028419,41.38291134635817,43.29076892565041,40
840.82,85.00647575757576,84.63013772745263,80.48461355163133,82.7306012871216,41.89953644033103,44.14552417582131,40
870.117,85.85967575757574,85.16769357525696,80.53147291360384,82.80847379711025,42.35921977814671,44.63622066165313,40
900.879,85.90957575757575,85.51414642734814,80.64220817794059,83.21402085571299,42.30012557163515,44.87193824940755,40
933.105,86.32677575757575,85.70217232067137,80.41893159715492,83.02505391571866,42.67711840495271,45.28324072351644,40
965.332,86.08657575757574,85.63483223154071,80.42902411313914,83.0084865316182,42.62634569992251,45.20580811840158,40
1000.49,85.94677575757576,85.46907712671445,80.08072278453605,82.76263167811133,42.70644544860312,45.3883543421784,40
1035.64,85.52327575757575,85.21248890838773,80.06550936141537,82.64596598277403,42.5665229256137,45.14697954697236,40
1072.27,85.18467575757575,84.86629973550157,79.69287728570394,82.20012376198733,42.66617597351424,45.17342244979763,40
1108.89,85.17427575757576,84.6322859936301,79.98229217958207,82.19676931889381,42.43551667473629,44.64999381404803,40
1148.44,84.76057575757575,84.49977434145346,79.7356284877091,82.07226604534743,42.427508296106026,44.76414585374435,40
1189.45,84.51737575757575,84.0942488177824,79.19368202128497,81.83943592747192,42.254812890310475,44.90056679649743,40
1230.47,84.76847575757576,84.35102013463307,79.17156170599108,81.7830786662384,42.56794146839468,45.17945842864199,40
1274.41,84.87387575757575,84.46388469124066,79.03134833138543,81.78494657807086,42.67893811316981,45.432536359855234,40
1319.82,85.36087575757576,85.01878898875229,79.42399199821871,82.34301527348697,42.67577371526532,45.59479699053358,40
1366.7,85.94857575757577,85.44319126717065,79.99905214581001,82.6944459431585,42.74874532401215,45.444139121360635,40
1413.57,85.97097575757574,85.41458603088722,79.80661311337954,82.8072320230057,42.607354007881526,45.60797291750768,40
1463.38,85.49907575757577,84.61563518102686,79.40781739971378,82.05593418142128,42.55970099960558,45.20781778131308,40
1516.11,83.87457575757576,83.52631089870728,78.87852643263324,81.28398119451,42.242329704197275,44.64778446607404,40
1568.85,84.47317575757575,83.36914925835337,77.91185357813845,80.97960397629994,42.38954528205343,45.457295680214926,40
1624.51,83.74347575757575,82.9526696131692,76.99349837867216,79.66219423914944,43.29047537401976,45.95917123449705,40
1681.64,83.79007575757575,82.97221553746759,77.23956267618307,79.58826796902846,43.383947568439126,45.73265286128452,40
1741.7,83.25727575757575,82.35771781257877,76.96625702833545,79.33614590307366,43.02157190950511,45.39146078424332,40
1803.22,82.08877575757575,81.48424029478515,76.59708264572203,78.99083421684858,42.49340607793657,44.88715764906313,40
1866.21,81.49807575757573,80.75548513153359,76.55349997129913,79.0232095975128,41.732275534020786,44.20198516023446,40
1932.13,81.99717575757575,80.80954075584815,76.46667563575448,78.83889513715376,41.97064561869439,44.34286512009366,40
1999.51,82.72787575757575,81.25245455463542,76.69256850892802,79.20927513402383,42.043179420611594,44.5598860457074,40
2069.82,82.56917575757575,81.5330599839928,76.42032004870983,78.9749382792761,42.5581217047167,45.112739935282974,40
2143.07,81.67427575757576,80.83515959328925,76.23629845273457,78.47857891843404,42.35658067485521,44.598861140554675,40
2219.24,79.77197575757576,79.31341223419831,75.52135080849546,77.3843598684167,41.929052365781615,43.792061425702855,40
2296.88,78.98497575757575,78.68604903347241,75.63685499045243,77.46687057462934,41.219178458843075,43.04919404301998,40
2378.91,79.32377575757575,78.93186342297479,75.97824582885175,77.6888367873068,41.24302663566799,42.95361759412303,40
2462.4,80.06777575757575,79.95805922827104,76.0287672770968,77.47573906192818,42.48232016634286,43.929291951174235,40
2548.83,79.67487575757575,79.79527323190013,75.74379820692577,76.78375457680166,43.01151865509847,44.05147502497435,40
2639.65,79.33887575757575,79.33145048085002,75.38717615541836,76.46313355132624,42.868316929523786,43.944274325431664,40
2731.93,78.98067575757575,79.39821977934736,74.86648776130983,76.79757048777937,42.60064929156799,44.53173201803753,40
2828.61,80.05457575757575,80.60249916783486,75.38637087189655,77.98854718369009,42.61395198414478,45.21612829593832,40
2928.22,81.29057575757575,81.6536136584198,76.06964401706911,78.58404566404678,43.06956799437302,45.58396964135069,40
3030.76,82.02487575757577,81.98649590035879,76.30684618464018,78.71900827751462,43.26748762284417,45.67964971571861,40
3137.7,82.02677575757575,81.96143286722744,76.31447127662369,78.8167704671126,43.14466240011484,45.64696159060375,40
3249.02,82.19147575757574,82.13933909227931,76.2239262583375,78.91305026090227,43.22628883137705,45.915412833941815,40
3363.28,82.53527575757575,82.46743762336271,76.05814771647518,78.9117817374307,43.55565588593201,46.40928990688754,40
3481.93,81.96317575757575,82.2632245847252,76.36669939280607,79.14174396828462,43.12148061644058,45.896525191919125,40
3604.98,82.45367575757575,83.11715092314496,76.98656248566346,79.81159612603692,43.305554797108044,46.13058843748151,40
3732.42,83.84987575757573,84.15854983790727,77.47403839030999,80.41469359545951,43.74385624244776,46.68451144759729,40
3864.26,83.07367575757576,83.31796344891208,76.9268779940196,79.97533980638254,43.342623642529546,46.391085454892476,40
4000.49,84.19127575757575,83.6454712570543,77.07702026820654,80.37194151983856,43.27352973721574,46.56845098884776,40
4141.11,85.30757575757575,84.44434208824309,77.68033706851618,81.07919300919225,43.36514907905084,46.76400501972691,40
4287.6,84.63017575757576,84.20199565287272,77.87619781194712,80.979737047114,43.222258605758725,46.3257978409256,40
4438.48,84.87407575757577,84.3640709786102,77.95595618557961,81.04727843487161,43.316792543738586,46.40811479303059,40
4595.21,84.07387575757575,83.47853078452559,77.55988023517519,80.52605422119906,42.95247656332653,45.9186505493504,40
4756.35,84.29767575757575,83.5882736844441,78.0244656169939,80.94496964893035,42.64330403551375,45.56380806745021,40
4924.8,84.92037575757574,84.1130993432006,78.48621496122968,81.4235304428592,42.6895689003414,45.626884381970925,40
5097.66,85.67287575757575,84.03973320830724,78.61909026353018,81.65117680436973,42.388556403937514,45.42064294477706,40
5277.83,86.93317575757575,84.78361027329805,79.23403880379448,82.37381637293964,42.40979390035841,45.549571469503576,40
5463.87,88.42897575757576,86.1144451714601,79.50803173160475,83.10308465192988,43.01136051953023,46.60641343985536,40
5657.23,87.86367575757575,85.9353891060778,79.4051238579621,82.78241529930061,43.1529738067772,46.53026524811571,40
5856.45,86.37687575757575,85.27498581898973,78.99604873715317,82.24896429791718,43.02602152107255,46.27893708183656,40
6062.99,86.10927575757576,85.3784352086688,79.00284676307598,82.4935517810108,42.88488342765801,46.375588445592825,40
6276.86,85.92827575757575,85.01776309789804,78.73183648678014,82.53098058028196,42.48678251761608,46.2859266111179,40
6498.05,85.52457575757576,84.9801446802456,78.75840158347502,82.22422194476854,42.75592273547706,46.22174309677058,40
6726.56,85.93617575757575,85.50114855569893,78.89701483150186,82.04880693331836,43.45234162238057,46.60413372419707,40
6963.87,85.02367575757575,85.4481693456991,78.63018831651824,81.88104014768868,43.56712919801042,46.81798102918086,40
7209.96,85.62297575757574,85.74500236518098,78.87818294445388,82.3171958156503,43.427806549530686,46.8668194207271,40
7464.84,85.92737575757575,85.64469885573304,78.60075188049899,82.37832939038067,43.26636946535237,47.04394697523405,40
7727.05,86.53167575757574,86.40039822845814,78.72277692005808,82.73392793191243,43.66647029654571,47.67762130840006,40
7999.51,86.29747575757575,86.20657362503833,78.33404981446334,82.08158462241266,44.12498900262567,47.87252381057499,40
