Freq "Listening Window"
20.5078 70.30351369845263
21.9727 71.92136027306367
23.4375 72.73297576527568
24.9023 73.74086084508401
26.3672 74.74446669917442
27.832 75.80516753294262
29.2969 76.34499157898956
30.7617 77.04309561325634
32.2266 77.71779934999587
33.6914 78.33387978203538
35.1562 78.93114575852333
36.6211 79.63401059818067
38.0859 80.08987855881234
39.5508 80.78045879995727
41.0156 81.36916433502009
42.4805 81.70206081956626
43.9453 81.87486955962576
45.4102 81.93049732623327
46.875 82.26985134699817
48.3398 82.62396173144688
51.2695 83.27291687777631
52.7344 83.55167248709526
54.1992 83.75748009842715
55.6641 83.72656487349077
58.5938 84.00847486250429
60.0586 84.11518742714819
62.9883 84.30259644350262
64.4531 84.31014011710184
67.3828 84.298347748534
68.8477 84.29870528496375
71.7773 84.47080320980855
74.707 84.60348351259
77.6367 84.68847819756319
79.1016 84.6638443756347
82.0312 84.65491711027404
84.9609 84.61914457906288
87.8906 84.38108150873241
90.8203 84.82165044361417
95.2148 84.18245344129048
98.1445 84.28249829722282
101.074 84.05669192920588
105.469 84.50428131774173
108.398 84.86545878694729
112.793 84.98296990818902
117.188 84.78232147857743
120.117 84.55779293701265
124.512 84.03468807282407
128.906 84.53632122891653
133.301 84.64704635710898
139.16 84.63403314007527
143.555 84.30413272428916
147.949 83.78373879801568
153.809 83.70373807199414
159.668 84.41184168346078
165.527 84.7959001394553
171.387 84.98191502314664
177.246 84.90470932042463
183.105 84.69929768518773
188.965 84.93057998038758
196.289 85.66944105119173
203.613 85.99250321461871
210.938 86.25465099058928
218.262 85.32953987687172
225.586 85.52188579055625
232.91 86.43543834512876
241.699 86.36496207886375
250.488 86.20500921648707
259.277 86.94886079044551
268.066 86.59531710992864
276.855 86.15216076305926
287.109 86.09228711648377
297.363 86.39911931919586
307.617 87.37929738296307
319.336 86.91528123843354
329.59 87.75297075643029
341.309 86.72847042726738
353.027 86.5614967043043
366.211 86.39876146524402
379.395 87.50641146084395
392.578 87.46438502896174
405.762 87.08797247020796
420.41 87.15870170011337
435.059 86.92171716594173
451.172 87.3160082626284
465.82 86.61484830055136
483.398 86.31171293335485
499.512 84.93778749361965
517.09 85.07688917481626
536.133 87.69533705672865
555.176 88.25804684132167
574.219 88.0144480861035
594.727 87.51429180715364
615.234 88.02546770020295
637.207 87.81905365580015
659.18 87.56289638401925
682.617 87.6331626253759
707.52 86.49262952409647
732.422 86.4403924405552
757.324 86.44078136210486
785.156 85.5880406779534
811.523 85.8441968906488
840.82 85.75973109137074
870.117 85.30065388179567
900.879 84.47295274694427
933.105 84.74443974462886
965.332 84.8770103177329
1000.49 84.50772707404262
1035.64 84.97846582952073
1072.27 84.79245688125467
1108.89 85.16559398660227
1148.44 85.8684854045996
1189.45 86.83076458959046
1230.47 87.52146611004979
1274.41 88.11884638484415
1319.82 88.4382703716273
1366.7 88.42392321715467
1413.57 87.65170639185375
1463.38 87.6575644629609
1516.11 86.65530954952725
1568.85 85.61884569107345
1624.51 85.21554280070414
1681.64 85.45709042490287
1741.7 85.74544167801012
1803.22 85.56614475283327
1866.21 85.16668294141637
1932.13 84.81128929923456
1999.51 84.97452303483064
2069.82 86.08764180512134
2143.07 86.8000620768966
2219.24 86.69272044765847
2296.88 85.65064571445454
2378.91 85.53659941864002
2462.4 86.99264257630952
2548.83 88.12773884982654
2639.65 87.55176582241921
2731.93 86.1254487484016
2828.61 85.45282460517556
2928.22 85.49276557474418
3030.76 85.79905544868807
3137.7 85.89009712329347
3249.02 85.16290976172144
3363.28 85.24785627149191
3481.93 85.86212357369628
3604.98 86.09589713965384
3732.42 86.82331201228097
3864.26 87.31383606176111
4000.49 86.89870101690238
4141.11 87.20779130102999
4287.6 87.28341142016058
4438.48 87.04510994681462
4595.21 86.55404083362656
4756.35 86.68204875569691
4924.8 87.16127075890502
5097.66 86.54382748542679
5277.83 86.30921279111364
5463.87 86.37826305774004
5657.23 86.09853793687259
5856.45 85.7848044264049
6062.99 85.76741649499102
6276.86 85.70679731047044
6498.05 85.50924933646797
6726.56 85.85677428015666
6963.87 85.33484776363987
7209.96 85.8575214016697
7464.84 86.11210059827978
7727.05 85.94971247753833
7999.51 86.37618001887286
8282.23 86.18284364001822
8573.73 86.55648569678583
8876.95 86.5095885942171
9188.96 86.52947510311469
9514.16 86.09844469553336
9849.61 86.25346114374373
10196.8 86.38990785604939
10555.7 86.48914896356136
10927.7 86.65265532214036
11313.0 86.91794233251191
11712.9 87.1785649031169
12126.0 87.71131707576542
12553.7 88.35919828504827
12996.1 88.54631799207267
13454.6 88.00724968422604
13929.2 87.80047828213871
14419.9 85.61435154173063
14928.2 81.73254212072493
15455.6 73.64841146960832
16000.5 76.31462556270998
16564.5 79.11499801460748
17148.9 80.958815812698
17752.4 82.03982514953744
18379.4 82.87921603723585
19026.9 82.78757887908257
19697.8 80.22882955273752
19999.5 78.42145608583887
