Freq "Front Wall Bounce"
22.4 57.87225331938845
23.0 58.70077667796954
23.6 59.52911392405062
24.0 60.32911392405063
25.0 61.100776677969534
25.8 61.87225331938845
26.5 62.62911392405063
27.2 63.429113924050625
28.0 64.20077667796954
29.0 64.92911392405063
30.0 65.72911392405064
30.7 66.47225331938844
31.5 67.22911392405064
32.5 67.92911392405063
33.5 68.72911392405064
34.5 69.42911392405063
35.5 70.20077667796954
36.5 70.92911392405063
37.5 71.67225331938846
38.7 72.42911392405063
40.0 73.17225331938845
41.2 73.90077667796953
42.5 74.62911392405063
43.7 75.37225331938845
45.0 76.12911392405063
46.2 76.82911392405063
47.5 77.57225331938845
48.7 78.30077667796954
50.0 78.97225331938844
51.5 79.62911392405063
53.0 80.30077667796954
54.5 80.92911392405063
56.0 81.52911392405063
58.0 82.02911392405062
60.0 82.52911392405063
61.5 83.02911392405065
63.0 83.47225331938846
65.0 83.87225331938845
67.0 84.22911392405064
69.0 84.50077667796953
71.0 84.7435413874481
73.0 84.92911392405063
75.0 85.10077667796953
77.5 85.12911392405063
80.0 85.12911392405063
82.5 85.10077667796953
85.0 85.00077667796954
87.5 84.87225331938845
90.0 84.70077667796954
92.5 84.50077667796953
95.0 84.30077667796954
97.5 84.04419706648947
100.0 83.84419706648946
103.0 83.64419706648948
106.0 83.44419706648947
109.0 83.25890892160967
112.0 83.13140869098756
115.0 83.03140869098756
118.0 82.93140869098755
122.0 82.83140869098756
125.0 82.70436515047518
128.0 82.5608690626697
132.0 82.3608690626697
136.0 82.13400891778684
140.0 81.87586542780417
145.0 81.63400891778684
150.0 81.44909815806506
155.0 81.34909815806506
160.0 81.24909815806507
165.0 81.17777349769857
170.0 81.10759870552079
175.0 80.97912026422136
180.0 80.84909815806508
185.0 80.64909815806506
190.0 80.44909815806507
195.0 80.24909815806507
200.0 80.13400891778684
206.0 80.04909815806508
212.0 80.04909815806508
218.0 80.07777349769857
224.0 80.10436515047519
230.0 80.13400891778684
236.0 80.20436515047518
240.0 80.3043651504752
250.0 80.3043651504752
258.0 80.0608690626697
265.0 79.58946704228258
272.0 78.9608690626697
280.0 78.43140869098755
290.0 78.2894670422826
300.0 78.51660322297104
307.0 78.83140869098756
315.0 79.03140869098755
325.0 79.0608690626697
335.0 79.10436515047519
345.0 79.14909815806506
355.0 79.22277982501845
365.0 79.22277982501845
375.0 79.26835668127055
387.0 79.26835668127055
400.0 79.24275333011944
412.0 79.24275333011944
425.0 79.3175861033258
437.0 79.3175861033258
450.0 79.25852069096692
462.0 79.24275333011944
475.0 79.44275333011944
487.0 79.84275333011942
500.0 80.36835668127054
515.0 80.96835668127056
530.0 81.46835668127055
545.0 81.46835668127055
560.0 81.09690555949543
580.0 80.64275333011943
600.0 80.38917329262975
615.0 80.33344493367731
630.0 80.5115362313289
650.0 80.45594847718023
670.0 80.2036717834963
690.0 80.23199020705464
710.0 80.06354571610959
730.0 79.9036717834963
750.0 79.66354571610958
775.0 80.26354571610958
800.0 80.33199020705464
825.0 78.57997605793248
850.0 77.35669413149965
875.0 75.40551449452636
900.0 71.50002447189908
925.0 73.37789574334106
950.0 76.01058671235795
975.0 76.46106778249373
1000.0 76.50651593146196
1030.0 76.80651593146197
1060.0 77.03974657542078
1090.0 76.93659402296652
1120.0 77.03659402296653
1150.0 76.90241685334325
1180.0 77.26674765863982
1220.0 77.081798506216
1250.0 77.26289170366945
1280.0 77.2817538160966
1320.0 77.717558917979
1360.0 77.97241055739497
1400.0 77.77451611673588
1450.0 77.7764469784761
1500.0 78.71682954682963
1550.0 78.75851123553944
1600.0 79.30147317267495
1650.0 80.05528250224515
1700.0 80.69329573357243
1750.0 80.63298011950292
1800.0 79.98735557493674
1850.0 78.50989588500677
1900.0 77.2680566901561
1950.0 74.50052259959057
2000.0 73.68447319939366
2060.0 74.58546164291272
2120.0 75.9049761740903
2180.0 77.75937278296668
2240.0 78.86458023489521
2300.0 77.86268274102001
2360.0 76.40355499289333
2400.0 75.05545019395552
2500.0 73.84917441308052
2580.0 73.90494864562021
2650.0 74.58512944987835
2720.0 75.38655691273368
2800.0 74.76666827373175
2900.0 74.52075753467355
3000.0 75.43938850725952
3070.0 76.23554887113832
3150.0 76.75245784070265
3250.0 76.14061262376742
3350.0 74.27523171084786
3450.0 73.33932948830669
3550.0 74.44125318441706
3650.0 75.83775363891394
3750.0 77.294402459105
3870.0 77.92465577025762
4000.0 78.04381629314553
4120.0 78.68848664005222
4250.0 79.34881697945814
4370.0 79.57884102271801
4500.0 79.34881697945814
4620.0 79.0907081432394
4750.0 79.14881697945813
4870.0 78.18883432203124
5000.0 77.48883432203124
5150.0 77.47353386821428
5300.0 77.97353386821428
5450.0 78.50338810604825
5600.0 78.50338810604825
5800.0 79.37353386821428
6000.0 78.80338810604823
6150.0 78.10338810604823
6300.0 77.70338810604822
6500.0 76.40338810604823
6700.0 77.78848664005224
6900.0 77.95852943602075
7100.0 79.12836415402538
7300.0 79.42836415402539
7500.0 79.70338810604821
7750.0 79.78848664005223
8000.0 79.12836415402538
8250.0 78.70338810604822
8500.0 79.10338810604823
8750.0 80.52836415402538
9000.0 80.90338810604823
9250.0 81.00338810604825
9500.0 79.70338810604821
9750.0 79.53372676051477
10000.0 79.80338810604823
10300.0 79.80338810604823
10600.0 79.30338810604823
10900.0 79.90338810604823
11200.0 79.62836415402538
11500.0 79.30338810604823
11800.0 79.90338810604823
12200.0 79.85852943602077
12500.0 79.88848664005222
12800.0 79.00338810604823
13200.0 79.70338810604821
13600.0 80.40338810604823
14000.0 80.32836415402538
14500.0 79.72836415402537
15000.0 76.60338810604823
15500.0 75.32836415402538
16000.0 76.40338810604823
16500.0 77.32836415402537
17000.0 78.92836415402537
17500.0 79.72836415402537
18000.0 79.21546291465206
18500.0 80.42836415402537
19000.0 81.70338810604822
19500.0 82.52836415402537
