Freq "Total Early Reflection"
22.4 57.55248590156309
23.0 58.38486381921277
23.6 59.20451502279208
24.0 60.01455320828531
25.0 60.820262775852825
25.8 61.60693590635124
26.5 62.39362767451776
27.2 63.17645058181964
28.0 63.95986550815496
29.0 64.7335670782081
30.0 65.4903047833856
30.7 66.25111215613288
31.5 67.0165096239965
32.5 67.7640829385574
33.5 68.51510857639929
34.5 69.26869152467643
35.5 70.01581386639037
36.5 70.77736289973204
37.5 71.52674562166591
38.7 72.28629040353869
40.0 73.03799989985086
41.2 73.76897249386818
42.5 74.533109879698
43.7 75.27879301645052
45.0 76.03638313155155
46.2 76.76794163758875
47.5 77.5076542569452
48.7 78.21488823847238
50.0 78.91809928472617
51.5 79.58486821764514
53.0 80.2497104200997
54.5 80.88046363628978
56.0 81.48591965411478
58.0 82.02538340035883
60.0 82.54598418942665
61.5 83.01994194301788
63.0 83.47761264640033
65.0 83.87927309036164
67.0 84.23178607107731
69.0 84.51048311082356
71.0 84.7903430238353
73.0 84.97829480466886
75.0 85.10555426836342
77.5 85.17274000358081
80.0 85.16987670190358
82.5 85.1073993458796
85.0 85.02423493158649
87.5 84.87170659205728
90.0 84.69453569199668
92.5 84.50187060204773
95.0 84.25011871071203
97.5 83.9965823496807
100.0 83.74284210699258
103.0 83.51336638626418
106.0 83.27365453189654
109.0 83.06760183063105
112.0 82.89162764992261
115.0 82.74929735077959
118.0 82.58230952498212
122.0 82.43398759596177
125.0 82.24140092370055
128.0 82.02323321188095
132.0 81.77160560503668
136.0 81.49744362483722
140.0 81.13767613283544
145.0 80.82144984336372
150.0 80.58489798844468
155.0 80.39991017671285
160.0 80.26108615490375
165.0 80.15192023876202
170.0 80.02271979350223
175.0 79.84731049425639
180.0 79.67957919303497
185.0 79.46625730021377
190.0 79.21839655988745
195.0 79.00683621226662
200.0 78.85789017325877
206.0 78.78888618245
212.0 78.7736104150424
218.0 78.7915695718873
224.0 78.81008782065484
230.0 78.84944665114693
236.0 78.94974983480347
240.0 79.04638901937655
250.0 79.0537833018912
258.0 78.8349480913831
265.0 78.39583988737382
272.0 77.80809994186595
280.0 77.286685612401
290.0 77.148022436992
300.0 77.40218056372997
307.0 77.72480772600919
315.0 77.92755856043837
325.0 77.93796635372456
335.0 77.95885163994011
345.0 77.98116533140424
355.0 77.96601213529945
365.0 77.90640078185353
375.0 77.85186471594945
387.0 77.7722645992952
400.0 77.68509747842734
412.0 77.5994461689547
425.0 77.58889064127071
437.0 77.53324291359151
450.0 77.44479023869073
462.0 77.40645210150959
475.0 77.6189296065773
487.0 77.99794078225909
500.0 78.52488057645759
515.0 79.13125167241228
530.0 79.62862029743604
545.0 79.6311654425254
560.0 79.24879944816658
580.0 78.77112319234223
600.0 78.44463395764126
615.0 78.34049199693781
630.0 78.44336000162018
650.0 78.29256310814739
670.0 77.97156229428583
690.0 77.91375403010785
710.0 77.69129412020453
730.0 77.50598871510577
750.0 77.24163749263654
775.0 77.78510847946043
800.0 77.82855163808722
825.0 76.08126566235318
850.0 74.80346156306388
875.0 72.8116015260685
900.0 68.87221447136633
925.0 70.65499595106199
950.0 73.15567500386824
975.0 73.54311826985727
1000.0 73.51639868421941
1030.0 73.71732128640905
1060.0 73.87113572118227
1090.0 73.71576301994462
1120.0 73.7400528494558
1150.0 73.49416485126187
1180.0 73.73486570493124
1220.0 73.37698728679871
1250.0 73.44915545601398
1280.0 73.31262277455
1320.0 73.65161717860137
1360.0 73.77603303407729
1400.0 73.34036516952139
1450.0 73.1348347670354
1500.0 74.02042883010989
1550.0 73.93200823545101
1600.0 74.38949471134222
1650.0 75.08860845055077
1700.0 75.6702625999952
1750.0 75.46207520863878
1800.0 74.7340363478045
1850.0 73.08579491807389
1900.0 71.68303193631834
1950.0 68.61123107759008
2000.0 67.62294898594814
2060.0 68.5430551466185
2120.0 69.89991879770902
2180.0 71.72272815838491
2240.0 72.72047779523051
2300.0 71.57729657984451
2360.0 70.02066550433986
2400.0 68.7077471371997
2500.0 67.72019465789656
2580.0 68.03021895867512
2650.0 69.03234802934637
2720.0 69.82174017905288
2800.0 69.18357642697107
2900.0 68.94214958029053
3000.0 69.72812977800761
3070.0 70.38956170583049
3150.0 70.78499603688245
3250.0 70.13573749715852
3350.0 68.26578774092522
3450.0 67.36248979343596
3550.0 68.44852651155193
3650.0 69.82563665237751
3750.0 71.2747795306243
3870.0 71.9044642838845
4000.0 72.01263501198648
4120.0 72.66734062638199
4250.0 73.30832378513193
4370.0 73.53441680193465
4500.0 73.2926542782757
4620.0 73.04376596891761
4750.0 73.0965803157441
4870.0 72.12942094054586
5000.0 71.42777202611273
5150.0 71.42859562624896
5300.0 71.92692921295257
5450.0 72.46822709056178
5600.0 72.470204740778
5800.0 73.34412521318295
6000.0 72.77185786306453
6150.0 72.05473304751726
6300.0 71.66976856291929
6500.0 70.37186213907803
6700.0 71.74454626781109
6900.0 71.91845767992521
7100.0 73.0920885453649
7300.0 73.39220117765184
7500.0 73.6718667285692
7750.0 73.74051903168586
8000.0 73.09220279470725
8250.0 72.65466184319223
8500.0 73.05453928634395
8750.0 74.49220133548936
9000.0 74.86998083237809
9250.0 74.95878505152982
9500.0 73.67387371580446
9750.0 73.51219235034816
10000.0 73.77207465099092
10300.0 73.771778029968
10600.0 73.26997216808014
10900.0 73.8564117556174
11200.0 73.59183334465084
11500.0 73.25466030710004
11800.0 73.86996931816024
12200.0 73.81864865075576
12500.0 73.84266008157468
12800.0 72.95465707091803
13200.0 73.66989539596881
13600.0 74.35662153116458
14000.0 74.29209271542518
14500.0 73.69208659683991
15000.0 70.55465942450516
15500.0 69.29208659683991
16000.0 70.35454036028229
16500.0 71.2920982072212
17000.0 72.89021283343621
17500.0 73.69221108650956
18000.0 73.18146781771881
18500.0 74.39208659683989
19000.0 75.66997210320808
19500.0 76.49208659683988
