Freq "Listening Window"
22.4 42.591779694420865
23.0 44.05278244449579
23.6 45.569737839872744
24.0 47.11844431106803
25.0 48.631401410358166
25.8 50.24294953333603
26.5 51.91849169797595
27.2 53.60073305213783
28.0 55.87700987833952
29.0 58.470821369047485
30.0 60.355354509085686
30.7 61.84266281695767
31.5 63.28071233719831
32.5 65.02870760180105
33.5 67.03393808865343
34.5 68.39325753318765
35.5 69.81325535940583
36.5 71.35635060125608
37.5 72.76795310641208
38.7 74.0020644952583
40.0 75.18005090669178
41.2 76.2695000085093
42.5 77.2695000085093
43.7 78.39159035095973
45.0 79.42553549945552
46.2 80.28005090669178
47.5 81.28005090669177
48.7 82.36821084780401
50.0 83.20102925400232
51.5 84.18977733405313
53.0 85.08977733405312
54.5 85.87823306508388
56.0 86.37823306508389
58.0 87.06717965375995
60.0 87.73358982687998
61.5 88.25583957685775
63.0 88.62267658830112
65.0 88.98951489542682
67.0 89.3669218511605
69.0 89.64472895057722
71.0 89.94472895057721
73.0 90.11199101325602
75.0 90.3447289505772
77.5 90.64472895057722
80.0 90.9669218511605
82.5 91.22293110248063
85.0 91.32293110248065
87.5 91.2784901971291
90.0 91.1454944791988
92.5 90.95686156553042
95.0 90.7127682759834
97.5 90.45764273882686
100.0 90.15764273882687
103.0 89.79261576583957
106.0 89.42655293170546
109.0 89.09261576583957
112.0 88.78338043239398
115.0 88.49517926300587
118.0 88.2072198314511
122.0 87.88573415963295
125.0 87.54104351061964
128.0 87.22909648078826
132.0 86.9851271984208
136.0 86.84981624106153
140.0 86.87249821587467
145.0 87.00381378712304
150.0 87.0815521504928
155.0 87.24779066140354
160.0 87.36897224881548
165.0 87.52522725398194
170.0 87.64779066140355
175.0 87.76971618928135
180.0 87.76971618928135
185.0 87.60381378712302
190.0 87.39203842311863
195.0 87.13588639966173
200.0 86.84727862872393
206.0 86.5249848632126
212.0 86.00565099806332
218.0 85.2638569278042
224.0 84.55446194948485
230.0 84.11914134663188
236.0 84.31830406234621
240.0 85.2126743682886
250.0 86.32410355363352
258.0 87.33351784152467
265.0 88.02504871369379
272.0 88.40841633618807
280.0 88.6461115747864
290.0 88.85992388063721
300.0 89.13086504984547
307.0 89.34882646893507
315.0 89.5371086188813
325.0 89.68378881309229
335.0 89.73536079872852
345.0 89.66316662618699
355.0 89.4471228537736
365.0 89.11617177040566
375.0 88.6799789902092
387.0 88.22354066133028
400.0 87.73297616181398
412.0 87.15913696789212
425.0 86.6015894927834
437.0 86.0253037530495
450.0 85.64657619005
462.0 85.56419624379606
475.0 85.74014288849644
487.0 86.06960035895827
500.0 86.30077422404236
515.0 86.33761085242
530.0 86.24350338862114
545.0 86.2163061347459
560.0 86.35071747362313
580.0 86.66932529422947
600.0 87.05725043721196
615.0 87.32851918586172
630.0 87.47127887617714
650.0 87.4521412064792
670.0 87.42681378149354
690.0 87.45622968024269
710.0 87.53939874823527
730.0 87.68026302871574
750.0 87.89539358341854
775.0 87.97402841468212
800.0 87.98215306634438
825.0 87.81961006780767
850.0 87.55833928068174
875.0 87.29510492563298
900.0 86.97507702091684
925.0 86.80611861522786
950.0 86.92147193175063
975.0 87.1586761608553
1000.0 87.5391290910822
1030.0 87.83810049199273
1060.0 87.8924747366031
1090.0 87.79351531184939
1120.0 87.52429810297959
1150.0 87.159243950661
1180.0 86.85354339795938
1220.0 86.6982108596241
1250.0 86.92759795244659
1280.0 87.19938767119187
1320.0 87.42487028349015
1360.0 87.50660249837073
1400.0 87.38623888301389
1450.0 87.2244149599271
1500.0 87.01530466294557
1550.0 86.77557213594366
1600.0 86.47641297728339
1650.0 86.12610202736627
1700.0 85.82296326692264
1750.0 85.52726734323642
1800.0 85.23457280311786
1850.0 85.1131955439945
1900.0 85.09341445457844
1950.0 85.15588840101765
2000.0 85.35311319790142
2060.0 85.58228389298431
2120.0 85.78039447263176
2180.0 85.9631103400579
2240.0 85.94753087413127
2300.0 85.80775529157799
2360.0 85.60908188528029
2400.0 85.47949115883581
2500.0 85.54813132211677
2580.0 85.74396498936034
2650.0 85.88130669187676
2720.0 85.95633821682638
2800.0 85.9493810784617
2900.0 85.93890531985095
3000.0 85.916605531034
3070.0 85.89583267640745
3150.0 85.87397634095628
3250.0 85.99590032892266
3350.0 86.24115376310661
3450.0 86.63709447652575
3550.0 86.97899995345689
3650.0 87.17195704953502
3750.0 87.17417369167654
3870.0 87.06548224943474
4000.0 86.87689051793153
4120.0 86.62556418578649
4250.0 86.44123052954039
4370.0 86.39228614578484
4500.0 86.46983558085537
4620.0 86.64425540560212
4750.0 86.93986137456992
4870.0 87.18615979296337
5000.0 87.31206723922148
5150.0 87.49590240295865
5300.0 87.53779510719536
5450.0 87.55707747827326
5600.0 87.67844058941688
5800.0 87.82829584550913
6000.0 88.04290120630691
6150.0 88.25867524635731
6300.0 88.35389904692104
6500.0 88.24677268220606
6700.0 87.89497047160145
6900.0 87.39875791928577
7100.0 86.96567126623228
7300.0 86.69364999968326
7500.0 86.62946067245744
7750.0 86.71304436520239
8000.0 86.8951258014312
8250.0 87.1745572319592
8500.0 87.4526107072575
8750.0 87.65553989126478
9000.0 87.69868779942242
9250.0 87.55819996097821
9500.0 87.40507960623488
9750.0 87.21316906164132
10000.0 86.86478740255865
10300.0 86.44153374658038
10600.0 85.76568860374721
10900.0 84.96370308259617
11200.0 83.93699659824189
11500.0 82.49878998157615
11800.0 80.78593406555778
12200.0 79.17235744050632
12500.0 78.08569896992263
12800.0 77.84023064442323
13200.0 78.42620546974857
13600.0 79.09688273687422
14000.0 79.9006382955704
14500.0 80.70289103633084
15000.0 81.43713154018084
15500.0 82.31586270366842
16000.0 82.54067499669549
16500.0 81.96132315048298
17000.0 80.61389944579608
17500.0 78.50783684898761
18000.0 76.5811858007926
18500.0 75.29450286373378
19000.0 74.58814747732458
19500.0 74.69984497562493
