Freq "Sound Power"
22.4 62.09875180000796
23.0 62.31519564812021
23.6 62.63151518134984
24.0 62.86459990777453
25.0 63.11305487451639
25.8 63.371816347291485
26.5 63.565269582817876
27.2 63.879550384704515
28.0 64.29919086081969
29.0 64.89362709211917
30.0 65.41599007057887
30.7 65.99599312832818
31.5 66.53853882635654
32.5 67.38332600022034
33.5 68.43957696860481
34.5 69.30647959494767
35.5 70.23161672244555
36.5 71.3898944220266
37.5 72.46912639087188
38.7 73.52874872147731
40.0 74.52531875883157
41.2 75.49274353196421
42.5 76.3844012684344
43.7 77.43482618502372
45.0 78.42837329250733
46.2 79.24006318454029
47.5 80.25151854961132
48.7 81.3812376166767
50.0 82.2522319324404
51.5 83.27147785841467
53.0 84.28420702418757
54.5 85.04456311581168
56.0 85.60875038819542
58.0 86.28725676217857
60.0 86.97953835798714
61.5 87.49964775788101
63.0 87.8463474937284
65.0 88.2143908605251
67.0 88.58878177797506
69.0 88.88135075270237
71.0 89.14922282026721
73.0 89.35567154212046
75.0 89.58194717461207
77.5 89.89006663814364
80.0 90.25131303519726
82.5 90.52417320882721
85.0 90.60692717872573
87.5 90.57437929052587
90.0 90.4243508891293
92.5 90.25339366626594
95.0 90.0784951766195
97.5 89.86324463653231
100.0 89.52678881933987
103.0 89.15961835385616
106.0 88.80365689333387
109.0 88.42678545317862
112.0 88.0777490182451
115.0 87.71635462768015
118.0 87.3536826764362
122.0 86.94039470215917
125.0 86.44508496665037
128.0 85.88859266301344
132.0 85.32137676261891
136.0 84.83464804520162
140.0 84.47368606134938
145.0 84.2861361395119
150.0 84.18988880435296
155.0 84.20282858674469
160.0 84.26987134176831
165.0 84.35843964946105
170.0 84.46743705789251
175.0 84.56718359631898
180.0 84.61286395630685
185.0 84.57269492518188
190.0 84.50642157191244
195.0 84.40974561473074
200.0 84.24563040422369
206.0 83.99493008879696
212.0 83.54680140517756
218.0 82.91869760378161
224.0 82.28213911382502
230.0 81.81808811713732
236.0 81.6961473358367
240.0 81.95673503060671
250.0 82.4694549960355
258.0 83.0696486650236
265.0 83.54266705601952
272.0 83.88140711926913
280.0 84.1751559016114
290.0 84.47100784499695
300.0 84.80094549496266
307.0 85.08654622466008
315.0 85.33765641174607
325.0 85.49261767021743
335.0 85.52096374088815
345.0 85.36633844903542
355.0 85.0454403094638
365.0 84.61663031928546
375.0 84.15935428770203
387.0 83.73918782917869
400.0 83.34571367266193
412.0 82.91193021360624
425.0 82.49896775546968
437.0 82.09896666954788
450.0 81.82152687782622
462.0 81.7112870149972
475.0 81.72423845756097
487.0 81.75118701978298
500.0 81.69349139459922
515.0 81.43364706308932
530.0 81.12278342908658
545.0 80.92214336484929
560.0 80.90756541676228
580.0 81.1763101571508
600.0 81.57686398628638
615.0 81.91745238864962
630.0 82.15740364608988
650.0 82.22724796999427
670.0 82.25872578979595
690.0 82.26636321448632
710.0 82.21601833293666
730.0 82.0710354559483
750.0 81.86007701347611
775.0 81.4849327594494
800.0 81.08299730300962
825.0 80.64298764033205
850.0 80.29631889896474
875.0 80.15617991559522
900.0 80.13701985832223
925.0 80.32993275135132
950.0 80.69389743825442
975.0 81.0798033127137
1000.0 81.45526431259049
1030.0 81.68007993673402
1060.0 81.71674513617774
1090.0 81.61047668512686
1120.0 81.47609019953532
1150.0 81.4242105851567
1180.0 81.50411441694526
1220.0 81.68145010216169
1250.0 81.93666236243479
1280.0 82.00285667730815
1320.0 81.74113956981014
1360.0 81.22951236756369
1400.0 80.49870006484127
1450.0 79.71331047934811
1500.0 78.98582654067374
1550.0 78.28508011557118
1600.0 77.59700102648583
1650.0 76.90540776350798
1700.0 76.32691474726253
1750.0 75.81054237232766
1800.0 75.42878433860145
1850.0 75.23652358965433
1900.0 75.18113674340026
1950.0 75.22430806106522
2000.0 75.48097166536911
2060.0 75.79367640118795
2120.0 76.078123874184
2180.0 76.29601523769621
2240.0 76.28329002702988
2300.0 76.16981395465585
2360.0 76.10392112612662
2400.0 76.20128556709967
2500.0 76.50543352611578
2580.0 76.92331853672033
2650.0 77.28287848391659
2720.0 77.52346941651047
2800.0 77.66650600643938
2900.0 77.75687147418519
3000.0 77.772173506661
3070.0 77.7499744901932
3150.0 77.72996299792473
3250.0 77.7253567304115
3350.0 77.80915548408761
3450.0 77.96671279901466
3550.0 78.09574788652722
3650.0 78.14687436988598
3750.0 78.05903554951483
3870.0 77.90834162744284
4000.0 77.75568345051074
4120.0 77.60130969154031
4250.0 77.59602135152502
4370.0 77.71374970240211
4500.0 77.93199967955017
4620.0 78.22153222994086
4750.0 78.48275015833043
4870.0 78.5809488383648
5000.0 78.51389703973267
5150.0 78.37446290835857
5300.0 78.1832725700701
5450.0 78.10680503849339
5600.0 78.29345966470399
5800.0 78.68633788876834
6000.0 79.1808201597225
6150.0 79.60688760885395
6300.0 79.76721582884244
6500.0 79.53221601064509
6700.0 78.94807278986318
6900.0 78.19401026702315
7100.0 77.57761573497677
7300.0 77.31736853653499
7500.0 77.38074747694957
7750.0 77.61790019545228
8000.0 77.9107852220727
8250.0 78.09694689596961
8500.0 78.23283856658013
8750.0 78.37046919820763
9000.0 78.51768452332502
9250.0 78.54782741419793
9500.0 78.54636296584108
9750.0 78.42741325767842
10000.0 78.09989205118951
10300.0 77.72784816140582
10600.0 77.19084875872856
10900.0 76.52822898117468
11200.0 75.58598823574394
11500.0 74.10073629864294
11800.0 72.32124345061956
12200.0 70.66676926520556
12500.0 69.61992238966118
12800.0 69.49252371844769
13200.0 70.01925855986605
13600.0 70.48216963251974
14000.0 70.91885562013118
14500.0 71.28561172366068
15000.0 71.68956444633976
15500.0 72.35835528282095
16000.0 72.58007600395472
16500.0 72.06276772745915
17000.0 70.9288792084448
17500.0 68.95350202848076
18000.0 66.867991803073
18500.0 65.21582255536983
19000.0 64.06033735806497
19500.0 63.88505658770714
