Freq "Sound Power DI"
22.4 20.463913970362256
23.0 21.708472872324933
23.6 22.909108734472284
24.0 24.22473047924285
25.0 25.489232611791124
25.8 26.842019261993926
26.5 28.324108191107428
27.2 29.69206874338269
28.0 31.54870509346918
29.0 33.54808035287766
30.0 34.91025051445618
30.7 35.81755576457887
31.5 36.71305958679115
32.5 37.61626767753006
33.5 38.565247195998
34.5 39.05766401418934
35.5 39.552524712909644
36.5 39.93734225517885
37.5 40.26971279148957
38.7 40.44420184973035
40.0 40.62561822380957
41.2 40.74764255249447
42.5 40.855984816024275
43.7 40.92765024188539
45.0 40.96804828289757
46.2 41.01087379810086
47.5 40.99941843302982
48.7 40.95785930707666
50.0 40.91968339751128
51.5 40.889185551587815
53.0 40.776456385814924
54.5 40.80455602522157
56.0 40.74036875283784
58.0 40.750808967530745
60.0 40.72493754484219
61.5 40.7270778949261
63.0 40.74721517052208
65.0 40.7460101108511
67.0 40.74902614913481
69.0 40.73426427382422
71.0 40.76639220625937
73.0 40.72720554708492
75.0 40.73366785191452
77.5 40.72554838838293
80.0 40.68649489191263
82.5 40.6696439696028
85.0 40.686889999704306
87.5 40.674996982552614
90.0 40.692029666018854
92.5 40.67435397521386
95.0 40.605159175313275
97.5 40.565284178243914
100.0 40.60173999543636
103.0 40.60388348793276
106.0 40.593782114320945
109.0 40.63671638861031
112.0 40.67651749009825
115.0 40.7497107112751
118.0 40.82442323096426
122.0 40.91622553342316
125.0 41.066844619918626
128.0 41.31138989372418
132.0 41.63463651175127
136.0 41.98605427180928
140.0 42.36969823047467
145.0 42.68856372356052
150.0 42.8625494220892
155.0 43.01584815060822
160.0 43.06998698299654
165.0 43.13767368047026
170.0 43.15123967946039
175.0 43.17341866891172
180.0 43.12773830892388
185.0 43.002004937890504
190.0 42.85650292715556
195.0 42.69702686088036
200.0 42.572534300449604
206.0 42.50094085036501
212.0 42.42973566883512
218.0 42.316045399971955
224.0 42.24320891160917
230.0 42.27193930544392
236.0 42.59304280245888
240.0 43.22682541363126
250.0 43.82553463354739
258.0 44.23475525245044
265.0 44.45326773362363
272.0 44.49789529286831
280.0 44.441841749124364
290.0 44.35980211158963
300.0 44.30080563083219
307.0 44.23316632022434
315.0 44.17033828308462
325.0 44.16205721882423
335.0 44.18528313378974
345.0 44.26771425310095
355.0 44.37256862025917
365.0 44.470427527069575
375.0 44.491510778456515
387.0 44.45523890810095
400.0 44.3581485651014
412.0 44.218092830235236
425.0 44.073507813263106
437.0 43.897223159450974
450.0 43.79593538817315
462.0 43.823795304748245
475.0 43.986790506884816
487.0 44.289299415124674
500.0 44.57816890539249
515.0 44.874849865280055
530.0 45.091606035483906
545.0 45.26504884584597
560.0 45.414038132810205
580.0 45.46390121302805
600.0 45.45127252687496
615.0 45.38195287316147
630.0 45.284761306036614
650.0 45.19577931243428
670.0 45.138974067646956
690.0 45.16075254170573
710.0 45.29426649124798
730.0 45.58011364871679
750.0 46.006202645891776
775.0 46.4599817311821
800.0 46.87004183928414
825.0 47.14750850342499
850.0 47.23290645766636
875.0 47.10981108598713
900.0 46.808943238543975
925.0 46.44707193982589
950.0 46.19846056944557
975.0 46.04975892409095
1000.0 46.054750854441096
1030.0 46.12890663120808
1060.0 46.14661567637472
1090.0 46.153924702671915
1120.0 46.01909397939362
1150.0 45.70591944145366
1180.0 45.320315056963494
1220.0 44.98764683341177
1250.0 44.96182166596115
1280.0 45.16741706983311
1320.0 45.65461678962936
1360.0 46.247976206756405
1400.0 46.85842489412197
1450.0 47.48199055652836
1500.0 48.00036419822118
1550.0 48.46137809632185
1600.0 48.85029802674693
1650.0 49.19158033980767
1700.0 49.46693459560947
1750.0 49.68761104685814
1800.0 49.77667454046576
1850.0 49.84755803028955
1900.0 49.88316378712756
1950.0 49.90246641590181
2000.0 49.84302760848166
2060.0 49.759493567745736
2120.0 49.67315667439712
2180.0 49.63798117831105
2240.0 49.63512692305078
2300.0 49.60882741287149
2360.0 49.47604683510305
2400.0 49.24909166768552
2500.0 49.013583871950345
2580.0 48.791532528589386
2650.0 48.56931428390952
2720.0 48.40375487626527
2800.0 48.25376114797169
2900.0 48.15291992161512
3000.0 48.115318100322355
3070.0 48.116744262163635
3150.0 48.114899418980926
3250.0 48.24142967446052
3350.0 48.402884354968364
3450.0 48.64126775346044
3550.0 48.85413814287902
3650.0 48.9959687555984
3750.0 49.08602421811106
3870.0 49.12802669794128
4000.0 49.092093143370164
4120.0 48.99514057019556
4250.0 48.81609525396472
4370.0 48.64942251933209
4500.0 48.50872197725457
4620.0 48.39360925161064
4750.0 48.42799729218885
4870.0 48.57609703054793
5000.0 48.76905627543816
5150.0 49.092325570549434
5300.0 49.325408613074615
5450.0 49.42115851572922
5600.0 49.35586700066224
5800.0 49.11284403269016
6000.0 48.83296712253379
6150.0 48.62267371345274
6300.0 48.55756929402796
6500.0 48.685442747510336
6700.0 48.91778375768763
6900.0 49.175633728212006
7100.0 49.35894160720487
7300.0 49.347167539097626
7500.0 49.21959927145724
7750.0 49.066030245699494
8000.0 48.955226655307854
8250.0 49.048496411938956
8500.0 49.190658216626744
8750.0 49.2559567690065
9000.0 49.151889352046766
9250.0 48.981258622729655
9500.0 48.829602716343175
9750.0 48.756641879912266
10000.0 48.735781427318486
10300.0 48.68457166112394
10600.0 48.545725920968025
10900.0 48.40636017737087
11200.0 48.321894438447316
11500.0 48.368939758882576
11800.0 48.435576690887586
12200.0 48.47647425125011
12500.0 48.436662656210814
12800.0 48.31859300192491
13200.0 48.3778329858319
13600.0 48.585599180303845
14000.0 48.952668751388586
14500.0 49.38816538861951
15000.0 49.718453169790436
15500.0 49.928393496796815
16000.0 49.93148506869014
16500.0 49.86944149897319
17000.0 49.65590631330066
17500.0 49.52522089645623
18000.0 49.684080073668966
18500.0 50.04956638431332
19000.0 50.49869619520899
19500.0 50.78567446386714
