Freq,Floor Bounce,Ceiling Bounce,Front Wall Bounce,Side Wall Bounce,Rear Wall Bounce,Total Early Reflection
22.4,20.848985148795506,21.212271783156197,20.00065786069426,20.013794966649996,20.480360996550232,20.53706590316513
23.0,20.342830304719726,20.5404416794549,19.6147553152921,19.582485558021645,19.888317639020713,20.011035680319637
23.6,19.63821129888744,19.603069571042525,19.085854489102374,19.020872603772162,19.11195682371296,19.30045905550604
24.0,18.700767494455633,18.39999999999999,18.48585448910238,18.350748329727665,18.069157360365992,18.406117126265215
25.0,19.10000000000001,18.633589826879998,18.97166275391892,18.781103283039798,18.38084261453004,18.780761778152126
25.8,19.799999999999997,19.366921851160484,19.700000000000003,19.531162422905865,19.11752976017324,19.509865434813335
26.5,20.500000000000014,20.000767494455644,20.39999999999999,20.20069075111327,19.78618708252732,20.185281206050107
27.2,21.000000000000014,20.500767494455616,20.885854489102385,20.691020807839763,20.259879613339777,20.675578984609714
28.0,21.000000000000014,20.500767494455616,20.885854489102385,20.710793400675087,20.270372341088247,20.681461946217397
29.0,20.966921851160507,20.500767494455616,20.871662753918898,20.681103283039775,20.23881493465545,20.65966649882934
30.0,21.299999999999997,20.800767494455627,21.200000000000003,21.02110710001655,20.560121459947155,20.984647414747954
30.7,24.299999999999997,23.8007674944556,24.24313939533782,24.04119983124484,23.560488445345314,23.997867323467503
31.5,26.500000000000014,26.000767494455616,26.457424491358168,26.25120879385058,25.76048844534533,26.20291657714391
32.5,28.000000000000014,27.500767494455616,27.97166275391892,27.75120879385055,27.254867260788032,27.7049258950655
33.5,28.966921851160535,28.43513059177984,28.885854489102357,28.671389579149647,28.18144851504438,28.63774051438081
34.5,29.666921851160495,29.16845083805434,29.643139395337826,29.421107100016528,28.92861528083658,29.374794914921452
35.5,31.63358982687997,31.10076749445564,31.60000000000001,31.361194742341823,30.865249924978755,31.322051648672854
36.5,35.63358982687997,35.10076749445564,35.60000000000001,35.36119474234182,34.86561647728793,35.32211764211955
37.5,37.89999999999999,37.36845083805433,37.8716627539189,37.64119983124486,37.1389407094144,37.593880826206075
38.7,40.233589826879964,39.70076749445563,40.1858544891024,39.961194742341846,39.44433695966357,39.91527923971533
40.0,42.233589826879964,41.66845083805434,42.1858544891024,41.961194742341846,41.444336959663545,41.909145899692774
41.2,43.966921851160535,43.43513059177984,43.94313939533781,43.68156054014521,43.176220070119584,43.651042643911396
42.5,46.033589826879975,45.46845083805432,46.01442746339747,45.76119474234183,45.244336959663556,45.7152522312938
43.7,47.63358982688,47.068450838054346,47.61442746339749,47.36119474234182,46.84433695966358,47.315252231293826
45.0,49.5669218511605,49.03513059177983,49.571662753918915,49.3119472050807,48.78704391765886,49.26522573249399
46.2,51.166921851160524,50.56845083805432,51.143139395337826,50.871389579149636,50.33894070941439,50.82969680568779
47.5,52.93358982687998,52.36845083805433,52.92880715674528,52.64119983124486,52.128615280836584,52.611488401971314
48.7,54.5669218511605,53.96845083805432,54.571662753918915,54.28156054014522,53.73894070941439,54.23789707571699
50.0,57.46692185116051,56.868450838054315,57.471662753918906,57.19194381315005,56.64433695966356,57.14095885586225
51.5,59.633589826879984,59.03513059177982,59.643139395337826,59.341427919797425,58.81802386733524,59.30644991017246
53.0,61.666921851160495,61.10306957104251,61.67166275391891,61.4023023206405,60.83894070941439,61.348617369671516
54.5,63.43358982687997,62.83513059177983,63.44313939533782,63.12157071745497,62.60739528657011,63.1005542137642
56.0,65.30076749445563,64.70306957104252,65.28618450501948,65.0023023206405,64.44924164731754,64.96088047704053
58.0,66.90076749445561,66.30306957104251,66.94313939533781,66.6023023206405,66.05976007718225,66.57508720707682
60.0,68.3669218511605,67.76845083805433,68.3716627539189,68.05212439664061,67.51802386733524,68.02823937565823
61.5,69.90076749445562,69.30306957104251,69.94313939533782,69.6023023206405,69.04924164731754,69.57322075990618
63.0,71.10076749445561,70.5030695710425,71.14313939533781,70.80230232064049,70.24924164731753,70.77322075990617
65.0,71.96692185116049,71.33513059177982,71.97166275391889,71.63346970081129,71.09601273061459,71.61431615709611
67.0,72.3669218511605,71.70306957104252,72.37166275391891,72.0023023206405,71.47488760396926,71.9983166643079
69.0,72.7007674944556,72.06845083805433,72.74313939533782,72.3734597388541,71.80146255114362,72.3524796421944
71.0,73.00076749445562,72.30306957104253,73.0147553152921,72.64396845048444,72.07488760396926,72.6234612208034
73.0,72.90076749445562,72.23663575667187,72.94313939533784,72.56395064819495,71.98534140989615,72.54178436088607
75.0,73.10076749445562,72.50306957104252,73.17166275391891,72.7736809860833,72.20109625396555,72.7652143821747
77.5,73.40076749445562,72.80306957104251,73.4716627539189,73.06395064819496,72.47488760396926,73.05867240508171
80.0,73.7007674944556,73.00306957104253,73.71508314243883,73.28338957194298,72.70641587089798,73.29940313708742
82.5,73.80076749445563,73.10306957104252,73.87166275391891,73.42342518384305,72.84263186310731,73.42621393208881
85.0,73.7007674944556,73.00306957104253,73.7861845050195,73.34396845048444,72.74802353177095,73.33448856296542
87.5,74.36845083805433,73.63821129888743,74.41508314243883,73.94396845048443,73.34263186310731,73.96128042717682
90.0,74.26845083805433,73.53821129888743,74.31508314243885,73.8252366727071,73.23207461914124,73.85572456758376
92.5,74.50076749445562,73.77150800786937,74.5716627539189,74.06537624439828,73.43207461914125,74.08960929385778
95.0,74.66845083805433,73.93821129888744,74.72946066855592,74.21562128927492,73.61655269162185,74.25433412548104
97.5,74.36845083805433,73.63821129888743,74.50065786069425,73.93600002729521,73.31655269162185,73.97435358028342
100.0,74.96845083805432,74.17150800786938,75.01508314243884,74.4567329971117,73.83207461914124,74.51258070423764
103.0,74.86845083805433,74.07150800786937,74.95774911351313,74.36670626616768,73.71136636320287,74.42063923899047
106.0,74.96845083805432,74.17150800786938,75.02979499755904,74.42757995317386,73.75841976530091,74.49763879739032
109.0,74.56845083805433,73.7069050103546,74.67231738497823,74.00920611180409,73.35841976530092,74.091789682111
112.0,74.56845083805433,73.7069050103546,74.71508314243884,74.00920611180409,73.31124266857903,74.09368771497832
115.0,74.46845083805432,73.6069050103546,74.58748929892043,73.89977505304927,73.1584197653009,73.9766897374026
118.0,74.46845083805432,73.6069050103546,74.61508314243885,73.87221372104861,73.10604717223441,73.96903338229193
122.0,74.60306957104252,73.7069050103546,74.71508314243884,73.9817047562416,73.09614257654734,74.06088911815004
125.0,74.83435140868502,74.20306957104252,74.8291339249429,74.34487544723632,73.44140804156558,74.35989242963961
128.0,74.83358982687997,74.23513059177984,74.80065786069426,74.45211909698088,73.95498142022724,74.46813671534487
132.0,74.66692185116051,74.10076749445561,74.64313939533781,74.30230232064049,73.83990468605857,74.32213076921026
136.0,74.46692185116049,73.76845083805433,74.41475531529211,74.0635019844032,73.65658532302197,74.08642390797785
140.0,74.20076749445562,73.43513059177984,74.17199384997417,73.71378463570721,73.36148442845816,73.79115098576682
145.0,73.96845083805432,73.10690501035458,74.00065786069426,73.36604130619769,73.02717908048275,73.51389201751444
150.0,73.83663575667187,72.84283030471974,73.95873795327732,73.14995417621381,72.73481517707324,73.3340966031365
155.0,73.87150800786937,72.61227178315617,74.0454340619224,72.97735626425194,72.41470754341114,73.23474548103837
160.0,74.1069050103546,72.71916705502754,74.27461192973443,73.00945194729806,72.26908199804178,73.34713516272656
165.0,74.27609175449221,72.78982856673473,74.504865408299,73.076962683502,72.13719833770388,73.45020695639478
170.0,74.4122717831562,72.82758719283592,74.5762292462144,73.03867846394034,71.8783301288045,73.4643645421996
175.0,74.4122717831562,72.82758719283592,74.6904280961703,73.00647047755412,71.68761119571906,73.46253957648922
180.0,74.64576719438469,73.02758719283592,74.90684500366415,73.13582921693332,71.7038199169357,73.63867356423607
185.0,74.8457671943847,73.26588846059687,75.16264712636357,73.3427475290899,71.87486354070352,73.85789312071635
190.0,75.0457671943847,73.47662798253903,75.41998423401444,73.53191126588645,72.15228355572229,74.0832576634641
195.0,75.18219967332304,73.54898359150842,75.54770564348938,73.66163341689614,72.33335655089626,74.21082231618745
200.0,75.18656646311247,73.54898359150842,75.64675150375355,73.69269965235661,72.44756779028862,74.25941803699642
206.0,75.08656646311246,73.42179738688894,75.53175513861908,73.6570796650462,72.3367022440416,74.16064949341482
212.0,74.6098662867233,73.09506458035828,74.94412398190063,73.5959400342587,71.97324232812728,73.7715130394973
218.0,73.67150800786938,72.53257218046556,73.84577492219542,72.92492883173803,71.55925147987767,72.98321431214855
224.0,73.45260953202218,72.0096325668162,73.89592126125571,71.81399200038275,71.39855127348164,72.62622457626797
230.0,73.56096514237184,71.8950645803583,74.24933300911412,71.7435721565326,71.01807090658194,72.66511134599416
236.0,73.56096514237184,72.02179738688893,74.2610247430264,72.03830917917143,70.49385556287116,72.67176080755135
240.0,73.48982856673473,72.07082970284297,74.20229476693693,72.3151599616041,69.96112166338173,72.63464000135347
250.0,73.46096514237182,72.06096514237183,74.15971162455999,72.58943710249766,69.54198256899862,72.62316129218239
258.0,73.48982856673473,72.01916705502754,74.19009840257407,72.80286448524393,69.2638572447169,72.64839889966167
265.0,73.62758719283592,71.91916705502754,74.33502122931326,72.93441689845375,69.05968659085893,72.71615740152625
272.0,73.79897445130926,71.79471929119204,74.50785332724418,73.08014092150937,68.97888626441794,72.81323013904363
280.0,74.17082970284298,71.93331023801674,74.8817624374694,73.38638782021472,69.22170480968104,73.1249867540654
290.0,74.87082970284298,72.38407681298945,75.41139323072619,73.73128987891972,69.52175651180046,73.63026223366845
300.0,75.13257218046557,72.31192126753355,75.57753738070312,73.89392804388834,69.72040468418443,73.78913212671429
307.0,75.18656646311247,71.74583147157398,75.3619757524389,73.65861926611112,69.49546155632441,73.5965892348161
315.0,74.87977745790569,71.85295536787778,75.07394240304029,73.29895751146253,69.05954664636118,73.33140494598852
325.0,74.75260953202218,72.68538710465897,75.21704993328868,73.43653642899558,69.00872106737067,73.49064321281462
335.0,74.52349685065981,72.60034112939827,75.11573126164821,73.44282543338441,68.72041592463509,73.36677454653871
345.0,74.18219967332304,72.33392832814567,74.84412398190064,73.30418296843357,68.21267777928053,73.08970136032443
355.0,73.81592692226708,72.04293979360189,74.5294606685559,73.16905539388728,67.72019616807874,72.79297487480191
365.0,73.41916705502754,71.68915630129642,74.27264843113159,73.02815540862042,67.35054490172219,72.5037380792043
375.0,73.26096514237183,71.39506458035831,74.11508314243883,73.11377874436332,67.28351676506132,72.3855842697219
387.0,73.48982856673473,71.5672655885961,74.18879404668057,73.38096748122213,67.4885319205362,72.56747237442673
400.0,73.73752777300028,71.80962251076208,74.64476011103507,73.42135216336398,67.8927055178064,72.83731033977836
412.0,73.992378988098,71.7429397936019,75.33688158634568,73.32883083646207,68.10035034388329,73.10333665565784
425.0,73.9809849055068,71.2179278976485,75.75527608142671,73.01294840343382,67.91966900218308,73.0997826807344
437.0,73.03638088039143,70.13113467688883,75.36512189196165,72.04101753372892,67.09409808655592,72.35247256238596
450.0,70.56322504785602,68.46620989389217,73.65858125211864,70.08955207146892,65.39720236887013,70.43775332778884
462.0,70.73753193576904,65.08969294222597,72.63851574762514,69.55860249673312,64.89647888386052,69.59610878632135
475.0,72.15176921104225,60.445365955227075,72.19073576156005,69.00696310615666,63.491732658125855,69.47154929417593
487.0,72.7369601259437,61.39990859618891,72.0956287833741,68.8154540365546,62.21285999159845,69.60370728451089
500.0,73.29749950966175,61.58397949702584,72.47558588458583,68.88689012240759,62.103420967107084,69.9871870099245
515.0,74.13647412390416,63.22286360876538,72.70840531031672,68.70089776739617,61.91884416609412,70.46481092452522
530.0,73.9996543927718,67.97489229083098,73.06116120265933,68.80561861381665,62.10150172987362,70.85245151571097
545.0,72.57697211958266,68.25879677415587,73.39959626169731,69.37085507013411,62.495628712408276,70.57675401652666
560.0,72.20488091921368,67.70072921332074,73.51615867218699,69.38545309188406,62.15891925174073,70.43747999771135
580.0,71.99179815677407,67.24570374002573,73.4908387153714,69.0673453492876,61.11279693436926,70.23845895698985
600.0,71.69220047151573,66.619032343648,73.23156734312867,68.3510385802989,59.28912250957163,69.83090558588415
615.0,71.20921140720404,65.85218761292406,72.60017652097547,67.37201429809376,57.21993415186829,69.16385440189488
630.0,72.03753193576905,67.0380832135172,72.98435953760709,67.58720093176967,56.88788846405126,69.74505095351599
650.0,71.95865724017871,69.8051774523302,73.24731223229753,67.91847094114185,57.06662503627415,70.25986035852988
670.0,69.62990957385144,70.79693704381889,72.67392776096335,67.59275496076286,58.82141954872965,69.6580221426526
690.0,69.50807851055698,68.82875610128315,72.67149120347668,67.5673256321275,59.97808666563222,69.21900147977718
710.0,71.10566507474113,66.5034858149106,73.59716827884426,68.25931875339803,59.74560796280615,69.81405216970465
730.0,72.2708338338135,65.76612501951207,74.00739375057152,69.02062523616628,58.39336544130546,70.37224515008911
750.0,72.61832544184973,67.70410916638598,73.98855047684872,69.34078380222984,58.4906284922706,70.6832540915721
775.0,72.95999961744991,69.35872457742298,74.33564207486128,69.71274922043271,59.76763600598312,71.19532856979906
800.0,73.22102614963507,69.75800804769342,74.77286361510522,70.14391521319959,60.44265851416398,71.57807379433488
825.0,73.39389595883674,69.93308937677078,74.8252186901643,70.21965604826376,60.45650157464132,71.68491677213899
850.0,73.6586572401787,70.20473949550548,74.83729388132856,70.23876923788785,60.4736165298243,71.80947069663442
875.0,73.81655999317607,70.31832544184972,74.6436701954954,70.13602311226398,60.4576395777611,71.7841023629726
900.0,74.01406839527003,70.84258273663016,74.32038572538129,70.04219754720218,60.450118356680846,71.79496061710722
925.0,74.26668408046666,71.31832544184972,73.98036931232406,69.58297925301073,60.62946981630479,71.78990285774138
950.0,74.56419800295966,71.5809849055068,73.95943101715609,68.99279665799327,60.09413939397484,71.86572892027995
975.0,74.1501707521257,71.09780984381857,73.96993614360711,68.59390562917682,59.04705477243293,71.57525555715922
1000.0,73.77387961222817,71.25131759580826,73.37065270723798,67.93045392222695,58.36600365089785,71.19320564510991
1030.0,73.57783080594571,71.20137735040872,73.37303132022306,67.87473026639684,59.5864156787825,71.12338879249371
1060.0,73.65380974359446,71.00137735040873,73.40138057550556,67.85169090898142,59.563306439577204,71.11760953279547
1090.0,73.29485705883171,69.59265755490996,73.29505724359093,67.75837836833509,58.89419476308127,70.68613686688632
1120.0,72.51152326304965,67.30807851055697,73.46369310787937,67.75549847371299,59.02408813769631,70.18485013632194
1150.0,72.03758968889495,65.26322504785601,73.7921447510653,68.12957781601234,58.98354996415031,70.05039261995037
1180.0,71.8708338338135,65.24132986207626,73.98164396011343,68.26897299038187,58.75195374653502,70.10328172065039
1220.0,71.74852015458805,66.16718462137125,73.93293577538535,68.11941864040422,58.19802616302255,70.08382099845457
1250.0,71.92990957385143,67.17915446671192,73.62749363348603,67.92243112640502,58.09634262687317,70.06168981233206
1280.0,72.21124970721759,67.8527499421436,73.15548288093997,67.63393193906889,58.22537543295549,69.98975046039085
1320.0,72.30209054318676,68.22239157432459,72.37172426350725,66.96472982309884,58.09005004867848,69.68599151340086
1360.0,72.28155742752327,68.17404084094026,72.47070062889144,66.50861294528681,58.42854864497326,69.66736263574673
1400.0,72.34805664755616,68.01923785438673,72.51262387850527,65.89274945281063,57.31999451548525,69.61582578577969
1450.0,72.70497668676806,66.79996104206954,72.07703669343518,64.92973715726642,55.848251749173684,69.35073952715005
1500.0,72.39780984381858,65.96570276170648,72.97990683424881,65.22272587324552,55.63997311994348,69.53031025248221
1550.0,71.6795147828385,64.68681963215332,74.40324244337806,65.1688518510123,55.118663346261016,69.89798879077605
1600.0,70.3504400852808,61.70229297394157,74.51549591040725,64.23836962637326,53.96939744165215,69.3959773634128
1650.0,69.18048132426445,61.21036112689508,73.68452293430776,64.34519895055791,53.41716319539266,68.56124145219472
1700.0,69.64113351361485,63.18836336106192,73.3761060432453,65.69633205534316,55.63265114679949,68.70710711132982
1750.0,70.34564034873641,64.1625132206552,73.31788789740743,66.55614809099816,56.6207635438728,69.01873965652746
1800.0,70.13322485091791,65.13563946709276,73.61243623648879,67.25622993045398,57.092551016050535,69.28159533800866
1850.0,70.63034066181595,65.70076749445562,74.0287090039473,67.81926536680946,57.40902309246748,69.74664284706023
1900.0,70.77107339625236,65.90190235499851,74.33450242573561,67.7675454244654,57.517154974528225,69.9572571349511
1950.0,70.04968377876031,65.51496244492468,73.98005717780269,67.33747507711452,57.542304847175615,69.50986876627236
2000.0,69.92812233674836,65.05143780816817,73.71725168500383,67.50799519727529,57.431000491972654,69.32054073069985
2060.0,70.14391589069238,65.71832900064128,73.21000224535554,67.92640078474278,57.71882407909979,69.22248665277395
2120.0,70.55962034200111,66.02006756246182,72.7055286719076,67.87982562787623,57.65094674024026,69.11040180290334
2180.0,70.22643297742509,65.21112494659283,72.81402796766203,67.56063403319733,57.776914423799965,68.95125303920216
2240.0,69.13222034791231,63.980946366299136,72.41323037024024,67.61609872610153,57.020734599199216,68.37589810067422
2300.0,70.04507194826725,64.45327412490556,73.1669653288776,68.08745421128046,54.395680439820595,69.06768615183887
2360.0,69.90252973822756,63.642063781360534,72.91674236931692,67.9580526085516,53.3017088808577,68.8227166947197
2400.0,70.61684696547606,63.61942600424611,73.05649682778595,68.59751268793211,54.0841527663368,69.19470288937462
2500.0,71.8387808527516,65.67380242936541,74.13417979983221,69.57296796773613,55.447758945902535,70.35714004260821
2580.0,72.30942555813574,66.72990957385144,75.10690622985308,70.21666729520915,56.427502644156604,71.14549019498709
2650.0,73.07769284155933,66.82496449391053,75.68748929892043,70.74855840923401,56.46605639818689,71.73172290242013
2720.0,74.33878157203446,66.62545420369875,75.9327576959068,70.44029084965781,56.967475329371965,72.17578798280827
2800.0,74.33465076516198,67.56001009143439,75.82632023084226,69.84584811753749,57.585962115872945,72.11160724756161
2900.0,72.91442345365729,67.43805241520398,74.87828356564388,69.44399013489965,58.15164974013099,71.15993571226781
3000.0,72.3099460770717,66.87190213361664,74.02797075735783,68.64385962312033,58.32950287512291,70.42711914514294
3070.0,70.3600462300634,64.2805144163607,73.00466541105422,67.55834838699518,58.11940369599006,69.01632075793259
3150.0,68.95198202953547,62.27291047960766,72.70361041001699,66.65737540491652,57.133787332961774,68.23846004971959
3250.0,69.55445848526061,63.202550840734816,72.86658951891935,66.34844515456003,54.72834241245941,68.46030321574064
