Freq "Total Early Reflection"
22.4 20.577572232279053
23.0 20.051542009433618
23.6 19.34096538462002
24.0 18.446623455379168
25.0 18.821268107266107
25.8 19.550371763927288
26.5 20.22578753516403
27.2 20.71608531372364
28.0 20.72196827533135
29.0 20.70017282794329
30.0 21.025153743861907
30.7 24.038373652581456
31.5 26.243422906257862
32.5 27.74543222417948
33.5 28.67824684349476
34.5 29.415301244035405
35.5 31.362557977786807
36.5 35.362623971233475
37.5 37.634387155320056
38.7 39.955785568829285
40.0 41.94965222880673
41.2 43.69154897302532
42.5 45.755758560407756
43.7 47.35575856040778
45.0 49.30573206160794
46.2 50.87020313480174
47.5 52.65199473108528
48.7 54.27840340483094
50.0 57.181465184976204
51.5 59.34695623928641
53.0 61.38912369878547
54.5 63.14106054287815
56.0 65.00138680615449
58.0 66.61559353619076
60.0 68.06874570477218
61.5 69.61372708902013
63.0 70.81372708902013
65.0 71.65482248621008
67.0 72.03882299342187
69.0 72.39298597130835
71.0 72.66396754991737
73.0 72.58229069000001
75.0 72.80572071128866
77.5 73.09917873419566
80.0 73.33990946620139
82.5 73.46672026120278
85.0 73.37499489207937
87.5 74.00178675629074
90.0 73.8962308966977
92.5 74.13011562297173
95.0 74.29484045459498
97.5 74.01485990939739
100.0 74.55308703335159
103.0 74.46114556810441
106.0 74.53814512650429
109.0 74.13229601122495
112.0 74.13419404409225
115.0 74.01719606651655
118.0 74.00953971140588
122.0 74.10139544726398
125.0 74.40039875875357
128.0 74.50864304445882
132.0 74.36263709832423
136.0 74.12693023709177
140.0 73.83165731488077
145.0 73.55439834662839
150.0 73.37460293225045
155.0 73.27525181015233
160.0 73.38764149184051
165.0 73.49071328550873
170.0 73.50487087131354
175.0 73.50304590560319
180.0 73.67917989335002
185.0 73.89839944983031
190.0 74.12376399257805
195.0 74.2513286453014
200.0 74.29992436611037
206.0 74.20115582252878
212.0 73.81201936861125
218.0 73.0237206412625
224.0 72.66673090538193
230.0 72.70561767510812
236.0 72.71226713666529
240.0 72.67514633046743
250.0 72.66366762129634
258.0 72.68890522877562
265.0 72.7566637306402
272.0 72.85373646815756
280.0 73.16549308317937
290.0 73.6707685627824
300.0 73.82963845582826
307.0 73.63709556393005
315.0 73.37191127510246
325.0 73.53114954192857
335.0 73.40728087565266
345.0 73.13020768943838
355.0 72.83348120391585
365.0 72.54424440831825
375.0 72.42609059883586
387.0 72.60797870354068
400.0 72.8778166688923
412.0 73.1438429847718
425.0 73.14028900984836
437.0 72.39297889149991
450.0 70.4782596569028
462.0 69.6366151154353
475.0 69.51205562328988
487.0 69.64421361362483
500.0 70.02769333903846
515.0 70.50531725363916
530.0 70.89295784482493
545.0 70.61726034564062
560.0 70.4779863268253
580.0 70.2789652861038
600.0 69.8714119149981
615.0 69.20436073100883
630.0 69.78555728262995
650.0 70.30036668764383
670.0 69.69852847176655
690.0 69.25950780889114
710.0 69.8545584988186
730.0 70.41275147920308
750.0 70.72376042068605
775.0 71.23583489891301
800.0 71.61858012344885
825.0 71.72542310125294
850.0 71.84997702574839
875.0 71.82460869208656
900.0 71.83546694622116
925.0 71.8304091868553
950.0 71.9062352493939
975.0 71.61576188627318
1000.0 71.23371197422387
1030.0 71.16389512160767
1060.0 71.1581158619094
1090.0 70.72664319600028
1120.0 70.2253564654359
1150.0 70.09089894906433
1180.0 70.14378804976435
1220.0 70.12432732756854
1250.0 70.10219614144602
1280.0 70.0302567895048
1320.0 69.72649784251482
1360.0 69.70786896486068
1400.0 69.65633211489366
1450.0 69.391245856264
1500.0 69.57081658159616
1550.0 69.93849511989002
1600.0 69.43648369252675
1650.0 68.60174778130865
1700.0 68.74761344044377
1750.0 69.05924598564141
1800.0 69.32210166712261
1850.0 69.78714917617418
1900.0 69.99776346406506
1950.0 69.55037509538633
2000.0 69.3610470598138
2060.0 69.2629929818879
2120.0 69.15090813201729
2180.0 68.9917593683161
2240.0 68.41640442978816
2300.0 69.10819248095281
2360.0 68.86322302383367
2400.0 69.23520921848858
2500.0 70.39764637172217
2580.0 71.18599652410104
2650.0 71.77222923153408
2720.0 72.21629431192223
2800.0 72.15211357667556
2900.0 71.20044204138176
3000.0 70.4676254742569
3070.0 69.05682708704654
3150.0 68.27896637883354
3250.0 68.50080954485459
3350.0 69.14737295057394
3450.0 70.775203952492
3550.0 72.3989555111918
3650.0 72.15742642412025
3750.0 70.34901678512468
3870.0 67.97374466059564
4000.0 69.12470746092025
4120.0 69.6140315579941
4250.0 69.34150887434562
4370.0 69.16203802555927
4500.0 69.1304644475317
4620.0 70.42893775418271
4750.0 71.22902959255505
4870.0 71.16591788925892
5000.0 70.60016717430601
5150.0 69.51087383296354
5300.0 68.54172958913745
5450.0 68.17949715439363
5600.0 69.26590915835935
5800.0 69.02327590017016
6000.0 69.18186572014221
6150.0 69.1138057069242
6300.0 69.41889462517291
6500.0 70.22150859079531
6700.0 70.9562746451813
6900.0 71.28439173038082
7100.0 70.62199204377991
7300.0 69.55613551444894
7500.0 70.58288741382141
7750.0 71.8988114705766
8000.0 72.00257449619065
8250.0 71.15768417350111
8500.0 69.87992438665339
8750.0 70.22977988077537
9000.0 70.40676651819275
9250.0 70.29213553441716
9500.0 69.87033003168568
9750.0 70.6362623890099
10000.0 71.03056129553717
10300.0 70.85253008145521
10600.0 70.65980429446553
10900.0 70.36808626068179
11200.0 68.86721418512643
11500.0 67.50295066240133
11800.0 67.18865935978683
12200.0 69.11251306965953
12500.0 71.33916455638966
12800.0 70.14419154104401
13200.0 69.16834558755299
13600.0 68.29607849107327
14000.0 67.78274706698018
14500.0 67.69530451973232
15000.0 67.8171399274447
15500.0 67.03953490094632
16000.0 67.9264856068103
16500.0 67.99505355419917
17000.0 67.09024056248167
17500.0 65.35738745670145
18000.0 63.511711813185045
18500.0 61.82249298801686
19000.0 57.7192286679951
19500.0 56.0261853961711
