Freq,Floor Bounce,Ceiling Bounce,Front Wall Bounce,Side Wall Bounce,Rear Wall Bounce,Total Early Reflection
20.5078,53.443985340767426,53.7790966761215,53.362804105421816,53.57887182845113,54.09176498886535,53.65926810673372
21.9727,55.5853950030872,55.72267820851599,55.40528862225605,55.69575380690708,56.283865730801864,55.748801941790845
23.4375,59.91549102665229,59.71097005491302,59.63689716064914,59.91694650494378,60.638493690874355,59.978727884327526
24.9023,57.9769481163537,58.333415557790346,57.9369945536757,58.16385404796543,58.75237703989933,58.24296920472244
26.3672,61.533514180133466,61.737086934241404,61.50606132252693,61.456015288961936,61.16584254480918,61.48356874920913
27.832,64.0844141519643,64.28708127938114,64.06828358361719,64.01965989104966,63.752293482035185,64.04571358125924
29.2969,66.75602083642656,66.83988514689634,66.71744814012791,66.66596463989404,66.44159862762912,66.68623073533942
30.7617,69.20438335647961,69.31980883284932,69.19476547154817,69.13446423063102,68.91765368473055,69.1562247518877
32.2266,71.39274100222204,71.49201697667257,71.39692027199382,71.31567634742811,71.05230500179647,71.33248103970641
33.6914,73.51474253342413,73.576174737008,73.52135244395274,73.42227394807364,73.12380205532736,73.43463453689091
35.1563,75.49731605789285,75.54767843224555,75.51256966442239,75.40508310755189,75.10406190312654,75.41630526675429
36.6211,77.34882260709199,77.35936428275376,77.3624710189599,77.23788126298007,76.90611194990984,77.24638275237704
38.0859,79.0358750911578,79.04438616435542,79.06182120475815,78.92320476988311,78.56305454978208,78.92965265734703
39.5508,80.59332018865265,80.58264705183767,80.62239905332355,80.47746939043967,80.10923229915403,80.48110560831284
41.0156,82.00434164183159,81.98201573597227,82.03966531140482,81.87873476707402,81.48040192001142,81.88179326018789
42.4805,83.27786856267481,83.23321068087199,83.3183782334373,83.13795395173055,82.6823371950247,83.13599243557682
43.9453,84.41452705278084,84.36789111084103,84.4696765069547,84.25497761951952,83.70262206649062,84.25064184141112
45.4102,85.42003692122749,85.32521925673208,85.46154201721664,85.2472851556976,84.67352463954938,85.23467204796937
46.875,86.22737912891563,86.14668863386407,86.27531038509922,86.07650323090716,85.56545227423845,86.06560613500227
48.3398,86.98190138180476,86.91588635748977,87.03905261349165,86.84191189045197,86.35102991145271,86.8327834319542
51.2695,88.1770266705491,88.08312811528398,88.23467639978439,88.02499822681916,87.53032720643732,88.01709601068646
52.7344,88.61230375682024,88.505623360798,88.66988975243082,88.45799543357346,87.97400890903864,88.45081516257964
54.1992,88.94173446687256,88.8214958503348,89.00302662173485,88.77589920036723,88.26536452771195,88.76917032256318
55.6641,89.20090512780116,89.08137088778031,89.26935128763903,89.03189561088563,88.4988186081489,89.0247912911376
58.5938,89.58518945719655,89.43017920956203,89.65036953748618,89.40001103426411,88.85959947441872,89.39381275258913
60.0586,89.69986100136208,89.51208340971306,89.75995297939768,89.49857507523166,88.94623547196475,89.49263048750744
62.9883,89.8286712564937,89.59950114159284,89.88307698669546,89.60528515040633,89.03458403527502,89.60038759380576
64.4531,89.85942819721856,89.65167339442198,89.93277566669876,89.63599296381886,89.03849815048775,89.63477965659196
67.3828,89.99313962993136,89.76328041326212,90.06973135017755,89.76382151252182,89.02114720556543,89.73758992794018
68.8477,89.96841621082959,89.72571676262288,90.03477441434137,89.74726470127702,89.08031152288049,89.7240748850483
71.7773,89.90391700953282,89.63442806874622,89.97079756832265,89.67009219679166,89.0346612826931,89.65505510961134
74.707,89.93022333398815,89.59689806422992,89.98601117385535,89.66327447113409,88.97292913835791,89.6444759544344
77.6367,89.94875596561941,89.53053002597159,89.97548610221168,89.66469198440748,88.99223039020674,89.63673179616845
79.1016,89.94196882114039,89.52294353115771,89.96657251660623,89.67163688187173,89.06696242365555,89.64625486370916
82.0313,89.93087017857157,89.55357914293104,89.98920652078766,89.66398496771083,89.09170466740152,89.65753465459048
84.9609,89.94306209127565,89.59036022557456,90.017992921001,89.67054554051364,89.09091554497402,89.67472509712607
87.8906,89.92618413972657,89.61421682165259,90.01943578858113,89.6617318400855,89.17107996070266,89.68851130158436
90.8203,90.0376300808814,89.66489852456488,90.12896760163028,89.72315824910268,89.17732368681301,89.75915138960937
95.2148,90.06399171366456,89.61586275731531,90.15052147815524,89.70450539516246,89.03040340667545,89.73089947879879
98.1445,90.06224377323753,89.55835824194168,90.14119785408265,89.67234112305654,88.97881590758887,89.70215009750953
101.074,90.04296021347596,89.52614205614071,90.1345232247257,89.63142650673038,88.86959868406431,89.66376361403138
105.469,90.05227509853792,89.56713817576929,90.1659343802724,89.6368906808213,88.74564258319256,89.66153525774332
108.398,90.02545159409162,89.48434325131308,90.11033691598226,89.60444466747498,88.80630087049953,89.63058020215283
112.793,89.91073216052504,89.20298150349481,89.95155604071012,89.42487280528549,88.72640180768431,89.46716897294012
117.188,89.89336608187148,89.02948147044754,89.92292169621217,89.32730599099906,88.53648979909686,89.37349201466611
120.117,90.0128288780379,89.23900136355076,90.09013906970438,89.4851225954124,88.6905148940315,89.53382092141013
124.512,90.11441249839672,89.32152022707695,90.19650228812381,89.5625695282568,88.80990331161706,89.63111292570129
128.906,90.18325180375136,89.25595625281352,90.25070428896126,89.53549232947361,88.66438073594703,89.61790506381658
133.301,90.1874507512087,89.21147057443827,90.25037191510565,89.52708918112941,88.31434817136135,89.5545326773919
139.16,89.94745047684961,88.82856590335238,89.95658455775111,89.27051523079017,88.17036280174541,89.28722348906871
143.555,89.93975577333757,88.75669744631585,89.96464804665064,89.174046737512,87.98664595207404,89.2272511903007
147.949,90.05051161630251,88.95874346370985,90.12678514207909,89.35302785701569,88.32114219236084,89.41423662733116
153.809,89.86344382192328,88.73520719318941,89.93554481710024,89.1169565211118,87.83726594051623,89.16498280807674
159.668,89.62947119644275,88.51920204237531,89.71546922714985,88.87219947195312,87.56672400955085,88.93010082027806
165.527,89.52288352324281,88.2167344523579,89.62310135778552,88.44894057749131,87.05274222941281,88.67238891268451
171.387,90.09736653231715,89.06105407788304,90.27166531955012,89.35842792504872,87.70431634365954,89.39009097974929
177.246,90.05119548580822,88.78475647083096,90.15792029467573,89.152552500152,87.51279191987314,89.23403142618335
183.105,89.8813080590604,88.55539791323007,89.98710628241702,89.02401680612601,87.77266633990901,89.12181871364562
188.965,90.07872265619505,88.67901276816525,90.23727486999161,89.10207190815932,87.65207505718226,89.2508330326544
196.289,89.92589029420365,88.24435876413528,89.99124478104721,88.89538139699505,87.32636735155548,88.99192895815993
203.613,89.77592852056888,87.86128411494764,89.85613141277125,88.50505103739546,86.715436544822,88.69984941946278
210.938,90.25003456126207,88.3758473211087,90.34329886129817,88.98442969621892,86.35557197872254,89.08814161786694
218.262,90.12941093369962,88.18938511840601,90.1516787043594,89.12773410031105,86.83754056453537,89.05870594320095
225.586,89.92746836469522,87.7392149202091,89.92701547723955,88.71500269550214,86.98994773866107,88.81368854848563
232.91,90.0814447830092,87.77754474264412,90.13466842259656,88.79502593734236,86.47215150941364,88.86650249098699
241.699,90.0965673450164,87.6586820233378,90.1324127179279,88.86010395483655,85.72848099051271,88.78503400040886
250.488,89.83438189107275,87.2396356574948,89.88577974116058,88.44494072852623,86.00153039407385,88.52909116425806
259.277,90.5195982139253,88.05224473310184,90.60134094053268,89.24451420566712,85.45651533220656,89.14428453115572
268.066,90.11850808536245,87.73870424415074,90.14224855675671,89.17816888708282,86.99435046273982,89.01262455168465
276.855,89.72866726136101,86.75518789113562,89.63293927432639,88.15862924569652,85.37868983212242,88.23679632696073
287.109,89.79348702606417,87.21620407621396,90.01040984319026,88.59382189176772,84.97231357723854,88.47616445626741
297.363,90.05908570879964,87.3233807516493,90.20467953171752,89.05963743585136,84.9169940475715,88.71273790704578
307.617,89.57174644053781,86.11817518158182,89.52334614930457,88.59118480993645,85.85628941799516,88.22083917835634
319.336,89.36033406640271,86.27935247445615,89.4254201103913,88.30261764839551,84.75040384846585,87.97784545215104
329.59,89.51650261596671,86.02702212941747,89.59908842560178,88.1118986918734,85.27491627049083,88.0500765938507
341.309,89.80017537595764,85.3762207441426,89.63578518168941,88.1500461975948,83.97197817005895,87.95482648791341
353.027,90.2385648041101,85.16415050318665,90.03698914475177,88.55283210675616,83.76891782931715,88.25843194163477
366.211,89.64373277670589,82.76484357813641,89.03093016900236,88.0990572982868,84.57342494170348,87.5471737428101
379.395,89.99963242848082,82.40450809212302,89.0279736813956,88.33555359149791,83.92232295995534,87.6368451392304
392.578,89.47885640872371,81.30526846367002,88.45869877014567,87.63666837063435,84.4530373521325,87.1304572718909
405.762,89.66682609551711,80.36445990234472,89.04267512258099,87.54416541136052,84.20161103074436,87.27263437372578
420.41,89.68196952039422,81.59260058828647,89.02617270387168,87.8078324823271,83.41782962086532,87.31772248201784
435.059,89.40659564119473,81.32118809291424,89.05293890998638,87.2440259590783,83.16083280116331,87.07420603214825
451.172,89.34213039944406,81.74191397600872,88.7496054349561,87.18317850241294,83.01114381041934,86.95730949241306
465.82,88.83890973741639,81.61126236869721,88.03339654372344,87.01765129696021,83.52389545769059,86.57913533346198
483.398,89.53587289498667,82.666682247044,88.61668597595352,86.3706961006787,82.54565351848834,86.8555204278038
499.512,89.1954173625756,84.4557958848538,89.19336518517255,86.09618686107113,81.75720849717304,86.98493697412428
517.09,89.86063832936814,83.67297126857858,89.35746239862033,87.52191914529273,81.32925024018573,87.42702775033308
536.133,90.1101407969135,85.69461341492756,89.5450774209379,87.34281101086131,82.29258625820756,87.79480503261144
555.176,89.673544765316,83.74671762573804,89.03196908992217,86.44454102173682,82.96210643388144,87.16595992040715
574.219,90.36334178817765,83.09368792821299,89.8461494072659,86.94281857451034,82.81473938632816,87.6969618945464
594.727,90.0308034112581,83.54130981626479,89.78621544331145,87.29569582569715,82.94689400220649,87.6621900857083
615.234,89.73773226530534,83.91773093040652,89.71508695257855,85.9444558780556,82.41091601138541,87.31047037586252
637.207,88.84192549284735,83.26508313356649,88.30345525133662,85.7121107922702,79.79847693865658,86.27914506210028
659.18,88.27924111340295,83.01180173097322,88.11904431578778,84.63733569578956,79.37320815932686,85.79526113416266
682.617,88.51584006975918,79.63938051004074,89.92460638679967,86.55418289461238,81.43895761324274,86.77045990423561
707.52,88.3340687096081,75.60059798482203,89.38727250365679,87.03082705855044,79.51858843700188,86.39566150226152
732.422,88.76786142347878,75.06845838694821,89.53395165322777,86.6745414081015,79.95569252018863,86.52699137421514
757.324,90.40616315001913,77.32525266319237,89.01124705303047,85.65208233161164,80.82202359077456,86.87838439975702
785.156,91.26856401489655,82.55062156224758,88.36729612121422,85.45789925574812,78.69599652215626,87.21190556468876
811.523,90.9174151352538,82.85829454324359,87.4392581269509,85.24405297105291,76.88425791408072,86.75076256467797
840.82,90.49052178236518,83.4538827128033,87.8192909127679,83.92733886509112,79.45357605033892,86.59254336693999
870.117,90.52641807116412,82.53639661430968,88.53770969911425,84.91831509605291,76.8819996102343,86.77865893251409
900.879,90.1549335108944,82.53471327751765,88.32662048317997,85.28461746582644,78.09525203442655,86.6237143158387
933.105,89.63580498441375,83.06176036272586,88.17915936370838,84.1876575381673,77.69289758921822,86.23361754982484
965.332,89.23935809822484,84.09557730945639,88.09477936178475,84.41102605526348,76.71205814981533,86.15743687434326
1000.49,88.7932897891556,84.74137771349237,88.47802849703919,84.02054378960656,77.31062595376345,86.1614774539357
1035.64,88.62442316360242,84.01531548921555,88.65533119812484,85.03475610625165,77.08486921911255,86.1996907991983
1072.27,88.43440443485828,84.62498426039569,88.96093588548382,84.78431565302402,77.62292050497737,86.30096349107208
1108.89,89.06909615961058,85.96969777311043,89.56708598062825,85.34213532620981,76.89538180419089,86.9872754631456
1148.44,88.65185832533194,86.76550563671867,89.37754828835703,84.8089932256054,77.40881663054964,86.87018794542209
1189.45,88.39193258038115,86.53930783578684,88.91817804947902,84.86656038556671,76.54776203477999,86.57556142363089
1230.47,88.86236287639677,86.50479053741061,88.93742657344248,84.73942759389399,76.36988834371898,86.70404233747706
1274.41,88.32247300101415,86.54944242146097,88.8496392130003,84.55719927320006,75.81908638470233,86.4786148755
1319.82,88.00403769122332,85.29842839683701,89.20536535340028,84.54438312667095,76.04263144085702,86.2900050389088
1366.7,88.0849527931219,86.7004129936307,89.8246286938809,84.96633015094147,76.66426647725716,86.86957893217294
1413.57,87.81242745215934,88.13998486620602,89.67213861204722,85.13824665359219,75.88122446502491,87.07296134870411
1463.38,88.4771563465003,88.56250449271367,89.39051944870474,84.90038339349937,75.79755800463246,87.22396791617948
1516.11,88.66590170437317,88.17081869160603,89.60294547786698,85.05975336855161,74.96605848559028,87.25322907408031
1568.85,88.31874509563393,86.30276353534876,90.30718006808281,85.03781416505328,73.05990734045432,87.02150169147403
1624.51,87.46761208983239,83.78508080363102,90.51186667630917,84.55115686611222,73.20144737830775,86.49021199245902
1681.64,86.24108474824972,83.67465129229228,89.55935011495146,83.21958321585632,71.65478557864837,85.51917302165329
1741.7,85.60528578199275,82.50201863299331,87.17633079343005,80.8309670506556,68.58054202975944,83.77191326020709
1803.22,83.14763516845059,79.69618042988844,87.0933938162547,79.6448610326027,68.30320346165436,82.6038848663801
1866.21,81.47544725627962,77.10683172196939,86.87902451499463,80.08579373629966,69.80200672636093,81.99092681573273
1932.13,81.08472382549672,77.18428604709355,86.14253974241709,79.44265169095367,67.65970944254828,81.37255366689726
1999.51,81.38798196133496,74.39100165447499,85.68277116986442,78.01271659742787,64.38573554586566,80.80072398983879
2069.82,79.67576404474438,75.05190711682516,86.3237800099188,78.33393994775302,63.491265540861605,80.96286756963534
2143.07,80.04303057309066,73.0320811103856,86.76787795005657,77.51184677438859,63.95259241812397,81.1731881810946
2219.24,80.36478184871683,72.51149414949064,87.04411255554363,78.09550500577815,63.58025647018357,81.45926451138945
2296.88,79.98205614582632,77.10920787679203,87.19867662841969,77.61976065626799,66.17811373801365,81.68841714943628
2378.91,80.07080906765253,79.48101471662314,88.07602207104907,78.52296079725545,70.19225073566369,82.62024618422213
2462.4,82.37003783460945,81.99134036673073,87.81275797366193,79.44342347066193,70.9050305447389,83.16129645921446
2548.83,83.32540637147717,83.28812786887269,87.6763778132929,80.20613147618784,71.92298244701959,83.55774696266153
2639.65,84.10114108836089,84.13972449258331,87.99717176364751,82.06194127332476,73.3520922899606,84.24704866785794
2731.93,85.57555728143993,85.01235753608785,88.31476132622555,83.38256111476214,74.13324414518421,85.0524630936741
2828.61,86.19607853031165,85.25794245299743,88.57536716769042,84.35118218329033,74.66155045104162,85.49985226720855
2928.22,86.99798931663581,86.2358520564258,88.70460058178632,85.10122530827084,74.75409241549748,86.05723645831216
3030.76,87.38412144916114,86.50206613128933,89.11678351828405,85.90150615522919,75.0324238039724,86.49616987430066
3137.7,87.61908686095444,87.65570979382878,88.72735945167715,86.33121355162523,75.47683191960044,86.76105793565932
3249.02,88.24101419116053,87.80307820853616,89.76405116426511,86.7162935225947,75.35827736311523,87.35743371706681
3363.28,88.65298410487006,88.5543318732363,89.63919938828975,87.51476916437576,77.10471009984445,87.76129248415535
3481.93,89.0035846941837,88.94420809461448,89.74382201546877,87.30205765394666,76.99260650752602,87.93680317945083
3604.98,89.50687170194402,89.30531773282426,89.25042254427638,88.16891159765038,77.4875093157841,88.19329840668607
3732.42,89.62626353692684,89.24161950381759,89.66035083272848,88.53219211722973,77.81169667616223,88.39568567840863
3864.26,90.05684668139835,89.29451723910864,89.28663863049982,88.81360031224169,77.87653849501008,88.49302353180776
4000.49,89.95549604319078,89.1770813720236,89.68750993800705,88.74625314067814,77.72199276433938,88.52015667230981
4141.11,90.00997559589791,89.33906565792378,89.84579273991957,88.94748963932733,77.81501329918981,88.65872380447487
4287.6,89.89727176000048,89.1165402553479,89.3839712156101,88.26958110115635,77.68234596449867,88.3127071271347
4438.48,90.02749028374487,89.59416562425926,89.9589552806792,88.72104862403253,77.59227638512044,88.70413689770689
4595.21,90.38048443839264,89.69104468507939,89.70295454224764,88.11408765935342,77.54431227304107,88.64670795177202
4756.35,90.43455019709626,89.87637567049107,90.29900546923014,88.69860986195482,78.29239672323794,88.98397006584761
4924.8,90.25307989885543,89.90375990945924,89.92426619334188,88.7925560991154,77.51270673962433,88.8473636016025
5097.66,90.19869588631273,90.0416256800236,90.08361279980289,89.23185759246614,77.7986204311436,89.00258776910322
5277.83,90.2643704029641,89.8833666252282,90.15960417000957,89.80266482907788,77.31715640635863,89.12030057122044
5463.87,90.21369438230849,89.60449998956541,90.21843500495352,90.05856716680367,77.07656157755858,89.11643514903399
5657.23,90.50394760240707,89.18773819994584,90.18232324762627,89.9142771363109,77.15662072507013,89.06092169783186
5856.45,90.21711870951772,88.97418666129725,89.8728235315665,90.13694008841783,77.48577893204791,88.92106917662603
6062.99,89.70514694863294,88.65756232026592,90.11376116501395,89.9969361000528,76.49964393428095,88.7378112951834
6276.86,89.49966375811549,88.63593998461526,90.46782205097033,89.07902650249372,75.56214827291109,88.54947107839587
6498.05,88.79577213894149,88.04268913549878,90.60956321679816,88.21496043468224,75.65895447075896,88.12310458577579
6726.56,88.01469973766366,87.34011874485856,90.5931629082359,87.4852175118321,75.22397320332978,87.65696368748401
6963.87,87.92785178051122,86.50347609521121,89.8564239288053,86.74257717628124,74.69169852313144,87.0533045679611
7209.96,87.35203974016832,86.01321016469805,89.14110787210042,86.07479416301034,73.20873684112367,86.41344024666219
7464.84,86.47165357130271,85.29970760367165,88.81512116935602,85.42458850394834,71.45458410973875,85.81268234309047
7727.05,87.20096535036922,84.81329751562207,88.78376358544728,85.09573401043313,71.25621118217063,85.84381552273024
7999.51,86.58781757809851,83.87622026200769,88.38819874408992,84.84611413560525,71.3168633773718,85.33683839575974
8282.23,86.29841675958588,82.78822390147502,88.39147791147184,84.34963464913437,69.79815668772441,85.02077896067217
8573.73,86.06366436163935,81.70307696201554,88.69469844844389,83.72658756868339,69.27452000588774,84.87628032386995
8876.95,86.43808222039345,81.27638904605195,89.01040278484739,83.56175403147456,70.11959630105402,85.07347325945526
9188.96,86.95146243600385,81.85009001064948,89.45492265089067,83.74523136773871,69.57047803766093,85.50647159172537
9514.16,87.6776760673917,83.13524864940715,89.90786898255388,83.96302221715466,68.93198371589801,86.08001696478374
