Freq "Total Early Reflection"
20.5078 53.65926810673372
21.9727 55.748801941790845
23.4375 59.978727884327526
24.9023 58.24296920472244
26.3672 61.48356874920913
27.832 64.04571358125924
29.2969 66.68623073533942
30.7617 69.1562247518877
32.2266 71.33248103970641
33.6914 73.43463453689091
35.1563 75.41630526675429
36.6211 77.24638275237704
38.0859 78.92965265734703
39.5508 80.48110560831284
41.0156 81.88179326018789
42.4805 83.13599243557682
43.9453 84.25064184141112
45.4102 85.23467204796937
46.875 86.06560613500227
48.3398 86.8327834319542
51.2695 88.01709601068646
52.7344 88.45081516257964
54.1992 88.76917032256318
55.6641 89.0247912911376
58.5938 89.39381275258913
60.0586 89.49263048750744
62.9883 89.60038759380576
64.4531 89.63477965659196
67.3828 89.73758992794018
68.8477 89.7240748850483
71.7773 89.65505510961134
74.707 89.6444759544344
77.6367 89.63673179616845
79.1016 89.64625486370916
82.0313 89.65753465459048
84.9609 89.67472509712607
87.8906 89.68851130158436
90.8203 89.75915138960937
95.2148 89.73089947879879
98.1445 89.70215009750953
101.074 89.66376361403138
105.469 89.66153525774332
108.398 89.63058020215283
112.793 89.46716897294012
117.188 89.37349201466611
120.117 89.53382092141013
124.512 89.63111292570129
128.906 89.61790506381658
133.301 89.5545326773919
139.16 89.28722348906871
143.555 89.2272511903007
147.949 89.41423662733116
153.809 89.16498280807674
159.668 88.93010082027806
165.527 88.67238891268451
171.387 89.39009097974929
177.246 89.23403142618335
183.105 89.12181871364562
188.965 89.2508330326544
196.289 88.99192895815993
203.613 88.69984941946278
210.938 89.08814161786694
218.262 89.05870594320095
225.586 88.81368854848563
232.91 88.86650249098699
241.699 88.78503400040886
250.488 88.52909116425806
259.277 89.14428453115572
268.066 89.01262455168465
276.855 88.23679632696073
287.109 88.47616445626741
297.363 88.71273790704578
307.617 88.22083917835634
319.336 87.97784545215104
329.59 88.0500765938507
341.309 87.95482648791341
353.027 88.25843194163477
366.211 87.5471737428101
379.395 87.6368451392304
392.578 87.1304572718909
405.762 87.27263437372578
420.41 87.31772248201784
435.059 87.07420603214825
451.172 86.95730949241306
465.82 86.57913533346198
483.398 86.8555204278038
499.512 86.98493697412428
517.09 87.42702775033308
536.133 87.79480503261144
555.176 87.16595992040715
574.219 87.6969618945464
594.727 87.6621900857083
615.234 87.31047037586252
637.207 86.27914506210028
659.18 85.79526113416266
682.617 86.77045990423561
707.52 86.39566150226152
732.422 86.52699137421514
757.324 86.87838439975702
785.156 87.21190556468876
811.523 86.75076256467797
840.82 86.59254336693999
870.117 86.77865893251409
900.879 86.6237143158387
933.105 86.23361754982484
965.332 86.15743687434326
1000.49 86.1614774539357
1035.64 86.1996907991983
1072.27 86.30096349107208
1108.89 86.9872754631456
1148.44 86.87018794542209
1189.45 86.57556142363089
1230.47 86.70404233747706
1274.41 86.4786148755
1319.82 86.2900050389088
1366.7 86.86957893217294
1413.57 87.07296134870411
1463.38 87.22396791617948
1516.11 87.25322907408031
1568.85 87.02150169147403
1624.51 86.49021199245902
1681.64 85.51917302165329
1741.7 83.77191326020709
1803.22 82.6038848663801
1866.21 81.99092681573273
1932.13 81.37255366689726
1999.51 80.80072398983879
2069.82 80.96286756963534
2143.07 81.1731881810946
2219.24 81.45926451138945
2296.88 81.68841714943628
2378.91 82.62024618422213
2462.4 83.16129645921446
2548.83 83.55774696266153
2639.65 84.24704866785794
2731.93 85.0524630936741
2828.61 85.49985226720855
2928.22 86.05723645831216
3030.76 86.49616987430066
3137.7 86.76105793565932
3249.02 87.35743371706681
3363.28 87.76129248415535
3481.93 87.93680317945083
3604.98 88.19329840668607
3732.42 88.39568567840863
3864.26 88.49302353180776
4000.49 88.52015667230981
4141.11 88.65872380447487
4287.6 88.3127071271347
4438.48 88.70413689770689
4595.21 88.64670795177202
4756.35 88.98397006584761
4924.8 88.8473636016025
5097.66 89.00258776910322
5277.83 89.12030057122044
5463.87 89.11643514903399
5657.23 89.06092169783186
5856.45 88.92106917662603
6062.99 88.7378112951834
6276.86 88.54947107839587
6498.05 88.12310458577579
6726.56 87.65696368748401
6963.87 87.0533045679611
7209.96 86.41344024666219
7464.84 85.81268234309047
7727.05 85.84381552273024
7999.51 85.33683839575974
8282.23 85.02077896067217
8573.73 84.87628032386995
8876.95 85.07347325945526
9188.96 85.50647159172537
9514.16 86.08001696478374
9849.61 86.88852976899547
10196.8 87.12367616287648
10555.7 86.96978729052542
10927.7 86.58982675341208
11313.0 86.39507193612177
11712.9 86.28888813303755
12126.0 86.08772218679763
12553.7 85.87069167064438
12996.1 85.5014952026087
13454.6 85.25631335785529
13929.2 85.04253084375883
14419.9 84.62899552282785
14928.2 84.13710963185544
15455.6 83.51490384120649
16000.5 82.99213221851247
16564.5 82.6036882991064
17148.9 82.10397424675051
17752.4 81.49919016475474
18379.4 80.95205541187237
19026.9 80.5358574925449
19697.8 80.40441989168158
19999.5 80.40092023682078
