Freq "Estimated In-Room Response"
27.832 64.1988298011382
29.2969 66.76182607366715
30.7617 69.339970010549
32.2266 71.98287531924677
33.6914 74.18933529069268
35.1562 76.09817126073287
36.6211 77.97415928801887
38.0859 80.22044990207955
39.5508 81.79585805365812
41.0156 83.56583278385939
42.4805 85.13524608292893
43.9453 86.71773721915243
45.4102 88.1480047325058
46.875 89.58752930475353
48.3398 90.86106229171504
51.2695 92.8025797096897
52.7344 93.62701762169165
54.1992 94.27736604619182
55.6641 94.79709914043991
58.5938 95.49002363497853
60.0586 95.7257607623424
62.9883 96.03836847736852
64.4531 96.14989259119287
67.3828 96.36033058484438
68.8477 96.4082652571179
71.7773 96.49517907342354
74.707 96.55085741141039
77.6367 96.6143248067864
79.1016 96.63539838975333
82.0312 96.68182009990636
84.9609 96.73112610427903
87.8906 96.75129111467183
90.8203 96.81900236134209
95.2148 96.85270172843137
98.1445 96.8542310071935
101.074 96.88697670552216
105.469 96.9145036815405
108.398 96.86116317766042
112.793 96.82791897008062
117.188 96.83358574825941
120.117 96.90475000926537
124.512 96.93677942089825
128.906 96.9349447316207
133.301 96.94772334855224
139.16 96.78036121008418
143.555 96.66250149814557
147.949 96.71126780397796
153.809 96.57198908310787
159.668 96.30114597314983
165.527 96.0980040233009
171.387 96.49393994642367
177.246 96.3730978221522
183.105 96.50920538515425
188.965 96.35183982804395
196.289 96.38043119620414
203.613 96.13921831450307
210.938 96.30539236376964
218.262 96.34390593515056
225.586 96.10320145247613
232.91 95.9813115296544
241.699 96.01642585697178
250.488 95.82296066568712
259.277 96.14818374021337
268.066 96.43411289300349
276.855 95.865561033167
287.109 95.91765998345365
297.363 96.30047425867834
307.617 96.09695552054973
319.336 95.66365351847789
329.59 95.60132116427151
341.309 95.89123728787641
353.027 95.81231764860445
366.211 95.9180723089308
379.395 95.83222924455632
392.578 95.60793162258295
405.762 95.8033060777134
420.41 95.83426538472858
435.059 96.28475634428668
451.172 96.02093721867296
465.82 96.40833629968623
483.398 96.52844630570439
499.512 96.57012888847053
517.09 96.1696194870145
536.133 95.90824861206701
555.176 95.83088793928235
574.219 95.68815892262666
594.727 95.65381709378114
615.234 95.39580243709071
637.207 95.4039435509076
659.18 94.79530439147429
682.617 94.22350314254913
707.52 94.37970446560311
732.422 93.49503762280708
757.324 94.19421189155973
785.156 93.90361176738276
811.523 93.06311939002202
840.82 93.49276469383899
870.117 94.02686626380475
900.879 94.3416237882651
933.105 94.57334028133869
965.332 94.60700505673549
1000.49 94.59912982907355
1035.64 94.59670560899704
1072.27 94.84250699390856
1108.89 94.6096794243482
1148.44 94.72258771115594
1189.45 94.40526990951909
1230.47 93.94102544991202
1274.41 93.78189186076122
1319.82 93.57713844498366
1366.7 93.35552736342972
1413.57 93.8178013241629
1463.38 93.6359540142268
1516.11 92.98728069819103
1568.85 92.89574322246825
1624.51 92.9477291389043
1681.64 92.76256977479993
1741.7 92.04150359991415
1803.22 92.16342176360764
1866.21 92.57306222992196
1932.13 92.28662527081923
1999.51 91.77242952776734
2069.82 92.31226458668161
2143.07 92.6209765043221
2219.24 91.9367552039135
2296.88 92.25009203786409
2378.91 93.04701028152677
2462.4 92.89207473414012
2548.83 92.78145475496913
2639.65 93.33864079990164
2731.93 93.44391087269055
2828.61 93.36716443522636
2928.22 93.40289174322506
3030.76 93.6561506030512
3137.7 93.50691342226511
3249.02 93.78303999959667
3363.28 93.69297107252379
3481.93 94.19517091724452
3604.98 93.8809072581678
3732.42 94.25391314298122
3864.26 93.87022452159063
4000.49 94.09376615921626
4141.11 93.7503498046328
4287.6 93.7441380311248
4438.48 93.60629856198989
4595.21 93.53911858820737
4756.35 93.6065666956169
4924.8 93.33388547211793
5097.66 93.42007544382642
5277.83 93.21373831813452
5463.87 93.18072609209702
5657.23 93.20752228876472
5856.45 93.00622051645836
6062.99 93.02879846928022
6276.86 92.8752082702091
6498.05 92.83713252851994
6726.56 93.00412656458698
6963.87 93.04253619002306
7209.96 93.09577544774568
7464.84 93.13090488247869
7727.05 93.01724982285516
7999.51 92.93802661388278
8282.23 92.93632389357482
8573.73 93.07464218196098
8876.95 93.26931211374935
9188.96 93.41739191936743
9514.16 93.51581810157487
9849.61 93.7204819490472
10196.8 93.94972420076142
10555.7 93.8423759728919
10927.7 93.53959600400319
11313.0 93.52394662413761
11712.9 93.63719064304131
12126.0 93.70407776653016
12553.7 93.76789471190469
12996.1 94.09906577085255
13454.6 94.38197769815605
13929.2 94.84424563884568
14419.9 94.76574567986637
14928.2 94.5565972801008
15455.6 93.99644228820637
16000.5 93.0611915572463
16564.5 92.22140232655723
17148.9 91.4042305758218
17752.4 90.39547172585023
18379.4 89.8824011586226
19026.9 89.53564210273404
19697.8 88.53656708060862
19999.5 88.11847875559235
