Freq "Early Reflections DI"
23.6 50.66435143895444
24.3 50.67009038183127
25.0 50.67539893987521
25.8 50.68103872225798
26.5 50.68556330545472
27.2 50.689782612443594
28.0 50.694194281895136
29.0 50.69918572636658
30.0 50.70510076914876
30.7 50.70934437067173
31.5 50.713900382670076
32.5 50.71917269035967
33.5 50.724053380570226
34.5 50.72850481054746
35.5 50.73293144459984
36.5 50.73762482777141
37.5 50.74199281447787
38.7 50.746922053841615
40.0 50.75181447833508
41.2 50.75603878831541
42.5 50.76066276554698
43.7 50.76461753190185
45.0 50.7686898798175
46.2 50.7721590652845
47.5 50.77572395721846
48.7 50.778818004457136
50.0 50.781997324018846
51.5 50.785527396852984
53.0 50.78876236124174
54.5 50.791612345003315
56.0 50.79434655540865
58.0 50.79784639235842
60.0 50.80074601001485
61.5 50.802721091672126
63.0 50.80465903166527
65.0 50.806986753064464
67.0 50.80875710022286
69.0 50.810540375068754
71.0 50.812017002355816
73.0 50.813071044843554
75.0 50.81416421434477
77.5 50.81504655252802
80.0 50.815581656895105
82.5 50.81609164966467
85.0 50.815894621130795
87.5 50.815908682277396
90.0 50.815231571626626
92.5 50.81459990324929
95.0 50.81370744080827
97.5 50.81254090869324
100.0 50.8114153117958
103.0 50.80949225173664
106.0 50.80770946859225
109.0 50.80546920916248
112.0 50.80332376588812
115.0 50.800884549269384
118.0 50.79852299785121
122.0 50.79524387446172
125.0 50.79276340409112
128.0 50.790374592157235
132.0 50.78724219377894
136.0 50.784296936648204
140.0 50.78158664232453
145.0 50.778633087458275
150.0 50.77625748228243
155.0 50.774442691785225
160.0 50.77324477664588
165.0 50.772719340125846
170.0 50.77286549441111
175.0 50.773736385479936
180.0 50.775286281879445
185.0 50.77747681603849
190.0 50.7802293069209
195.0 50.78354527450304
200.0 50.7873446646076
206.0 50.792673609834424
212.0 50.79860985769572
218.0 50.805136169411725
224.0 50.81218601981841
230.0 50.81972221270429
236.0 50.82768438296098
243.0 50.83746091428495
250.0 50.847676298555086
258.0 50.8597413556263
265.0 50.87075579662327
272.0 50.88205448271887
280.0 50.89519648762227
290.0 50.911987515510745
300.0 50.92907101435871
307.0 50.94113257168736
315.0 50.954991171809766
325.0 50.97237059516725
335.0 50.989623788546126
345.0 51.00679441702056
355.0 51.02375875749158
365.0 51.04044138298376
375.0 51.05678851707057
387.0 51.07581327851506
400.0 51.095658719530945
412.0 51.11322325432057
425.0 51.131301825388434
437.0 51.147242215890714
450.0 51.16363428351403
462.0 51.1780679496528
475.0 51.19305489979142
487.0 51.20641181902842
500.0 51.22049512135838
515.0 51.23637869348896
530.0 51.25210158189549
545.0 51.26763570647121
560.0 51.283102867992696
580.0 51.30341564725519
600.0 51.32331813811639
615.0 51.33801906046966
630.0 51.35282457564962
650.0 51.373423565757875
670.0 51.39669437367415
690.0 51.42480823988798
710.0 51.460086662539126
730.0 51.504774288466265
750.0 51.5599401258809
775.0 51.64397984957999
800.0 51.74020697530358
825.0 51.839166666520185
850.0 51.92746252937158
875.0 51.99373582478185
900.0 52.0330113944933
925.0 52.04931673982925
950.0 52.052330666115566
975.0 52.052143885579056
1000.0 52.0554693728603
1030.0 52.06720799176037
1060.0 52.08504040606347
1090.0 52.1026324812331
1120.0 52.112110251732744
1150.0 52.107050197660925
1180.0 52.0836454541334
1220.0 52.02011689394055
1250.0 51.94452638815834
1280.0 51.84306784704411
1320.0 51.69187704051079
1360.0 51.640860813415145
1400.0 51.832448844416746
1450.0 52.25822767867844
1500.0 52.609279929811535
1550.0 52.821872058296904
1600.0 52.91335794524747
1650.0 52.925781457767016
1700.0 52.94808251856688
1750.0 53.057172758682356
1800.0 53.251358798359604
1850.0 53.462885400532
1900.0 53.60616907329481
1950.0 53.64122379132613
2000.0 53.589959445716545
2060.0 53.46167568929218
2120.0 53.27132057847537
2180.0 53.05227475678569
2240.0 52.90592374408982
2300.0 52.84200190518371
2360.0 52.746751705851025
2430.0 52.539045617324376
2500.0 52.38586452871786
2580.0 52.28447613274331
2650.0 52.166156355379684
2720.0 52.17354629303418
2800.0 52.39346243425443
2900.0 52.55342105615965
3000.0 52.63215644930685
3070.0 52.7487925288371
3150.0 52.74231028453028
3250.0 52.61804147912004
3350.0 52.63898524108586
3450.0 52.569344555505296
3550.0 52.506289823136655
3650.0 52.3858637406816
3750.0 52.26344320865849
3870.0 52.12416065560808
4000.0 52.04639635550737
4120.0 51.899620448123244
4250.0 51.91430584488977
4370.0 51.86934873521788
4500.0 51.82065957546553
4620.0 51.56460855993264
4750.0 51.304836593172055
4870.0 51.07178089153929
5000.0 50.8291597765637
5150.0 50.40869224251132
5300.0 50.22219784810842
5450.0 50.09624793185749
5600.0 50.089263143145146
5800.0 50.51556601220284
6000.0 50.71593030120356
6150.0 50.77237594875504
6300.0 51.2781999814504
6500.0 51.689880261842475
6700.0 51.84250399068979
6900.0 52.142273941327005
7100.0 52.59423802557215
7300.0 52.88466046303935
7500.0 53.106673029905224
7750.0 53.46284084978727
8000.0 53.713350551439774
8250.0 53.77358190417401
8500.0 53.797532601545484
8750.0 53.872012537976886
9000.0 53.903640877948064
9250.0 53.90198180401694
9500.0 53.82592968774979
9750.0 53.67324835876815
10000.0 53.674260808428556
10300.0 53.871533294329495
10600.0 53.91490467275193
10900.0 54.044191279775816
11200.0 54.088771587212236
11500.0 54.06897292908293
11800.0 54.00001547307454
12200.0 54.11128083810141
12500.0 54.1092743276903
12800.0 54.05236319910341
13200.0 54.00876702088439
13600.0 53.71003953022951
14000.0 53.37019385696003
14500.0 53.35811613878943
15000.0 53.6011781808418
15500.0 53.81543587407586
16000.0 54.16349930188218
16500.0 54.608517313668685
17000.0 54.86934502544253
17500.0 54.8596404280253
18000.0 54.83271173711073
18500.0 54.9638547598195
19000.0 55.163157189902364
19500.0 55.31696239716628
