Freq "Sound Power"
23.6 71.00146654639013
24.3 71.09824540800392
25.0 71.19292633338549
25.8 71.29869363181209
26.5 71.38921079422124
27.2 71.47792948109543
28.0 71.57722061638017
29.0 71.69836435051499
30.0 71.83143833423867
30.7 71.92692389620373
31.5 72.03395750727884
32.5 72.16472194893936
33.5 72.29232330501921
34.5 72.41691978355743
35.5 72.54367754618261
36.5 72.6769847499504
37.5 72.80728828886302
38.7 72.959868685797
40.0 73.12078429571659
41.2 73.26732633973646
42.5 73.4329060969404
43.7 73.58190684189731
45.0 73.73938449183319
46.2 73.88129987731205
47.5 74.03586255835097
48.7 74.17958626566053
50.0 74.33178756609593
51.5 74.50308871579702
53.0 74.67139339528083
54.5 74.84182476107765
56.0 75.00805486491691
58.0 75.2235182128889
60.0 75.43807580557555
61.5 75.59653687242803
63.0 75.7514766923801
65.0 75.95480057689235
67.0 76.15748407436813
69.0 76.35461360166703
71.0 76.54878112770206
73.0 76.74218301053824
75.0 76.93068351202493
77.5 77.1641821285867
80.0 77.39450623720644
82.5 77.61976018965903
85.0 77.84563110094399
87.5 78.06526856913516
90.0 78.28681206993454
92.5 78.50398454820655
95.0 78.72059614084185
97.5 78.93670832172553
100.0 79.14925293193077
103.0 79.40824426184655
106.0 79.66243231629139
109.0 79.92060781990078
112.0 80.17505731378193
115.0 80.43349121122475
118.0 80.68922887458513
122.0 81.03373582240351
125.0 81.29383044563724
128.0 81.55257763338405
132.0 81.90203742359296
136.0 82.25029100355516
140.0 82.59998627986347
145.0 83.04027797783499
150.0 83.4804244079917
155.0 83.91967084077764
160.0 84.35715845193664
165.0 84.79200134215762
170.0 85.22335724018302
175.0 85.6515395456567
180.0 86.07410975940867
185.0 86.4901639265819
190.0 86.8990947826275
195.0 87.30032932563502
200.0 87.69340111803535
206.0 88.15362712146018
212.0 88.60053063999614
218.0 89.03354561809357
224.0 89.4522733830574
230.0 89.85640682674162
236.0 90.24577605471279
243.0 90.68114954418013
250.0 91.0964934434677
258.0 91.54708576763882
265.0 91.91901026850766
272.0 92.27160641961984
280.0 92.65162230569267
290.0 93.09163684706596
300.0 93.49542954492841
307.0 93.75635004889318
315.0 94.03454079260345
325.0 94.35203979047219
335.0 94.63870520885044
345.0 94.89520612557513
355.0 95.12283527066997
365.0 95.324469803017
375.0 95.50166801189178
387.0 95.68259404702842
400.0 95.84349369571626
412.0 95.96312926429783
425.0 96.06413879363748
437.0 96.13381893291107
450.0 96.18678652812568
462.0 96.21720412772774
475.0 96.23312497037287
487.0 96.23434543280923
500.0 96.22380207722095
515.0 96.20017287993328
530.0 96.16750583125099
545.0 96.12991763577183
560.0 96.09020670489373
580.0 96.03851188658649
600.0 95.99103790048235
615.0 95.95830564155834
630.0 95.92649588351074
650.0 95.88126932980336
670.0 95.82485907791181
690.0 95.7485276799425
710.0 95.64357867683404
730.0 95.50397501282973
750.0 95.3291277912904
775.0 95.06674477199346
800.0 94.7797733777362
825.0 94.50694330119738
850.0 94.29660617029087
875.0 94.18453156820976
900.0 94.18431957574994
925.0 94.27799519483615
950.0 94.42542727954225
975.0 94.58014135025563
1000.0 94.70506582609025
1030.0 94.78588544276457
1060.0 94.78282448434948
1090.0 94.70594505763138
1120.0 94.57112721625313
1150.0 94.38648148258224
1180.0 94.14385762402874
1220.0 93.69304124919259
1250.0 93.23472985345063
1280.0 92.68428071083717
1320.0 91.92918764887713
1360.0 91.44298689598438
1400.0 91.48619222011406
1450.0 92.06674502883595
1500.0 92.60133020781828
1550.0 92.75728273459102
1600.0 92.6388296151827
1650.0 92.54730291319592
1700.0 92.67723687997979
1750.0 92.9643695708814
1800.0 93.27573673012546
1850.0 93.59265760314699
1900.0 93.95658537621726
1950.0 94.33594473846833
2000.0 94.6192945017417
2060.0 94.76429560588377
2120.0 94.89969681096264
2180.0 95.27142205457946
2240.0 95.68829717567479
2300.0 95.86836214621786
2360.0 95.9920337823936
2430.0 96.40958160586777
2500.0 96.66017119287201
2580.0 96.4376969502292
2650.0 96.49253205328115
2720.0 96.66277750290212
2800.0 96.57685122012266
2900.0 97.15738702729092
3000.0 97.57250098452381
3070.0 97.61537844730334
3150.0 97.9171761455708
3250.0 98.11143418204881
3350.0 98.07189800522524
3450.0 98.53318406002944
3550.0 98.83202924994846
3650.0 99.44045153343515
3750.0 100.21084087601024
3870.0 100.54434342920257
4000.0 100.82129893427977
4120.0 100.33749798568458
4250.0 99.75469308942007
4370.0 98.90055518037062
4500.0 98.41667624927744
4620.0 98.22634996730194
4750.0 97.98048498741838
4870.0 97.43680170771157
5000.0 96.76815486705812
5150.0 96.65457502947667
5300.0 96.81932701438134
5450.0 97.48283275283583
5600.0 97.54027197312229
5800.0 97.46484641330895
6000.0 97.47337878503558
6150.0 97.70664588763928
6300.0 97.30622159232925
6500.0 97.87816431464626
6700.0 99.07385188112889
6900.0 99.38594867613831
7100.0 98.68384377394518
7300.0 97.71328315382705
7500.0 97.45554473459808
7750.0 96.6709432754464
8000.0 95.30909599328018
8250.0 94.97685778301802
8500.0 95.57682866569037
8750.0 95.21524765075259
9000.0 94.80588563155058
9250.0 95.3615292563916
9500.0 95.5098996184085
9750.0 94.66010050598018
10000.0 94.85259146309618
10300.0 95.6729229362655
10600.0 95.29851001081894
10900.0 95.81700557034085
11200.0 96.23342158661957
11500.0 95.98569531432462
11800.0 96.5032319980307
12200.0 96.73025565167832
12500.0 96.5460697742801
12800.0 96.71924619148298
13200.0 96.90605033057633
13600.0 96.91660345684068
14000.0 97.6390121199775
14500.0 97.2301777539831
15000.0 97.92682055818415
15500.0 97.20443979903528
16000.0 96.7597893360925
16500.0 96.07665062407483
17000.0 95.53969480890902
17500.0 95.26969976882424
18000.0 95.21255505787524
18500.0 94.87636360249627
19000.0 93.87592487809357
19500.0 93.11540998538469
