Freq,Floor Bounce,Ceiling Bounce,Front Wall Bounce,Side Wall Bounce,Rear Wall Bounce,Total Early Reflection
22.4,22.423496850659774,22.69066301838194,20.395803247576083,23.638618583457003,25.24778044475363,23.163900886743136
23.0,24.21627783177746,23.8862351245524,21.98352973674983,25.533535587132747,27.627073007647596,25.06017736591366
23.6,26.02457672584501,25.373142111360835,23.79657923183123,27.245539102945145,29.465321151153773,26.81089568380986
24.0,28.401235726266407,28.01483523633479,26.732337772918726,29.1213944152384,30.314596045126848,28.67861686281887
25.0,30.546809835208137,30.384078393725503,29.04171421745457,30.870350691630392,31.27120611386212,30.484872375867667
25.8,32.373879612228166,32.32188682922214,30.935224002390754,32.484533578168936,32.292633518219645,32.11751222249893
26.5,34.07001488257478,34.091881454045534,32.6168700619329,33.9417530000203,33.408345340390156,33.660671717858605
27.2,36.338211298887416,36.25380974359447,34.64431831059915,35.58690433330452,35.13564052903814,35.639607377434515
28.0,38.33663575667185,38.148985148795504,36.42103369985483,36.97550809498861,36.69205987041144,37.385701590036746
29.0,40.03663575667187,39.74576719438471,37.963629818747194,38.176684264420174,38.04604181010379,38.88981715910228
30.0,41.668450838054326,41.374493510304376,39.56195781616054,39.578714808723475,39.56426110974593,40.45858566977654
30.7,43.46845083805434,43.23663575667186,41.605010573962176,41.3962650010846,41.52215206849064,42.34293457251448
31.5,45.10306957104251,44.935130591779824,43.43303623537665,43.02905101635611,43.36695750378351,44.06128500993526
32.5,46.60306957104251,46.50076749445563,45.42116013248685,44.86761665317488,45.3440430956083,45.80157401822285
33.5,48.436635756671876,48.23358982687998,48.03616988499198,48.12336188327848,48.066389686730105,48.181681620977656
34.5,50.070717324954074,49.86769521305294,49.98748929892042,50.36119474234184,50.102415548473175,50.080993301309576
35.5,51.6707173249541,51.400767494455636,51.64313939533781,52.081098018625084,51.71838328990154,51.70837400768298
36.5,53.20228461396022,53.00076749445563,53.1577566746453,53.44073299106128,53.038244199064565,53.1707546477154
37.5,54.70228461396019,54.46692185116052,54.600994414280706,54.64073299106127,54.24614206736132,54.534413688557805
38.7,56.134351408685006,55.96692185116049,56.04479812098768,55.96073004666428,55.54614206736133,55.935216786558385
40.0,57.900767494455636,57.70076749445562,57.82979499755905,57.64073299106127,57.18908292679734,57.65923502748416
41.2,59.43435140868502,59.23358982687998,59.37397253892371,59.140732991061284,58.64664442968568,59.174645313044465
42.5,60.868450838054315,60.633589826879984,60.91442746339746,60.740732991061265,60.15741684333342,60.671211029121395
43.7,62.23663575667187,61.93358982687998,62.40065786069425,62.240276728970485,61.61069588709674,62.09332987816913
45.0,63.56845083805433,63.26845083805432,63.85873795327733,63.68110854744812,62.97919324525927,63.48228916815157
46.2,65.16845083805433,64.83513059177983,65.45742449135815,65.04256842471028,64.32082822546673,64.98124198380287
47.5,66.60076749445562,66.27001488257477,66.88585448910239,66.30592246132954,65.60125069924128,66.35351791258584
48.7,67.93435140868503,67.60306957104251,68.11442746339745,67.60685289384959,66.88935949648379,67.64933412466814
50.0,69.16845083805434,68.83663575667187,69.22914153605899,68.76622028600211,68.07741940078272,68.83447584884436
51.5,70.36845083805433,70.00531806766472,70.40099441428072,69.94530504353962,69.30690554143985,70.02293416202933
53.0,71.40306957104252,71.03663575667186,71.55840584504062,71.00412263968752,70.44335745436683,71.10604082478696
54.5,72.36845083805433,72.00306957104252,72.61508314243883,71.98613288727981,71.36415292875897,72.0877156750636
56.0,73.20306957104252,72.83513059177983,73.48684446163055,72.86670626616768,72.19055889180552,72.93786562877997
58.0,74.03513059177983,73.67150800786938,74.30229476693694,73.6467367724147,72.95915399270051,73.7461578470888
60.0,74.8030695710425,74.40306957104252,75.10229476693692,74.40598456990743,73.7483803090373,74.51615323483205
61.5,75.60306957104252,75.20306957104252,75.82979499755905,75.20598456990743,74.60605281031859,75.30942053225523
63.0,76.30306957104251,75.87150800786937,76.52979499755904,75.90598456990742,75.37427239741645,76.01497516570318
65.0,76.90306957104252,76.47150800786939,77.18748929892043,76.54396845048444,76.04250905579411,76.64724217925716
67.0,77.30306957104253,76.90306957104252,77.60229476693692,76.98526041028543,76.60691124406068,77.09369360084368
69.0,77.70306957104252,77.30306957104253,78.00229476693693,77.38526041028544,77.055368548478,77.50239723995145
71.0,78.10306957104252,77.70306957104252,78.35907003611942,77.78526041028543,77.50367450685629,77.90151056634909
73.0,78.50306957104252,78.10306957104252,78.7874892989204,78.18526041028545,77.95085591419976,78.31647804309135
75.0,78.86845083805433,78.50306957104252,79.12979499755905,78.62342518384304,78.41454814165976,78.71573800543487
77.5,79.16845083805433,78.83513059177983,79.41508314243885,78.96395064819495,78.77658860207885,79.03820849177477
80.0,79.43513059177982,79.10306957104252,79.6861845050195,79.22342518384303,79.09797058315677,79.3150323013717
82.5,79.56845083805433,79.26845083805433,79.81508314243884,79.4023023206405,79.26635240030248,79.46913497890765
85.0,79.76845083805432,79.46845083805431,79.9861845050195,79.56395064819496,79.3658693871472,79.6362933526404
87.5,79.86845083805433,79.56845083805433,80.08618450501949,79.68338957194298,79.44973215988614,79.73709842571324
90.0,79.96845083805432,79.60306957104252,80.1716627539189,79.74396845048445,79.5291081284523,79.8097828826312
92.5,80.03513059177983,79.70306957104253,80.2716627539189,79.84396845048444,79.61899511165358,79.90099460877069
95.0,80.06845083805432,79.63821129888743,80.31508314243885,79.84396845048444,79.71625049174514,79.92347326032045
97.5,80.10306957104251,79.60690501035458,80.37166275391891,79.7875189417038,79.29869815492395,79.84973580427359
100.0,80.20306957104252,79.6760917544922,80.4716627539189,79.77221372104862,78.64460813836268,79.79688403816859
103.0,80.30306957104251,79.77609175449223,80.55742449135815,79.85444294255579,78.47274210589232,79.84935361097729
106.0,80.50306957104253,79.9760917544922,80.72880715674529,80.09117509502738,78.81545018994578,80.07110398876699
109.0,80.67150800786939,80.14044167945491,80.9,80.38751894170377,79.36821910989642,80.32481355198189
112.0,80.80306957104253,80.30690501035458,81.02880715674529,80.6252366727071,79.94900198536686,80.55898973973875
115.0,80.87150800786937,80.30690501035458,81.2431393953378,80.84396845048444,80.59031031087387,80.78236186314898
118.0,80.90690501035459,80.24283030471975,81.35840584504064,80.76537624439828,80.81064656612875,80.83136443832343
122.0,81.11227178315617,80.31227178315618,81.68748929892041,80.84956775128411,80.89053689535143,80.99332226638145
125.0,81.31227178315618,80.3566725593005,81.90229476693693,80.8568801862013,80.58887310261369,81.03895273037607
128.0,81.48219967332304,80.42758719283592,82.10229476693692,80.85212456066942,80.1179896611251,81.05660998213608
132.0,81.65260953202218,80.49897445130925,82.23175513861906,80.936773874776,79.72399308166041,81.09627836702082
136.0,81.75260953202218,80.59897445130926,82.36035311823196,81.06648157916895,79.40448571340741,81.15093374362439
140.0,81.75260953202218,80.50963256681621,82.36035311823196,81.0204366302858,79.17843421731858,81.09656868243248
145.0,81.48982856673472,80.23752777300027,82.20229476693692,80.92043663028579,79.19482930764487,80.92914179558807
150.0,81.18982856673472,79.84898359150841,82.00229476693693,80.73677387477599,79.45741254459571,80.74390034450943
155.0,80.79897445130925,79.28888547155003,81.67525122642458,80.47161637108523,79.91316982412181,80.50500484846113
160.0,80.37082970284297,78.79506458035829,81.27525122642456,80.02988465408721,80.19788821069184,80.20500176318777
165.0,80.07082970284299,78.43546263134682,80.97525122642458,79.51069317386165,78.67408496961603,79.63416234489043
170.0,79.77082970284299,78.1950645803583,80.63175513861907,79.0841875890533,76.77592336013095,79.08590383197475
175.0,79.49897445130924,77.96194867563767,80.47525122642456,78.94187360004247,76.70518880126212,78.90331407855226
180.0,79.57082970284297,77.93546263134684,80.47525122642456,78.9243861571818,76.53941223720118,78.89253798558624
185.0,79.77082970284299,78.07641629732153,80.63175513861907,79.009097646702,76.40957445724791,79.01001447710563
190.0,80.04314826109434,78.25062128010364,80.87525122642455,79.30909764670199,76.7296182781535,79.26914371091378
195.0,80.08219812790057,78.25062128010364,81.11998423401444,79.45740017519265,77.71705973698785,79.49921612138812
200.0,79.0361070797735,75.76620989389218,80.9675819127257,78.13036675437958,77.48206839285453,78.61889652933405
206.0,79.5377673428554,76.3844476236301,81.14548235428293,78.48684818641992,76.3821931681608,78.7810079207293
212.0,79.85866027600835,77.20473949550546,81.19366590096783,78.98463808338924,75.79430380709034,79.01012327885022
218.0,79.8094224842602,77.50497668676807,81.07525122642457,79.01415025910566,75.05101594655558,78.94079682458221
224.0,79.88219812790055,78.05062128010364,80.93175513861907,79.1377651280181,73.89342794478912,78.93863920864477
230.0,79.84314826109434,78.02526453928849,80.81637928414997,79.25639409638627,74.57683435514562,78.96027433989849
236.0,79.7552196930838,77.6377673428554,80.87297191737703,79.34759378799852,74.97949408326647,78.94709539676354
240.0,79.6094224842602,77.20330383828929,80.91637928414997,79.38490641670748,75.33006812544866,78.90226032825767
250.0,79.45866027600835,76.90330383828929,80.96035311823195,79.36206671473363,75.75133719959312,78.87593276682388
258.0,79.37584607527145,76.60473949550548,81.00489499373622,79.28490641670749,75.93060244312039,78.83553196819285
265.0,79.35177437534742,76.35648313414828,81.11998423401444,79.24513806681017,75.84749621261054,78.82242617775228
272.0,79.5377673428554,76.26322504785603,81.49366590096783,79.42745355433874,75.29402523919504,78.97336933559464
280.0,80.0377673428554,76.7948466445546,81.84865957364794,79.81415025910566,75.15928596632953,79.34858082025843
290.0,80.55177437534739,77.46493035341095,82.13175513861907,80.2377651280181,75.26472115582537,79.74915122787002
300.0,80.0361070797735,76.39265755490996,82.0048949937362,80.25130410818514,74.95985346533338,79.44847472163998
307.0,79.43753193576904,75.41755713588665,81.61998423401444,79.78204584418486,74.68136485171085,78.9472367615243
315.0,78.6888886353865,74.1954735506012,81.23924275721991,79.19607828419953,74.35355431337449,78.37070177934058
325.0,78.3269682029423,73.29417633457007,81.13924275721992,79.02208770262138,74.21267537104131,78.1370383706948
335.0,77.75597330084368,72.00922325566852,80.91363940606881,78.67145342892549,73.59762107272482,77.71567154014447
345.0,77.21101842217598,70.89330895054596,80.72940676691627,78.28451194161845,72.70330618027815,77.31086463545269
355.0,77.21923785438673,70.29104243873758,80.72940676691627,78.38451194161846,71.78967629294189,77.25472763778555
365.0,78.42253333882661,72.76396636452283,81.23924275721991,79.41069317386166,74.25523675490982,78.2660965427921
375.0,77.90524403428,70.16140775861638,81.32683455312959,78.75585703885517,74.37849004933642,77.92870349998472
387.0,76.44852360330587,67.55075950581028,80.66761108534182,77.4654979110565,73.25559934407737,76.87349981072445
400.0,75.18023038165938,65.78620163855368,79.35086213388186,76.32473868384412,72.22716939063108,75.62223080937582
412.0,75.06216583810078,65.49107051979547,78.91467853559536,74.54117847311423,71.75942473071362,74.96803052882335
425.0,75.69415784860769,65.90367708334689,80.25378373474547,75.0886340196194,71.25750879535495,75.8579472963927
437.0,76.3469517436517,66.04327612909591,81.2866419148176,76.83336583318507,71.07991065321188,76.86063567634838
450.0,75.65326816957167,65.25951309237725,81.09485407749126,77.31299312693528,71.80862382619463,76.7726936087731
462.0,75.0602912394481,66.02150075355425,80.68664191481759,76.55064999208186,71.85179166256222,76.30842966862733
475.0,74.20120868146766,67.73034445704397,80.62758020744901,75.85013416304619,71.0187082097471,75.99644077461048
487.0,73.89229835386521,68.54431065321111,80.57640057047573,75.52923290631543,70.71828924399419,75.87415360159027
500.0,73.60171976149286,69.65371319567645,80.69343859806335,75.6008098281853,70.731840573683,75.96847146842967
515.0,74.1850114640749,68.43150987525577,80.85378373474548,75.58128100402345,69.90741629471276,76.03893343346031
530.0,73.57862474678325,68.75799930920047,80.82579638388722,75.45525851205139,69.12841252557278,75.9006346648732
545.0,73.57901609134788,70.39117893838453,81.02076211162326,75.54303535109736,69.14516329295796,76.11265569331502
560.0,74.07479325343084,69.3048337442647,81.04878181929044,75.5867408320112,68.52066852014202,76.1214997821419
580.0,73.94676510068936,69.0505292704094,80.88147278830732,75.4327137535208,67.72689228520987,75.93758007746928
600.0,73.91775784273042,68.26710500828769,80.8097463048834,75.35041951382182,67.40690722454957,75.83512260082207
615.0,73.93214227992846,65.32537830045293,80.83156734312867,75.27837673822913,66.53441131610676,75.73938015232423
630.0,73.1126408479943,65.49032950967063,80.78147278830733,75.07901734703697,65.58506045443836,75.55223854232112
650.0,73.316894931514,63.890552427597754,80.58147278830732,74.82839122521358,65.21497973736784,75.36455579603236
670.0,73.28991578489436,64.04812097851897,80.49888657798577,74.68524541270733,65.18190226684005,75.28280294863775
690.0,73.29206930692163,65.07106876148262,80.22833223333885,74.09214397993242,64.54998932789705,75.00954548800624
710.0,73.71378126338834,66.96096514237182,80.57983775130111,74.28184106481646,64.18732899848358,75.37045573190528
730.0,74.46781424026557,66.85647994661606,80.85923203800299,74.59266710541614,64.09516274978431,75.70686009791586
750.0,74.49971333848829,65.62536925857934,80.85741203122251,74.60494147227855,63.09392340386779,75.67196741897872
775.0,75.03553863913667,67.52664543441657,80.73900047053698,74.509133033618,63.25044863136391,75.7158559716668
800.0,75.69868001632912,69.35632382767523,80.63900047053698,74.28853683754238,63.36322778247862,75.81220104648112
825.0,76.27211025799338,70.72854947575144,80.53900047053699,73.98074462532841,63.19643759689697,75.89995713736094
850.0,76.3765534603207,71.36464679812536,80.53900047053699,73.80010466127396,62.957597196305684,75.93922073923862
875.0,75.23131741555756,70.57333854596833,80.15268458216538,72.93076140692216,64.57127197777245,75.33630513749827
900.0,73.66908806114942,70.4778308059457,78.8876285233883,70.62395711117398,62.86555068685331,73.99058934103641
925.0,75.1931748750689,71.65098823501218,78.33763373458919,70.69117045477178,61.313577177685744,74.11489114136907
950.0,76.26251322065521,72.28493054864313,78.65741203122249,71.60917627094405,61.027692466348014,74.72389320266129
975.0,76.96893616304386,72.84165288164495,79.3719469475759,72.23588957053899,60.63564562631882,75.40145535785774
1000.0,77.02611609167009,72.9467871964985,80.15268458216538,72.86896194540417,61.255322096772375,75.89734368088241
1030.0,76.77131751433741,73.58888547155003,80.5063028369637,73.10108513535226,62.022147754285044,76.12314027210623
1060.0,76.91555665487545,74.0517743753474,80.50669169661842,72.86827274916588,62.73779066966661,76.19476282286203
1090.0,77.40449239072294,73.77263021037122,80.29064436625221,73.40894123547085,63.85381291231411,76.2350025125152
1120.0,78.10432912249857,73.81755713588666,80.37983775130112,74.37048573524486,64.03180609901742,76.58471925461555
1150.0,78.37625435142638,73.58165387780359,80.45990168395997,74.62516076234728,64.0670046449363,76.70890229037511
1180.0,78.34010271092208,73.1013789227706,80.45990168395997,74.2752910681183,63.4432448657369,76.60490394684537
1220.0,78.6238952693881,72.42519075000124,80.16913626975352,73.32381569995735,62.35339558399494,76.38509540487476
1250.0,78.39587874590276,71.44138991764818,79.65263989204598,71.65219110314438,60.974048778218815,75.8262535086579
1280.0,78.21832710287035,71.72553289116017,79.44329663334435,71.4452452911863,60.65581027831891,75.6657289423504
1320.0,78.7422920764254,72.65507704354388,79.93416418708972,72.1028048005006,61.49792587983876,76.22051565867388
1360.0,79.10722706905572,73.56885082383813,80.51522148513216,71.99141702569136,60.891812909589206,76.69883350227747
1400.0,77.32057765478032,72.12802377249942,80.69333061072999,70.40308759076493,60.161620162510516,76.01193342303361
1450.0,75.44277775075741,69.88779399843014,79.99161899686231,70.19207471881029,59.809490779603266,74.94094272983239
1500.0,75.28135366160674,69.8730120924441,79.5814760095729,70.64583161745398,60.187015273135316,74.68085305814714
1550.0,75.56649538425083,69.8765534603207,79.24516556771115,71.1300041869944,60.8138489383481,74.59309084634533
1600.0,75.41837626972828,69.55671344964048,78.88126193049135,71.4860053240143,60.94516788423816,74.36047916846135
1650.0,74.03153799129115,68.34836735062423,78.68420286618348,70.65345719941098,60.23918775763727,73.75410123978091
1700.0,73.48836433477439,69.27138090077,78.98677168724942,70.69672963222789,60.155636654052515,73.90053799295869
1750.0,74.00165971691963,70.23386746839947,79.65587820122089,71.32796386182058,60.85537973926789,74.55935434782953
1800.0,74.6355784674594,70.36672073686061,79.75945361154614,71.62816946700936,61.40088992137552,74.78565257387352
1850.0,74.52972358682665,70.81627783177748,79.21679367280538,71.99154880270257,61.05554251279327,74.50363237121216
1900.0,74.59894103952499,71.63821129888744,79.32990370359823,73.14085756631559,60.39861620780681,74.7949987641259
1950.0,74.65340349027103,70.87150800786937,79.81633924270139,73.6850504917055,59.9905286296067,75.09573903903384
2000.0,74.61146514559809,70.32349685065981,80.07640057047573,73.75283985865913,60.73087859292322,75.2212369754628
2060.0,74.66491071900288,71.46588846059687,79.99458081175067,73.66264361088822,61.72468742332056,75.26064699276974
2120.0,75.26640980126064,71.93758968889495,79.83452722041527,73.98816508965594,62.27674122037192,75.3718255540079
2180.0,74.44293492570155,70.17858264009718,79.22056937983724,72.61767235120404,61.07082031613403,74.51349726409398
2240.0,73.87711159109156,68.28204905670955,78.6202472920587,72.11295821176451,58.97972724268756,73.83780621238125
2300.0,73.78205840444085,68.0909529026224,78.91060209631304,72.3622354503813,57.99361639452749,74.01416268562787
2360.0,73.81403375853047,68.83138904094095,79.61897457933325,72.7431044325698,57.93380679025779,74.55561114868712
2400.0,73.38188613593528,69.95655353025553,79.83900047053697,72.13462081100757,57.65631258203956,74.62333877756711
2500.0,74.21330886278797,70.6801638467673,80.4719469475759,72.88949465400471,58.75806407964237,75.30867630037342
2580.0,74.21246869220079,68.17082452056698,80.34601555092519,71.67599069145899,58.718982967973275,74.96066816869214
2650.0,74.87592265583844,66.68425627782307,79.70161722788151,70.58910254149714,57.2531006327026,74.49437492750347
2720.0,75.36718462137125,68.45360214540547,79.34896478636679,70.85058219725214,57.25575722024354,74.47749627258105
2800.0,75.26239477036438,69.11063117013695,79.2710074612705,71.10230266587719,57.929142747287756,74.46531190377766
2900.0,74.19803979755805,67.42039206448507,79.51666285681937,71.28511866281015,59.07962028796392,74.33072792542234
3000.0,73.99389937662777,69.3124664126148,79.33766362204878,71.00568456055922,58.91927833768683,74.24424398661196
3070.0,74.72401988636375,69.74314826109435,79.4453806464284,71.61601526474611,59.629932181179456,74.54963208761305
3150.0,74.63268288984415,68.26194697319562,80.0488680453297,71.65418781325675,59.59561388917821,74.84124870050462
3250.0,74.02657098507086,67.54534395766899,79.54703384369785,71.75133061323112,59.41006843964631,74.37404692262285
3350.0,73.46753494617816,67.73601044983643,78.82771362196188,72.24248623576166,59.29641510089077,73.87784000548865
