Freq,Floor Bounce,Ceiling Bounce,Front Wall Bounce,Side Wall Bounce,Rear Wall Bounce,Total Early Reflection
22.4,22.5943829266092,22.861549094331338,20.56668932352548,23.80950465940643,25.418666520703,23.334786962692533
23.0,24.38716390772686,24.057121200501797,22.1544158126992,25.704421663082144,27.797959083596993,25.231063441863057
23.6,26.195462801794378,25.544028187310232,23.96746530778063,27.416425178894542,29.63620722710317,26.981781759759258
24.0,28.572121802215776,28.185721312284187,26.903223848868123,29.292280491187796,30.485482121076217,28.849502938768268
25.0,30.717695911157534,30.55496446967487,29.212600293403966,31.04123676757979,31.442092189811547,30.655758451817064
25.8,32.54476568817756,32.492772905171535,31.10611007834015,32.65541965411833,32.46351959416904,32.28839829844833
26.5,34.24090095852418,34.2627675299949,32.7877561378823,34.112639075969696,33.57923141633955,33.831557793808
27.2,36.50909737483684,36.42469581954384,34.815204386548515,35.757790409253914,35.30652660498754,35.810493453383884
28.0,38.50752183262128,38.3198712247449,36.59191977580423,37.14639417093798,36.86294594636084,37.55658766598617
29.0,40.20752183262124,39.91665327033411,38.13451589469659,38.34757034036957,38.216927886053185,39.060703235051676
30.0,41.839336914003724,41.54537958625377,39.73284389210994,39.74960088467287,39.735147185695325,40.629471745725965
30.7,43.639336914003735,43.407521832621285,41.77589664991157,41.567151077034,41.69303814444004,42.51382064846388
31.5,45.27395564699191,45.10601666772922,43.603922311326045,43.199937092305504,43.53784357973291,44.23217108588466
32.5,46.77395564699191,46.671653570405,45.592046208436244,45.038502729124275,45.51492917155767,45.97246009417225
33.5,48.607521832621245,48.404475902829375,48.207055960941375,48.294247959227874,48.23727576267953,48.35256769692705
34.5,50.2416034009035,50.038581289002366,50.15837537486982,50.532080818291234,50.27330162442257,50.251879377259
35.5,51.841603400903495,51.571653570405005,51.81402547128721,52.25198409457445,51.889269365850936,51.879260083632374
36.5,53.373170689909585,53.171653570405,53.328642750594724,53.61161906701068,53.20913027501396,53.341640723664796
37.5,54.873170689909585,54.63780792710989,54.77188049023013,54.81161906701067,54.417028143310716,54.705299764507174
38.7,56.305237484634404,56.13780792710992,56.215684196937104,56.13161612261368,55.71702814331073,56.10610286250784
40.0,58.071653570405005,57.87165357040499,58.000681073508446,57.81161906701067,57.35996900274674,57.83012110343353
41.2,59.60523748463443,59.404475902829375,59.54485861487311,59.31161906701067,58.81753050563506,59.34553138899386
42.5,61.03933691400373,60.80447590282937,61.08531353934687,60.911619067010676,60.328302919282834,60.84209710507079
43.7,62.407521832621256,62.10447590282938,62.57154393664365,62.41116280491987,61.781581963046136,62.26421595411851
45.0,63.73933691400373,63.43933691400373,64.02962402922671,63.85199462339753,63.150079321208665,63.65317524410095
46.2,65.33933691400372,65.00601666772923,65.62831056730755,65.21345450065968,64.49171430141611,65.15212805975226
47.5,66.77165357040501,66.44090095852417,67.05674056505177,66.47680853727894,65.77213677519069,66.52440398853523
48.7,68.10523748463442,67.77395564699191,68.28531353934686,67.77773896979897,67.06024557243317,67.82022020061753
50.0,69.33933691400372,69.00752183262126,69.40002761200839,68.93710636195152,68.2483054767321,69.00536192479377
51.5,70.53933691400373,70.1762041436141,70.57188049023011,70.11619111948902,69.47779161738924,70.19382023797874
53.0,71.57395564699192,71.20752183262125,71.72929192099002,71.17500871563692,70.61424353031624,71.27692690073636
54.5,72.53933691400374,72.17395564699191,72.78596921838825,72.15701896322919,71.53503900470837,72.25860175101302
56.0,73.37395564699192,73.00601666772923,73.65773053757994,73.03759234211708,72.36144496775492,73.10875170472937
58.0,74.20601666772923,73.84239408381879,74.47318084288632,73.8176228483641,73.13004006864989,73.9170439230382
60.0,74.97395564699191,74.57395564699192,75.27318084288632,74.57687064585683,73.91926638498671,74.68703931078146
61.5,75.77395564699191,75.37395564699193,76.00068107350845,75.37687064585683,74.776938886268,75.48030660820461
63.0,76.47395564699193,76.04239408381878,76.70068107350843,76.07687064585683,75.54515847336583,76.18586124165259
65.0,77.07395564699192,76.64239408381877,77.35837537486981,76.71485452643383,76.21339513174351,76.81812825520657
67.0,77.47395564699191,77.07395564699192,77.77318084288632,77.15614648623485,76.77779732001007,77.26457967679309
69.0,77.87395564699193,77.47395564699191,78.17318084288631,77.55614648623484,77.22625462442738,77.67328331590085
71.0,78.27395564699191,77.87395564699193,78.5299561120688,77.95614648623484,77.67456058280567,78.07239664229847
73.0,78.67395564699193,78.27395564699191,78.95837537486982,78.35614648623483,78.12174199014916,78.48736411904073
75.0,79.03933691400371,78.67395564699193,79.30068107350846,78.79431125979244,78.58543421760915,78.88662408138428
77.5,79.33933691400372,79.00601666772923,79.58596921838824,79.13483672414436,78.94747467802823,79.20909456772418
80.0,79.60601666772922,79.27395564699191,79.8570705809689,79.39431125979243,79.26885665910616,79.4859183773211
82.5,79.73933691400373,79.43933691400373,79.98596921838825,79.5731883965899,79.43723847625186,79.64002105485706
85.0,79.93933691400373,79.63933691400372,80.1570705809689,79.73483672414434,79.53675546309661,79.8071794285898
87.5,80.03933691400374,79.73933691400373,80.2570705809689,79.85427564789236,79.62061823583554,79.90798450166264
90.0,80.1393369140037,79.77395564699192,80.3425488298683,79.91485452643383,79.69999420440168,79.98066895858061
92.5,80.20601666772922,79.87395564699192,80.44254882986831,80.01485452643382,79.78988118760299,80.07188068472007
95.0,80.23933691400373,79.80909737483684,80.48596921838823,80.01485452643382,79.88713656769455,80.09435933626986
97.5,80.27395564699192,79.77779108630399,80.54254882986831,79.95840501765318,79.46958423087335,80.02062188022299
100.0,80.37395564699193,79.8469778304416,80.6425488298683,79.943099796998,78.81549421431208,79.967770114118
103.0,80.47395564699193,79.94697783044161,80.72831056730755,80.0253290185052,78.6436281818417,80.02023968692669
106.0,80.67395564699191,80.14697783044161,80.89969323269469,80.26206117097678,78.98633626589516,80.24199006471639
109.0,80.84239408381877,80.3113277554043,81.0708860759494,80.55840501765319,79.5391051858458,80.49569962793129
112.0,80.97395564699191,80.477791086304,81.19969323269467,80.79612274865652,80.11988806131627,80.72987581568816
115.0,81.04239408381878,80.477791086304,81.41402547128722,81.01485452643382,80.76119638682329,80.95324793909839
118.0,81.07779108630399,80.41371638066914,81.52929192099002,80.93626232034768,80.98153264207816,81.00225051427284
122.0,81.28315785910557,80.48315785910559,81.85837537486981,81.0204538272335,81.06142297130083,81.16420834233084
125.0,81.48315785910557,80.5275586352499,82.07318084288632,81.02776626215069,80.75975917856309,81.20983880632548
128.0,81.65308574927245,80.59847326878533,82.27318084288632,81.02301063661882,80.2888757370745,81.22749605808548
132.0,81.82349560797157,80.66986052725865,82.40264121456846,81.10765995072539,79.89487915760981,81.2671644429702
136.0,81.92349560797156,80.76986052725866,82.53123919418135,81.23736765511835,79.57537178935682,81.32181981957379
140.0,81.92349560797156,80.6805186427656,82.53123919418135,81.19132270623518,79.34932029326797,81.26745475838186
145.0,81.66071464268413,80.40841384894968,82.37318084288633,81.09132270623519,79.36571538359428,81.10002787153748
150.0,81.36071464268412,80.01986966745781,82.17318084288632,80.90765995072539,79.62829862054512,80.91478642045884
155.0,80.96986052725865,79.45977154749943,81.84613730237396,80.64250244703462,80.08405590007122,80.67589092441052
160.0,80.54171577879238,78.9659506563077,81.44613730237397,80.20077073003661,80.36877428664124,80.37588783913718
165.0,80.24171577879237,78.60634870729623,81.14613730237396,79.68157924981107,78.84497104556543,79.80504842083982
170.0,79.94171577879237,78.36595065630769,80.80264121456847,79.2550736650027,76.94680943608034,79.25678990792413
175.0,79.66986052725865,78.13283475158705,80.64613730237397,79.11275967599187,76.87607487721154,79.07420015450165
180.0,79.74171577879238,78.10634870729622,80.64613730237397,79.0952722331312,76.71029831315056,79.06342406153564
185.0,79.94171577879237,78.24730237327091,80.80264121456847,79.17998372265139,76.58046053319731,79.18090055305501
190.0,80.21403433704376,78.42150735605304,81.04613730237396,79.4799837226514,76.9005043541029,79.44002978686319
195.0,80.25308420384995,78.42150735605304,81.29087030996382,79.62828625114204,77.88794581293723,79.67010219733751
200.0,79.2069931557229,75.93709596984156,81.13846798867512,78.30125283032899,77.65295446880394,78.78978260528345
206.0,79.7086534188048,76.55533369957949,81.31636843023232,78.6577342623693,76.55307924411021,78.95189399667869
212.0,80.02954635195775,77.37562557145488,81.3645519769172,79.15552415933863,75.96518988303973,79.18100935479961
218.0,79.9803085602096,77.67586276271749,81.24613730237397,79.18503633505506,75.22190202250499,79.1116829005316
224.0,80.05308420384995,78.22150735605304,81.10264121456845,79.30865120396749,74.06431402073851,79.10952528459417
230.0,80.01403433704375,78.19615061523788,80.98726536009937,79.42728017233568,74.74772043109503,79.13116041584789
236.0,79.92610576903319,77.8086534188048,81.04385799332644,79.51847986394793,75.15038015921589,79.11798147271296
240.0,79.78030856020959,77.37418991423868,81.08726536009938,79.55579249265688,75.50095420139805,79.07314640420708
250.0,79.62954635195773,77.07418991423867,81.13123919418135,79.53295279068301,75.92222327554252,79.04681884277326
258.0,79.54673215122085,76.77562557145487,81.17578106968563,79.45579249265688,76.10148851906979,79.00641804414226
265.0,79.52266045129682,76.52736921009767,81.29087030996382,79.41602414275957,76.01838228855993,78.99331225370167
272.0,79.7086534188048,76.43411112380541,81.66455197691721,79.59833963028814,75.46491131514445,79.14425541154402
280.0,80.2086534188048,76.965732720504,82.01954564959735,79.98503633505506,75.33017204227892,79.51946689620785
290.0,80.7226604512968,77.63581642936033,82.30264121456847,80.40865120396748,75.43560723177478,79.9200373038194
300.0,80.20699315572288,76.56354363085936,82.17578106968561,80.42219018413455,75.1307395412828,79.6193607975894
307.0,79.60841801171844,75.58844321183605,81.79087030996384,79.95293192013426,74.85225092766024,79.11812283747368
315.0,78.85977471133592,74.3663596265506,81.41012883316931,79.36696436014891,74.52444038932387,78.54158785528998
325.0,78.49785427889168,73.46506241051947,81.3101288331693,79.19297377857077,74.38356144699073,78.30792444664418
335.0,77.92685937679309,72.18010933161791,81.0845254820182,78.84233950487487,73.76850714867423,77.88655761609388
345.0,77.38190449812538,71.06419502649536,80.90029284286567,78.45539801756784,72.87419225622754,77.4817507114021
355.0,77.39012393033612,70.46192851468696,80.90029284286567,78.55539801756784,71.96056236889129,77.42561371373496
365.0,78.59341941477601,72.93485244047221,81.41012883316931,79.58157924981107,74.42612283085921,78.43698261874151
375.0,78.07613011022939,70.33229383456579,81.497720629079,78.92674311480455,74.54937612528582,78.09958957593412
387.0,76.61940967925526,67.72164558175966,80.83849716129123,77.63638398700591,73.42648542002676,77.04438588667387
400.0,75.35111645760878,65.95708771450307,79.52174820983126,76.49562475979351,72.39805546658047,75.79311688532522
412.0,75.23305191405018,65.66195659574487,79.08556461154477,74.71206454906364,71.93031080666303,75.13891660477276
425.0,75.86504392455709,66.07456315929628,80.42466981069488,75.25952009556882,71.42839487130436,76.0288333723421
437.0,76.51783781960111,66.2141622050453,81.45752799076698,77.00425190913447,71.2507967291613,77.03152175229776
450.0,75.82415424552109,65.43039916832663,81.26574015344065,77.48387920288468,71.97950990214402,76.94357968472248
462.0,75.23117731539749,66.19238682950365,80.85752799076698,76.72153606803127,72.02267773851163,76.47931574457672
475.0,74.37209475741707,67.90123053299337,80.79846628339843,76.0210202389956,71.1895942856965,76.16732685055987
487.0,74.0631844298146,68.71519672916052,80.74728664642512,75.70011898226483,70.88917531994358,76.04503967753965
500.0,73.77260583744226,69.82459927162583,80.86432467401275,75.77169590413469,70.90272664963238,76.13935754437905
515.0,74.35589754002429,68.60239595120517,81.02466981069486,75.75216707997285,70.07830237066217,76.20981950940971
530.0,73.74951082273263,68.92888538514987,80.99668245983662,75.62614458800078,69.29929860152217,76.07152074082258
545.0,73.74990216729728,70.56206501433394,81.19164818757264,75.71392142704674,69.31604936890736,76.28354176926442
560.0,74.24567932938024,69.47571982021408,81.21966789523984,75.75762690796061,68.69155459609141,76.29238585809131
580.0,74.11765117663877,69.22141534635881,81.05235886425672,75.6035998294702,67.89777836115925,76.10846615341868
600.0,74.08864391867982,68.4379910842371,80.98063238083282,75.5213055897712,67.57779330049898,76.00600867677147
615.0,74.10302835587787,65.49626437640231,81.00245341907807,75.44926281417852,66.70529739205614,75.91026622827363
630.0,73.2835269239437,65.66121558562003,80.95235886425671,75.24990342298638,65.75594653038777,75.72312461827052
650.0,73.48778100746338,64.06143850354717,80.75235886425672,74.99927730116298,65.38586581331722,75.53544187198176
670.0,73.46080186084376,64.21900705446838,80.66977265393517,74.85613148865674,65.35278834278947,75.45368902458716
690.0,73.46295538287102,65.241954837432,80.39921830928824,74.26303005588183,64.72087540384643,75.18043156395564
710.0,73.88466733933774,67.13185121832123,80.75072382725052,74.45272714076586,64.35821507443296,75.54134180785469
730.0,74.63870031621498,67.02736602256547,81.03011811395237,74.76355318136554,64.2660488257337,75.87774617386526
750.0,74.67059941443767,65.79625533452875,81.02829810717189,74.77582754822797,63.26480947981719,75.84285349492814
775.0,75.20642471508607,67.69753151036596,80.90988654648639,74.68001910956738,63.42133470731329,75.88674204761618
800.0,75.86956609227852,69.52720990362462,80.80988654648638,74.45942291349176,63.534113858428015,75.98308712243052
825.0,76.44299633394276,70.89943555170083,80.70988654648637,74.15163070127781,63.36732367284637,76.07084321331033
850.0,76.54743953627008,71.53553287407476,80.70988654648637,73.97099073722337,63.12848327225508,76.110106815188
875.0,75.40220349150694,70.74422462191771,80.32357065811479,73.10164748287157,64.74215805372184,75.50719121344768
900.0,73.83997413709884,70.64871688189511,79.0585145993377,70.79484318712338,63.03643676280271,74.1614754169858
925.0,75.36406095101832,71.82187431096159,78.50851981053857,70.86205653072119,61.48446325363514,74.28577721731848
950.0,76.43339929660459,72.45581662459252,78.8282981071719,71.78006234689346,61.198578542297426,74.89477927861067
975.0,77.13982223899328,73.01253895759433,79.5428330235253,72.40677564648837,60.80653170226823,75.57234143380714
1000.0,77.1970021676195,73.11767327244789,80.32357065811479,73.03984802135358,61.42620817272176,76.06822975683181
1030.0,76.9422035902868,73.75977154749944,80.67718891291308,73.27197121130168,62.19303383023444,76.29402634805561
1060.0,77.08644273082486,74.2226604512968,80.6775777725678,73.03915882511527,62.90867674561602,76.36564889881143
1090.0,77.57537846667235,73.9435162863206,80.4615304422016,73.57982731142025,64.02469898826351,76.40588858846458
1120.0,78.27521519844797,73.98844321183606,80.55072382725051,74.54137181119424,64.20269217496683,76.75560533056495
1150.0,78.54714042737577,73.752539953753,80.63078775990937,74.79604683829666,64.2378907208857,76.8797883663245
1180.0,78.51098878687147,73.27226499872,80.63078775990937,74.44617714406772,63.614130941686284,76.77579002279478
1220.0,78.79478134533748,72.59607682595062,80.34002234570292,73.49470177590676,62.52428165994432,76.55598148082416
1250.0,78.56676482185215,71.61227599359756,79.82352596799537,71.82307717909379,61.14493485416823,75.99713958460728
1280.0,78.38921317881974,71.89641896710958,79.61418270929374,71.6161313671357,60.82669635426831,75.8366150182998
1320.0,78.9131781523748,72.82596311949328,80.1050502630391,72.27369087645002,61.66881195578817,76.39140173462326
1360.0,79.27811314500511,73.73973689978753,80.68610756108156,72.16230310164077,61.06269898553862,76.86971957822686
1400.0,77.49146373072972,72.2989098484488,80.8642166866794,70.57397366671431,60.3325062384599,76.18281949898302
1450.0,75.61366382670683,70.05868007437955,80.16250507281171,70.36296079475969,59.98037685555266,75.11182880578177
1500.0,75.45223973755614,70.0438981683935,79.7523620855223,70.81671769340338,60.35790134908473,74.85173913409653
1550.0,75.73738146020023,70.0474395362701,79.41605164366054,71.30089026294378,60.98473501429751,74.76397692229475
1600.0,75.58926234567767,69.7275995255899,79.05214800644075,71.65689139996368,61.11605396018754,74.53136524441075
1650.0,74.20242406724054,68.51925342657361,78.8550889421329,70.82434327536036,60.410073833586665,73.9249873157303
1700.0,73.6592504107238,69.4422669767194,79.1576577631988,70.86761570817728,60.326522730001926,74.07142406890807
1750.0,74.17254579286904,70.40475354434886,79.82676427717027,71.49884993776999,61.0262658152173,74.73024042377892
1800.0,74.80646454340878,70.53760681281,79.93033968749555,71.79905554295874,61.571775997324934,74.95653864982293
1850.0,74.70060966277603,70.98716390772687,79.38767974875476,72.16243487865198,61.226428588742664,74.67451844716155
1900.0,74.76982711547438,71.80909737483682,79.50078977954762,73.31174364226499,60.569502283756194,74.9658848400753
1950.0,74.82428956622044,71.04239408381878,79.98722531865079,73.85593656765491,60.1614147055561,75.26662511498324
2000.0,74.78235122154749,70.4943829266092,80.24728664642511,73.92372593460851,60.9017646688726,75.3921230514122
2060.0,74.83579679495229,71.63677453654627,80.16546688770006,73.83352968683764,61.89557349926994,75.43153306871915
2120.0,75.43729587721003,72.10847576484434,80.00541329636465,74.15905116560532,62.4476272963213,75.5427116299573
2180.0,74.61382100165096,70.34946871604659,79.39145545578666,72.78855842715343,61.24170639208343,74.6843833400434
2240.0,74.04799766704095,68.45293513265894,78.7911333680081,72.2838442877139,59.15061331863697,74.00869228833065
2300.0,73.95294448039024,68.2618389785718,79.08148817226242,72.53312152633072,58.16450247047689,74.18504876157726
2360.0,73.98491983447985,69.00227511689033,79.78986065528264,72.9139905085192,58.10469286620719,74.7264972246365
2400.0,73.55277221188466,70.12743960620492,80.00988654648638,72.30550688695698,57.82719865798896,74.79422485351651
2500.0,74.38419493873738,70.8510499227167,80.6428330235253,73.06038072995412,58.928950155591764,75.47956237632283
2580.0,74.38335476815018,68.34171059651639,80.51690162687458,71.84687676740839,58.88986904392267,75.13155424464153
2650.0,75.04680873178785,66.85514235377246,79.87250330383091,70.75998861744654,57.42398670865197,74.66526100345285
2720.0,75.53807069732065,68.62448822135488,79.51985086231618,71.02146827320153,57.426643296192935,74.64838234853045
2800.0,75.43328084631378,69.28151724608634,79.44189353721988,71.27318874182657,58.10002882323718,74.63619797972704
2900.0,74.36892587350744,67.59127814043447,79.68754893276878,71.45600473875953,59.25050636391332,74.50161400137173
3000.0,74.16478545257718,69.48335248856421,79.50854969799818,71.1765706365086,59.090164413636245,74.41513006256136
3070.0,74.89490596231313,69.91403433704374,79.61626672237779,71.78690134069552,59.80081825712885,74.72051816356243
3150.0,74.80356896579354,68.43283304914502,80.2197541212791,71.82507388920615,59.76649996512761,75.01213477645402
3250.0,74.19745706102027,67.71623003361839,79.71791991964724,71.92221668918052,59.58095451559571,74.54493299857226
3350.0,73.63842102212756,67.90689652578581,78.99859969791126,72.41337231171107,59.46730117684015,74.04872608143805
