Freq "Rear Wall Bounce"
22.4 12.937668108987353
23.0 13.54960647558822
23.6 14.382343527584894
24.0 16.504144031073324
25.0 18.155234824163315
25.8 19.186781318334155
26.5 19.9088752396744
27.2 20.420461458618647
28.0 20.740699937762642
29.0 20.8980414469885
30.0 21.25523482416331
30.7 22.140699937762648
31.5 22.749606475588237
32.5 22.98234352758486
33.5 22.88156690270806
34.5 22.36001958615158
35.5 21.66617579402991
36.5 22.87083994150713
37.5 24.070839941507145
38.7 25.05523482416332
40.0 25.87083994150713
41.2 26.83102780068087
42.5 28.304144031073335
43.7 29.77246637758354
45.0 31.06001958615157
46.2 32.2410697319814
47.5 33.42046145861865
48.7 34.855234824163304
50.0 36.16001958615156
51.5 37.36001958615158
53.0 38.48156690270808
54.5 39.58678131833416
56.0 40.76001958615156
58.0 41.97246637758356
60.0 43.0771237777369
61.5 44.23102780068088
63.0 45.340699937762665
65.0 46.36001958615158
67.0 47.74409918782628
69.0 49.104144031073346
71.0 50.42046145861865
73.0 51.866175794029914
75.0 53.16001958615155
77.5 54.48156690270807
80.0 55.73317982151083
82.5 57.16001958615156
85.0 58.68156690270807
87.5 60.0497346736051
90.0 61.34069993776265
92.5 62.37246637758355
95.0 63.17792497530411
97.5 64.05604408210756
100.0 64.99111338467706
103.0 65.78606890802708
106.0 66.60771345217606
109.0 67.59740101504953
112.0 68.48030176670657
115.0 69.15745389947826
118.0 69.80338585128403
122.0 70.39518130160047
125.0 70.88784656281683
128.0 71.14859687284896
132.0 71.51731864764655
136.0 71.83010179792787
140.0 72.01727129347333
145.0 72.26773521266301
150.0 72.36665897428608
155.0 72.47154523187717
160.0 72.59705010309206
165.0 72.72250764274268
170.0 72.78069568403816
175.0 72.81784087388995
180.0 72.87600017765874
185.0 72.86541712672266
190.0 72.83926442646583
195.0 72.78248827650431
200.0 72.70342774966758
206.0 72.56788050476479
212.0 72.45763596925674
218.0 72.34281075391472
224.0 72.25871139950706
230.0 72.16395331264057
236.0 72.1323499442495
240.0 72.09903895300423
250.0 72.00879811900228
258.0 71.93513990031586
265.0 71.82998325930521
272.0 71.74065855385321
280.0 71.56181415194597
290.0 71.44605318981282
300.0 71.30540803367538
307.0 71.13360704025852
315.0 70.93631640685878
325.0 70.78661577380193
335.0 70.66763460337789
345.0 70.50456712797255
355.0 70.41161015514639
365.0 70.3255706996076
375.0 70.22464974191517
387.0 70.1478275871665
400.0 69.96425347673636
412.0 69.83278416796558
425.0 69.61837148667976
437.0 69.28349860556095
450.0 69.0916242127578
462.0 68.77291983569957
475.0 68.55127689537562
487.0 68.35617009974213
500.0 68.2674698238096
515.0 68.18186121998203
530.0 68.08346709067744
545.0 67.89332116679797
560.0 67.66694956480426
580.0 67.3997493253885
600.0 67.17653873187842
615.0 67.09417271522503
630.0 67.05660114152447
650.0 67.08174140932262
670.0 67.038907490182
690.0 66.83981538141873
710.0 66.41596435547287
730.0 65.98706676214313
750.0 65.58237529784266
775.0 65.34520978318817
800.0 65.30859930766242
825.0 65.2265163031852
850.0 65.01398246597476
875.0 64.65286862193943
900.0 64.39069288035783
925.0 64.08385291028183
950.0 63.74379296335569
975.0 63.242483807610526
1000.0 62.759357058307174
1030.0 62.300206348869395
1060.0 60.9184940737868
1090.0 58.69306873200145
1120.0 59.22776133883853
1150.0 63.646092282549304
1180.0 65.43663254365917
1220.0 64.40949811268652
1250.0 63.205940236575614
1280.0 61.73894308095919
1320.0 60.01098955862666
1360.0 60.22607907445169
1400.0 62.25236280634407
1450.0 65.51626520568196
1500.0 66.14234820732742
1550.0 62.97377431864045
1600.0 59.23526690587555
1650.0 57.7746605622625
1700.0 58.16245141830605
1750.0 56.684029214598254
1800.0 53.30747477831791
1850.0 53.540976920098785
1900.0 55.53933262442685
1950.0 56.61053514427678
2000.0 57.83158135980665
2060.0 59.388724764319406
2120.0 60.557691808619865
2180.0 60.74213058273914
2240.0 60.1953658554381
2300.0 59.776335202527676
2360.0 59.4439561132846
2400.0 58.088955349756816
2500.0 57.39300466632069
2580.0 57.61497175108664
2650.0 57.18461759413371
2720.0 56.442910064681314
2800.0 56.40895445758231
2900.0 55.23677460930989
3000.0 53.540462434820924
3070.0 52.620451388023426
3150.0 51.46461563664231
3250.0 50.75985860118793
3350.0 50.83699622211256
3450.0 51.36921312807449
3550.0 52.57982189675083
3650.0 54.16002752612778
3750.0 56.912327875270265
3870.0 58.189382095243985
4000.0 57.49152823709551
4120.0 58.852248368168645
4250.0 60.266108768875654
4370.0 59.081693076737864
4500.0 57.818195005448516
4620.0 57.324361723544484
4750.0 56.80154790020502
4870.0 55.8590232172274
5000.0 55.05434098274161
5150.0 53.76579424787957
5300.0 53.41373131922903
5450.0 52.949214793155804
5600.0 51.26118620204794
5800.0 51.356279946452375
6000.0 51.576622866001145
6150.0 50.08617113299569
6300.0 49.4926269122747
6500.0 49.73712423329174
6700.0 48.68155710011469
6900.0 48.44005498771382
7100.0 48.951279425558184
7300.0 49.42571478053027
7500.0 49.35665756055168
7750.0 49.60881323942023
8000.0 50.233814166198826
8250.0 50.057055965540016
8500.0 48.470442942181634
8750.0 46.46785750427712
9000.0 46.18206255658667
9250.0 46.377503739237014
9500.0 46.66416343768371
9750.0 45.02507858404773
10000.0 44.0510342954057
10300.0 43.52809610842651
10600.0 41.296136022779606
10900.0 38.61910688044976
11200.0 40.6582384726582
11500.0 44.97214610721589
11800.0 47.054530419782324
12200.0 47.49533016614605
12500.0 47.42919339376333
12800.0 45.024102951434756
13200.0 42.70743648059819
13600.0 41.86815776115118
14000.0 38.991462369590195
14500.0 36.968750370584374
15000.0 39.61734629992297
15500.0 38.421888670608965
16000.0 38.1367405690619
16500.0 39.85749300025354
17000.0 41.105954156505405
17500.0 42.81314841031197
18000.0 44.182059411955166
18500.0 42.946798076411895
19000.0 40.02304460729256
19500.0 35.442064192976275
