Freq "Sound Power"
22.4 45.62387549901504
23.0 47.45323680322167
23.6 49.05959879670041
24.0 50.4811838948832
25.0 51.786352199938705
25.8 53.015713925105615
26.5 54.138289225850514
27.2 55.23073498548496
28.0 56.288047338374895
29.0 57.30741940574039
30.0 58.28958411276962
30.7 59.26447519001704
31.5 60.217668801065486
32.5 61.14465073184911
33.5 62.06957024637502
34.5 62.98149043294458
35.5 63.893681280289115
36.5 64.8047376212422
37.5 65.70071709604815
38.7 66.59459925185853
40.0 67.48244190944145
41.2 68.36619006017744
42.5 69.23453694622343
43.7 70.1049672438541
45.0 70.97407242779609
46.2 71.82878804608967
47.5 72.66222006917783
48.7 73.43423759802931
50.0 74.21123045465762
51.5 74.96880801970076
53.0 75.64786457994214
54.5 76.31824144512265
56.0 76.94210561307389
58.0 77.51437741489491
60.0 78.04178002372008
61.5 78.53620550722081
63.0 78.96159778975687
65.0 79.35347978856886
67.0 79.68443296449804
69.0 79.94743717882619
71.0 80.22732350493872
73.0 80.41633453149564
75.0 80.51405050014307
77.5 80.56043772603343
80.0 80.52458729655615
82.5 80.45426659402492
85.0 80.32428540230829
87.5 80.14095177271489
90.0 79.93606740298587
92.5 79.6876589834312
95.0 79.40216828566459
97.5 79.11119801085728
100.0 78.81758304004657
103.0 78.59154444463681
106.0 78.3701125298134
109.0 78.24444693438701
112.0 78.15987989205351
115.0 78.11032134025382
118.0 78.09400349677452
122.0 78.05030345486509
125.0 78.00241243382379
128.0 77.9052001442616
132.0 77.74492543875188
136.0 77.54271441926136
140.0 77.2528228782849
145.0 76.98616399689334
150.0 76.77940878121578
155.0 76.63582115337377
160.0 76.5301547897175
165.0 76.43635874330069
170.0 76.32826602648858
175.0 76.12622117989022
180.0 75.93482087846604
185.0 75.67203839292459
190.0 75.38558045301059
195.0 75.11971770048041
200.0 74.9379626290111
206.0 74.82457116742079
212.0 74.73803316139391
218.0 74.63551975875907
224.0 74.53569249363416
230.0 74.38215157259143
236.0 74.26155534918809
240.0 74.22816964917419
250.0 74.24859005032897
258.0 74.26769383474759
265.0 74.24910789438738
272.0 74.26234709867606
280.0 74.33183286396726
290.0 74.4674940374009
300.0 74.52201007248475
307.0 74.33251703941329
315.0 73.79739732776474
325.0 73.13649253967327
335.0 72.65790379851333
345.0 72.56962593488902
355.0 72.68132039330959
365.0 72.69745395882542
375.0 72.66957638592832
387.0 72.63063268510597
400.0 72.5347920345465
412.0 72.38951511734172
425.0 72.2239733973891
437.0 72.00519141506389
450.0 71.75935256487618
462.0 71.49444646296733
475.0 71.15780603962091
487.0 70.83258651992834
500.0 70.7414578609197
515.0 71.00426375207503
530.0 71.24898286392285
545.0 71.25977392938455
560.0 70.9630982655464
580.0 70.49901575138452
600.0 70.20568103359761
615.0 70.53174956968913
630.0 71.71675447006311
650.0 72.5786998695618
670.0 72.46346568178066
690.0 71.98953363402562
710.0 71.37434822441317
730.0 71.15460623439199
750.0 70.79969473188085
775.0 70.02337458268755
800.0 69.51565064956776
825.0 69.29356799042391
850.0 69.04172395987302
875.0 68.77331558653893
900.0 68.49446740033811
925.0 68.14346491711075
950.0 67.7851386540767
975.0 67.19466542255104
1000.0 66.93339217270126
1030.0 67.26668975515365
1060.0 67.71768327094492
1090.0 67.60536484003835
1120.0 67.7571948042724
1150.0 67.87234313796995
1180.0 67.83837863939719
1220.0 67.82101643544497
1250.0 68.30171821563704
1280.0 67.9402660912167
1320.0 67.02371876316047
1360.0 65.93644074515149
1400.0 66.04917967142795
1450.0 66.95500898797567
1500.0 67.2679849263948
1550.0 67.15139286028493
1600.0 67.04554499445588
1650.0 66.92976551584023
1700.0 66.77837404431185
1750.0 66.48205847413979
1800.0 66.66592547192151
1850.0 66.26900652433432
1900.0 65.28680102268608
1950.0 64.7585656205814
2000.0 64.40807165099275
2060.0 64.40539743828333
2120.0 64.27275348690576
2180.0 64.18163177869644
2240.0 64.16613359777921
2300.0 64.28500196178464
2360.0 64.78246405232879
2400.0 64.85228532380407
2500.0 64.19859155973423
2580.0 63.79881704375687
2650.0 63.47937019471124
2720.0 63.66409229776005
2800.0 62.850503164944186
2900.0 62.09435775942491
3000.0 62.669888754240446
3070.0 62.938803429172225
3150.0 62.72606353754293
3250.0 63.396506431756876
3350.0 63.798759871110235
3450.0 64.74214385211154
3550.0 66.2061434029732
3650.0 67.26822357319246
3750.0 67.17264718870707
3870.0 66.99260182483005
4000.0 66.38792053022877
4120.0 67.48085074689892
4250.0 67.07070057812729
4370.0 66.64609287222726
4500.0 66.33212099211681
4620.0 66.65776825802885
4750.0 67.75588855198401
4870.0 68.40632834168947
5000.0 68.90677905512737
5150.0 69.17741865329471
5300.0 69.3296579451414
5450.0 69.20466751287037
5600.0 68.32321222871039
5800.0 68.31650024454702
6000.0 67.90554125113599
6150.0 66.7040468454238
6300.0 68.32270323740754
6500.0 68.00689624270788
6700.0 68.01149897903505
6900.0 67.52205863655787
7100.0 66.9303738254597
7300.0 66.9910047917323
7500.0 67.28104118591806
7750.0 68.39959980161703
8000.0 68.70688067610217
8250.0 68.12139780172689
8500.0 67.50687564849369
8750.0 68.52107823065765
9000.0 68.90691987546516
9250.0 68.56911887139012
9500.0 67.8069183122687
9750.0 68.28104406914898
10000.0 69.00692100237762
10300.0 67.48449911733826
10600.0 66.74438898881559
10900.0 67.62209037289163
11200.0 66.68103926691467
11500.0 66.50691410661327
11800.0 67.10688517009424
12200.0 67.40878429590651
12500.0 67.56221828360835
12800.0 67.38104864753473
13200.0 68.18104183271419
13600.0 68.80790705053609
14000.0 68.70778632029199
14500.0 66.58098420575139
15000.0 64.72139140707552
15500.0 65.10691972135425
16000.0 66.9221870293513
16500.0 68.12205919161164
17000.0 66.72206080337341
17500.0 65.70692144383159
18000.0 66.72206047153006
18500.0 69.70691977705299
19000.0 71.82206215898958
19500.0 72.30759103904589
