Freq "Ceiling Bounce"
22.4 59.83999927958746
23.0 60.465857275952544
23.6 60.992159159698076
24.0 61.618909801416976
25.0 62.21890980141694
25.8 62.776436178252055
26.5 63.40390692468429
27.2 63.97377663616933
28.0 64.53183881345316
29.0 65.06023655467067
30.0 65.66023655467066
30.7 66.21912930458362
31.5 66.81844816715096
32.5 67.37789079450556
33.5 67.94827118020831
34.5 68.50799265215588
35.5 69.078578322151
36.5 69.638581192224
37.5 70.20937400321449
38.7 70.76966078457045
40.0 71.330497514016
41.2 71.930497514016
42.5 72.5012357262664
43.7 73.06235742942081
45.0 73.66235742942078
46.2 74.2623574294208
47.5 74.8566725593005
48.7 75.42758719283592
50.0 76.02758719283591
51.5 76.62758719283593
53.0 77.22758719283591
54.5 77.78982856673473
56.0 78.38982856673474
58.0 78.98982856673473
60.0 79.58982856673472
61.5 80.22349685065979
63.0 80.82349685065981
65.0 81.45260953202218
67.0 82.05260953202216
69.0 82.65260953202217
71.0 83.25260953202218
73.0 83.85260953202217
75.0 84.45260953202218
77.5 85.05260953202217
80.0 85.61592692226705
82.5 86.18656646311247
85.0 86.78656646311248
87.5 87.35260953202217
90.0 87.91592692226708
92.5 88.45260953202217
95.0 89.01592692226707
97.5 89.55260953202216
100.0 90.05260953202217
103.0 90.55260953202217
106.0 91.05260953202216
109.0 91.55260953202217
112.0 92.05260953202216
115.0 92.45260953202217
118.0 92.95260953202218
122.0 93.38982856673474
125.0 93.78982856673471
128.0 94.18982856673472
132.0 94.56096514237183
136.0 94.92758719283593
140.0 95.29897445130925
145.0 95.63752777300027
150.0 95.93752777300028
155.0 96.3096325668162
160.0 96.50963256681621
165.0 96.78219812790056
170.0 97.02179738688895
175.0 97.22869245367797
180.0 97.42869245367795
185.0 97.60261155895365
190.0 97.70261155895363
195.0 97.84293979360191
200.0 97.90261155895365
206.0 98.00261155895365
212.0 98.00261155895365
218.0 98.06283617001536
224.0 98.06283617001536
230.0 98.08915630129641
236.0 98.11592538879984
240.0 98.21592538879983
250.0 98.21592538879983
258.0 98.28219812790056
265.0 98.28219812790056
272.0 98.28219812790056
280.0 98.19506458035829
290.0 98.13546263134683
300.0 98.05062128010364
307.0 97.94258273663014
315.0 97.92875610128314
325.0 97.94915203998829
335.0 98.10330383828929
345.0 98.25906263657508
355.0 98.43753193576904
365.0 98.49562483724392
375.0 98.44197022557483
387.0 98.20199903162157
400.0 97.83012177221653
412.0 97.21124970721758
425.0 96.49040221489247
437.0 95.58838259233903
450.0 94.62672208916905
462.0 93.53908938702467
475.0 92.19739559511015
487.0 90.40875984988186
500.0 87.90863608949286
515.0 84.62530753164509
530.0 82.46286727264084
545.0 85.54520516099382
560.0 89.17873585443175
580.0 91.49188145404553
600.0 92.64142122357896
615.0 92.98177997241297
630.0 92.87813636156329
650.0 92.80566507474114
670.0 93.07450358348684
690.0 93.504109166386
710.0 94.12626487750086
730.0 95.02312034399381
750.0 96.04066681957173
775.0 96.85098823501218
800.0 97.12990957385142
825.0 96.74852015458805
850.0 95.7491520399883
875.0 94.74915203998829
900.0 94.00937829065057
925.0 93.52756634145693
950.0 93.07466843276418
975.0 93.0357704295686
1000.0 93.86096514237182
1030.0 94.98652064166792
1060.0 95.7656476765358
1090.0 95.93012365263648
1120.0 95.90722706905572
1150.0 95.53736534393182
1180.0 94.99727311966744
1220.0 95.26348032238099
1250.0 95.30427244119466
1280.0 95.25730149657929
1320.0 95.52664543441658
1360.0 95.12997394682728
1400.0 95.20720618364727
1450.0 95.53341139788128
1500.0 95.23955252761748
1550.0 96.11923785438674
1600.0 95.67951478283851
1650.0 96.00072921332074
1700.0 96.00851320750934
1750.0 95.88405461574942
1800.0 95.86602649447893
1850.0 95.30084968059334
1900.0 95.41172975410157
1950.0 94.87259587131695
2000.0 94.87657938317679
2060.0 95.30586825843147
2120.0 95.88031664163967
2180.0 95.2219993670211
2240.0 94.70289359939014
2300.0 94.94812097851899
2360.0 94.08669081105177
2400.0 94.2553590714605
2500.0 94.02566228536351
2580.0 94.01172975410158
2650.0 96.15836287927837
2720.0 97.1011979489214
2800.0 96.80942555813573
2900.0 95.56534188731521
3000.0 94.93878621388876
3070.0 94.98199832327722
3150.0 94.04882433806492
3250.0 95.32355337356744
3350.0 95.22568045314932
3450.0 95.512106446973
3550.0 94.44528993868244
3650.0 93.17731026743901
3750.0 92.19996104206953
3870.0 91.77905177547797
4000.0 93.66885082383814
4120.0 92.5044481370906
4250.0 93.58594782122285
4370.0 93.64882433806493
4500.0 94.43243841400471
4620.0 94.76644862347794
4750.0 94.93916927982258
4870.0 95.57905177547796
5000.0 95.53937186872666
5150.0 94.56761436955428
5300.0 86.98421880005266
5450.0 88.79803979755803
5600.0 94.89866003876251
5800.0 95.52365816005062
6000.0 97.23449694180383
6150.0 98.30962289982695
6300.0 97.20125229338913
6500.0 97.09224640773785
6700.0 95.80996605888055
6900.0 94.999066089813
7100.0 94.412106446973
7300.0 94.39906608981299
7500.0 94.57937331174563
7750.0 93.66216583810079
8000.0 90.62307484565139
8250.0 89.49490425461165
8500.0 92.04484390561208
8750.0 96.2364527178191
9000.0 96.7235437362302
9250.0 94.59579688779124
9500.0 93.83718737242098
9750.0 95.96064015833991
10000.0 98.6320980952248
10300.0 98.25692945360458
10600.0 96.42236323694202
10900.0 94.20490006992895
11200.0 92.13601537758399
11500.0 92.1110157405021
11800.0 94.33157258835863
12200.0 94.50702124522438
12500.0 91.72554530553583
12800.0 88.45090041189646
13200.0 87.55944243379794
13600.0 83.15824935780078
14000.0 76.34264771893206
14500.0 78.63534502645288
15000.0 77.37805939623499
15500.0 73.71124970721758
16000.0 80.34879285571513
16500.0 75.62638463906274
17000.0 73.44837051955386
17500.0 71.88165166118674
18000.0 68.26127711209435
18500.0 78.89735269262825
19000.0 80.66548031762397
19500.0 79.80092086029424
