Freq "Floor Bounce"
22.4 61.430780939134635
23.0 62.03078093913466
23.6 62.53078093913466
24.0 63.130780939134624
25.0 63.691883750750904
25.8 64.2918837507509
26.5 64.7918837507509
27.2 65.36214308363627
28.0 65.89188375075089
29.0 66.4535323988424
30.0 67.0235270236658
30.7 67.55353239884239
31.5 68.08545531321472
32.5 68.61572396334576
33.5 69.14792497045669
34.5 69.68545531321475
35.5 70.24792497045668
36.5 70.77845540482842
37.5 71.31093289569462
38.7 71.91093289569459
40.0 72.44172356742318
41.2 72.97447587434
42.5 73.54172356742318
43.7 74.10552518184845
45.0 74.70552518184844
46.2 75.26985686850772
47.5 75.83855057997486
48.7 76.40315357748963
50.0 77.00315357748966
51.5 77.60315357748964
53.0 78.20315357748964
54.5 78.76828132629213
56.0 79.4000964076746
58.0 80.00009640767458
60.0 80.60009640767458
61.5 81.2000964076746
63.0 81.8000964076746
65.0 82.40009640767461
67.0 83.03241306407588
69.0 83.59856742078077
71.0 84.23241306407589
73.0 84.8324130640759
75.0 85.43241306407589
77.5 86.06523539650024
80.0 86.66523539650025
82.5 87.26523539650024
85.0 87.86523539650024
87.5 88.46523539650025
90.0 89.03164556962027
92.5 89.63164556962026
95.0 90.23164556962027
97.5 90.83164556962026
100.0 91.39856742078076
103.0 91.96523539650025
106.0 92.49856742078076
109.0 93.09856742078077
112.0 93.59856742078075
115.0 94.13241306407588
118.0 94.63241306407589
122.0 95.13241306407588
125.0 95.59856742078077
128.0 96.06523539650024
132.0 96.49856742078076
136.0 96.89856742078076
140.0 97.26523539650024
145.0 97.59856742078075
150.0 97.96523539650023
155.0 98.19856742078076
160.0 98.46523539650025
165.0 98.66523539650025
170.0 98.83164556962026
175.0 98.93164556962027
180.0 99.03164556962027
185.0 99.03164556962027
190.0 99.03164556962027
195.0 99.03164556962027
200.0 98.93164556962027
206.0 98.83164556962026
212.0 98.69856742078078
218.0 98.56599697830528
224.0 98.4000964076746
230.0 98.27208724907517
236.0 98.07741276400496
240.0 97.92147413635499
250.0 97.69753403021713
258.0 97.50827355215931
265.0 97.30827355215932
272.0 97.04792340139774
280.0 96.84792340139774
290.0 96.60827355215932
300.0 96.34127813643647
307.0 96.10247527246325
315.0 96.00247527246326
325.0 95.99753403021715
335.0 96.12636486081232
345.0 96.3535323988424
355.0 96.58402357700109
365.0 96.74099218858414
375.0 96.7047876809811
387.0 96.53471514066278
400.0 96.16828132629213
412.0 95.74151185634356
425.0 95.15514242028007
437.0 94.45344295650922
450.0 93.69668494552779
462.0 92.83355122764736
475.0 91.83773887810415
487.0 90.77199725058871
500.0 89.75061135465762
515.0 88.96133430903954
530.0 88.7311414250519
545.0 89.0125471044484
560.0 89.5333790094296
580.0 89.99596635668868
600.0 90.41628342941092
615.0 90.95060410131319
630.0 91.6714549371513
650.0 92.64885606884015
670.0 93.75067791326826
690.0 94.82854541705716
710.0 95.85861377256255
730.0 96.85344609645999
750.0 97.67908456048761
775.0 98.19301394584791
800.0 98.21738472610997
825.0 97.77019640104074
850.0 96.70827355215931
875.0 95.44391735277645
900.0 94.2691132851334
925.0 93.39400299904106
950.0 93.01790830807512
975.0 93.33581119244005
1000.0 93.92681605841682
1030.0 94.48198538245445
1060.0 95.02558500357077
1090.0 95.62237713597868
1120.0 96.12103298744704
1150.0 96.44337532372184
1180.0 96.46551303801974
1220.0 96.40534389680556
1250.0 96.13152465872227
1280.0 96.21981657813757
1320.0 97.14563513336157
1360.0 97.36900061718272
1400.0 97.26176922225673
1450.0 97.51342554203323
1500.0 97.6499723387591
1550.0 97.66473494639104
1600.0 97.92204778451274
1650.0 98.58716183757637
1700.0 98.18974956394453
1750.0 97.83694052091559
1800.0 97.38803123790039
1850.0 97.63364460124183
1900.0 97.62437322300238
1950.0 97.67639854152907
2000.0 97.61443983789799
2060.0 97.70861768920292
2120.0 97.45514242028005
2180.0 96.81093289569458
2240.0 96.37775960101902
2300.0 95.95281961051661
2360.0 95.93867803990084
2400.0 95.86578272813294
2500.0 96.13524948512574
2580.0 96.43694052091558
2650.0 97.0680264500117
2720.0 98.10448150319074
2800.0 98.14079866493977
2900.0 97.0071693422227
3000.0 97.10734138480267
3070.0 96.93647812333215
3150.0 96.59169179968366
3250.0 96.54200990424147
3350.0 97.39639247776829
3450.0 96.7536865964961
3550.0 96.82918928397109
3650.0 95.4863627208866
3750.0 94.85344155985966
3870.0 94.95313642349177
4000.0 95.6692352585152
4120.0 95.22482044468919
4250.0 95.18099447131748
4370.0 95.81609319325037
4500.0 96.36487450760067
4620.0 96.64875647590773
4750.0 97.4849913223463
4870.0 98.23682302195046
5000.0 98.32402455771826
5150.0 98.76176622936835
5300.0 99.4499717043025
5450.0 99.44126808038233
5600.0 97.72595301506692
5800.0 97.00465766206436
6000.0 96.838872638676
6150.0 97.43731064436142
6300.0 98.60058359635299
6500.0 99.36487450760067
6700.0 99.15709680370736
6900.0 98.25488614965009
7100.0 97.923846041136
7300.0 96.85807854704534
7500.0 96.84793068115351
7750.0 97.50978193118355
8000.0 98.60548070588874
8250.0 101.14820556279633
8500.0 102.72384604113599
8750.0 102.65709680370736
9000.0 100.42595301506691
9250.0 95.99503332213389
9500.0 94.18788052744863
9750.0 96.53868560594998
10000.0 97.82595301506691
10300.0 99.10058359635299
10600.0 98.23406235528816
10900.0 95.67085685284977
11200.0 93.90491829452509
11500.0 93.40774851545525
11800.0 95.41023148521172
12200.0 95.20427577999148
12500.0 90.75686416874458
12800.0 89.52526669321716
13200.0 93.0416116285008
13600.0 93.29918051579843
14000.0 90.91343179244235
14500.0 89.0726924542724
15000.0 86.6149616952755
15500.0 86.47832468417484
16000.0 95.28860216393628
16500.0 90.40827033687054
17000.0 89.1420039561763
17500.0 87.50637104837763
18000.0 88.29093244543338
18500.0 88.9670445493329
19000.0 85.32822603773816
19500.0 82.45682052898765
