Freq "Side Wall Bounce"
22.4 58.65326842991065
23.0 59.269058939056364
23.6 59.85947050710321
24.0 60.46951030599878
25.0 61.0543732637981
25.8 61.65437326379809
26.5 62.244971554355274
27.2 62.80696022173181
28.0 63.38037869961725
29.0 63.990602796964495
30.0 64.55275053791233
30.7 65.10030304084653
31.5 65.71071717184522
32.5 66.27773117469728
33.5 66.8539215526438
34.5 67.41218034895631
35.5 67.98156552086802
36.5 68.58204777676407
37.5 69.14312688288312
38.7 69.74994274231649
40.0 70.33694614855047
41.2 70.92391054471607
42.5 71.52391054471606
43.7 72.11063321755155
45.0 72.71766004744832
46.2 73.29203179907749
47.5 73.91041368822088
48.7 74.51760442176241
50.0 75.13604526655341
51.5 75.7433600897236
53.0 76.37243172998052
54.5 76.99615646623745
56.0 77.6259804755122
58.0 78.23348288783717
60.0 78.86672064535436
61.5 79.48796231871998
63.0 80.12450071400214
65.0 80.75816235176981
67.0 81.35816235176979
69.0 82.0253759179994
71.0 82.65433425347068
73.0 83.2714718100664
75.0 83.9295655359854
77.5 84.54698743002332
80.0 85.14698743002332
82.5 85.78246448154557
85.0 86.42090241302364
87.5 87.01847035379332
90.0 87.61847035379331
92.5 88.2070705603932
95.0 88.81380394750516
97.5 89.3845993535888
100.0 89.96287941779066
103.0 90.54028269013263
106.0 91.0809815588288
109.0 91.62945122158676
112.0 92.15847906612115
115.0 92.67867286628532
118.0 93.17867286628534
122.0 93.65834592787111
125.0 94.11954919618573
128.0 94.5583459278711
132.0 94.98034398400371
136.0 95.38331407992295
140.0 95.74412676659647
145.0 96.08511573720713
150.0 96.4077527553937
155.0 96.67088258202968
160.0 96.92390208577567
165.0 97.14738047356566
170.0 97.32049547048824
175.0 97.46809275602827
180.0 97.57788484112909
185.0 97.63436585642246
190.0 97.69141197191344
195.0 97.67571281057117
200.0 97.65175407405047
206.0 97.59390828369672
212.0 97.4988949004805
218.0 97.39298975872894
224.0 97.27558687642814
230.0 97.1501739983846
236.0 97.0072650626631
240.0 96.85956445316687
250.0 96.69121902251639
258.0 96.54377702789837
265.0 96.31538194679516
272.0 96.06218329116356
280.0 95.73841622332442
290.0 95.36823033354999
300.0 94.92944933453093
307.0 94.47142761171825
315.0 94.02919204861999
325.0 93.60886061128221
335.0 93.29273495318108
345.0 93.1114367033533
355.0 92.9912041217695
365.0 92.88412658108975
375.0 92.75247168719756
387.0 92.5533232341775
400.0 92.31726983544218
412.0 92.04282075873253
425.0 91.822359672459
437.0 91.74433346276906
450.0 91.8393873798445
462.0 92.02307562709998
475.0 92.25485711820623
487.0 92.45980349532297
500.0 92.60279334472219
515.0 92.60788896947696
530.0 92.53010065327915
545.0 92.27600433140493
560.0 91.86063840413001
580.0 91.34609382096671
600.0 90.87597443173547
615.0 90.67658010258712
630.0 90.91424924187713
650.0 91.63151981535727
670.0 92.6324484050926
690.0 93.63717665631022
710.0 94.5349881810142
730.0 95.30266370445727
750.0 95.85718251047022
775.0 96.11725704736233
800.0 95.99654767296795
825.0 95.35680200959054
850.0 94.35910418679653
875.0 93.33811270049958
900.0 92.5101483485745
925.0 92.10476604565076
950.0 92.15518252849944
975.0 92.17550905028425
1000.0 91.9845764478011
1030.0 91.87883036141044
1060.0 91.91986192254312
1090.0 91.8056700444982
1120.0 91.87499719396978
1150.0 92.20176478928113
1180.0 92.59665920506127
1220.0 93.3820956820825
1250.0 93.97857004959359
1280.0 94.29325061237721
1320.0 94.191665698787
1360.0 93.84901566977355
1400.0 93.58584237942192
1450.0 93.49577526950104
1500.0 93.26063202384823
1550.0 93.02532915748905
1600.0 92.7991452412726
1650.0 92.92955303007875
1700.0 92.48929850895829
1750.0 92.1643741089971
1800.0 91.85257698474092
1850.0 91.41543290266101
1900.0 91.40756076006163
1950.0 91.23778934473428
2000.0 91.40916739050158
2060.0 91.85639913068707
2120.0 92.19112926962654
2180.0 91.51577871823395
2240.0 90.82598414723766
2300.0 90.45702990322717
2360.0 90.4480527177974
2400.0 90.68589069105431
2500.0 90.64992874072125
2580.0 90.7821296014936
2650.0 92.46094439953829
2720.0 93.41204459314032
2800.0 93.37672115051409
2900.0 92.31373941047184
3000.0 91.25834997794985
3070.0 90.97694865360815
3150.0 91.00142609675142
3250.0 91.39818331458446
3350.0 91.48887696894735
3450.0 91.15710983750519
3550.0 90.25203724477292
3650.0 89.50392310843257
3750.0 88.8340564821433
3870.0 88.68764860022847
4000.0 89.22033044908976
4120.0 88.97295310122156
4250.0 89.5079062933699
4370.0 89.94699103537859
4500.0 90.10494289627283
4620.0 90.37897301969916
4750.0 91.4040780657313
4870.0 91.80921869015695
5000.0 92.51219839087108
5150.0 93.01564515900556
5300.0 92.67535866698118
5450.0 93.2944898223028
5600.0 92.94205962114778
5800.0 91.39280627059736
6000.0 92.05219312161384
6150.0 92.96581695064285
6300.0 93.22180015981742
6500.0 93.57843616785625
6700.0 92.67694624085956
6900.0 91.79231143496362
7100.0 91.51180703946837
7300.0 90.8770306922885
7500.0 90.83384462923416
7750.0 90.75562687941849
8000.0 90.76589955768905
8250.0 92.361745896529
8500.0 93.58748898867601
8750.0 93.56438700084442
9000.0 91.84674964902678
9250.0 93.03627037243557
9500.0 91.36261506747168
9750.0 92.7089176488425
10000.0 91.53108277289166
10300.0 91.70127391644034
10600.0 90.640874751981
10900.0 88.25451088487456
11200.0 86.15572003209715
11500.0 86.04294758345426
11800.0 84.57346124635292
12200.0 85.74692653081645
12500.0 85.92799793426497
12800.0 82.34192195707855
13200.0 76.90117383190208
13600.0 76.78859980113195
14000.0 76.55370199056765
14500.0 74.67695515354659
15000.0 74.51413721080006
15500.0 73.81076496747438
16000.0 78.14729380894009
16500.0 76.16344691298055
17000.0 75.4921440321887
17500.0 73.72589136474538
18000.0 71.15687575056414
18500.0 77.06712466850784
19000.0 74.9373001289449
19500.0 75.31887606683246
