Freq "Rear Wall Bounce"
20.5078 69.23354043732762
21.2402 70.37957076976738
21.9727 71.33949128296085
22.7051 72.15217095844488
23.4375 72.70177592862251
24.1699 73.15081395674306
25.6348 74.73516825742414
26.3672 75.66464324152359
27.0996 76.4022807582682
27.832 76.64125176541812
29.2969 77.13950867203073
30.0293 77.31205502417268
31.4941 78.21717070211439
32.2266 78.43545546835054
33.6914 78.87475738590366
34.4238 79.21563085132743
35.8887 79.48733195208453
37.3535 79.97390456426186
38.8184 80.39309230207661
39.5508 80.54178656327669
41.0156 80.88989838548524
42.4805 81.18081922196129
43.9453 81.59825540474243
45.4102 81.96140153234437
47.6074 82.48107745783973
49.0723 82.89084675182792
50.5371 83.28276412287644
52.7344 83.79564517077105
54.1992 84.11150400217997
56.3965 84.66097565547955
58.5938 85.2182226675031
60.0586 85.46244619936732
62.2559 85.77651406205186
64.4531 86.32063176380018
66.6504 86.5840689481252
69.5801 87.01280840425876
71.7773 87.23945855608268
73.9746 87.42085701975174
76.9043 87.54730549596891
79.834 87.51727732689855
82.7637 87.50987926133892
85.6934 87.72246803489958
88.623 87.5949147612775
91.5527 87.41756717313368
94.4824 87.29215642913238
98.1445 87.14588677906275
101.807 86.95051394182191
105.469 86.5988997655413
109.131 86.22914154362638
112.793 85.98669996432895
116.455 85.79787651975975
120.85 85.45375010834822
125.244 85.21723236093662
129.639 85.19759336726746
134.033 84.77328753072645
138.428 84.33927028999217
143.555 84.3112325482942
148.682 83.79241769389306
153.809 83.72368947254836
159.668 83.40784062281443
164.795 82.89577670444855
170.654 82.8651664891503
176.514 82.25050092649164
183.105 81.84283492829292
189.697 81.89262024974339
196.289 81.51969266992879
202.881 81.24446835004268
210.205 80.94329741634941
217.529 80.80256684342454
225.586 80.26526829629279
232.91 79.9914920650655
241.699 79.80653029955931
249.756 79.61696482349095
258.545 79.19244461014627
268.066 79.73043575735625
277.588 79.01203690245485
287.109 78.98684758058911
297.363 78.25508859489769
307.617 77.56641652568096
318.604 77.58861193339688
329.59 77.45302351418769
341.309 78.16446667514123
353.76 77.54049679356052
366.211 76.48337250993515
378.662 77.137701309842
392.578 76.98353031863826
405.762 76.38401092737283
420.41 75.39404175360008
435.059 75.93211880473274
450.439 77.36679507559951
466.553 76.88809970542114
482.666 77.06873520597424
500.244 77.49761352527872
517.822 77.37923010551472
536.133 77.85202837197016
554.443 78.36908473810145
574.219 78.92779374685139
594.727 78.38285923225467
615.234 78.04863510083702
637.207 79.48114223203778
659.912 81.5863033427274
683.35 82.28916189405926
706.787 79.14878359356177
731.689 77.01770311470364
758.057 76.1465394380242
784.424 75.30826254294499
812.256 74.55557162061854
840.82 74.98537468565344
870.85 75.63562460388334
901.611 75.54557922352751
933.105 76.78597572753637
966.064 76.58426687522754
999.756 76.21439514507773
1034.91 75.90435895508006
1071.53 74.7566097420415
1109.62 74.46682335982018
1148.44 74.87669781598119
1189.45 75.75183608686339
1231.2 75.07735712636351
1274.41 74.57234353843288
1319.82 73.28109327652261
1365.97 74.01563403120879
1414.31 74.3952619858578
1464.11 75.66035351312368
1515.38 76.19046331379087
1568.85 75.83092350563379
1624.51 74.71577710622259
1681.64 74.06302780452566
1740.97 74.21780504515414
1802.49 73.9954539321356
1866.21 73.63923195906608
1932.13 71.93378301577467
2000.24 71.0888846277599
2070.56 69.10787906935496
2143.8 67.64458575967457
2219.24 67.65710126197443
2297.61 68.72203971704745
2378.17 67.662334584892
2462.4 68.85393103628823
2548.83 69.04112216999717
2638.92 70.14227654121807
2731.93 69.46550722623029
2828.61 69.79885591112182
2928.22 69.3269182922901
3031.49 69.86566776048389
3138.43 70.38214062206951
3249.02 70.41712504525404
3363.28 70.30714597127283
3481.93 71.15841191007615
3604.98 70.76946299779553
3732.42 70.88463504172742
3863.53 71.21043446905705
3999.76 71.1848772089611
4141.11 71.1541199902268
4286.87 71.07776015688087
4438.48 71.53575026445678
4594.48 70.5152317367872
4757.08 70.45027510488976
4924.8 70.39321687754556
5098.39 69.49351531011648
5277.83 70.71524453197554
5463.87 70.21633240398619
5656.49 70.54168349674949
5856.45 70.94727399243072
6062.99 70.35651920632037
6276.86 70.25704929458558
6498.05 70.09013639065549
6727.29 69.60104498956223
6964.6 69.0016712375776
7209.96 68.57034070456754
7464.11 68.28242150695459
7727.78 66.74417281598329
8000.24 65.73646581899813
8282.23 64.74129691970774
8574.46 64.46117595796491
8876.22 64.28875235606168
9189.7 63.517682931976
9513.43 62.71582595326578
9848.88 61.65935862350949
10196.8 60.267086230318455
10556.4 60.318737014838064
10928.5 60.207958694032385
11313.7 60.06730812874713
11712.9 60.52704976565815
12126.0 60.54714173099464
12553.7 60.284000928614915
12996.1 60.46328314611367
13454.6 60.156120332594156
13928.5 58.891711339008225
14419.9 57.23197495820577
14928.2 54.9004494753371
15454.8 52.76908704709527
15999.8 51.69157381140178
16564.5 51.89182791107743
17148.2 52.211046872200455
17753.2 50.88136972957173
18379.4 48.08924109678361
19027.6 42.89497168356334
19698.5 41.205724427189864
19999.5 45.60075336454679
