Freq "Side Wall Bounce"
20.5078 45.55400188422074
21.9727 54.714963404171485
23.4375 58.35868248074409
24.9023 60.60436502596737
26.3672 62.33642974421066
27.832 64.22538256884427
29.2969 66.256655231013
30.7617 67.90994395790345
32.2266 69.53930990102886
33.6914 71.01382128785731
35.1562 72.51604431100408
36.6211 73.75334782063797
38.0859 74.89595567228088
39.5508 76.07100541147028
41.0156 77.35686346909648
42.4805 78.16331166584767
43.9453 78.98048920592444
45.4102 79.80003449774574
46.875 80.57039981520604
48.3398 81.30775171852179
51.2695 82.53193294753154
52.7344 83.08762074193939
54.1992 83.56005447476336
55.6641 84.05717555387724
58.5938 84.80933449506337
60.0586 85.1565355281491
62.9883 85.85691901219757
64.4531 86.14571871080673
67.3828 86.56927685185103
68.8477 86.74625269037135
71.7773 87.13427276514365
74.707 87.53764060747238
77.6367 87.83547603792044
79.1016 87.93422776619877
82.0312 88.07759274240131
84.9609 88.18838101305768
87.8906 88.2683058471079
90.8203 88.37022121232772
95.2148 88.45731758708875
98.1445 88.51424766141591
101.074 88.47949163183965
105.469 88.49410166431328
108.398 88.56334445812807
112.793 88.53380431561938
117.188 88.4662593259981
120.117 88.48209062683834
124.512 88.4370570616323
128.906 88.18510397339058
133.301 88.05973510984201
139.16 87.98365160584463
143.555 87.89497989558272
147.949 87.67641512917571
153.809 87.46119089496989
159.668 87.5060200038062
165.527 87.46858470938764
171.387 87.30246714168646
177.246 87.20049266624403
183.105 87.02089798451561
188.965 86.78095227898145
196.289 86.82566063323127
203.613 86.80214274950127
210.938 86.60924267894838
218.262 86.3268445464795
225.586 86.41581213722364
232.91 86.30722823705847
241.699 86.07379218577215
250.488 86.1019088734836
259.277 86.0520371319741
268.066 85.5530965046923
276.855 85.29506022814006
287.109 84.35054479851489
297.363 85.4903307849572
307.617 85.63277115205405
319.336 85.31575665075721
329.59 85.32927535792712
341.309 84.84749974333927
353.027 84.9341945690286
366.211 84.87961161105176
379.395 85.24448381364844
392.578 85.0539340960627
405.762 85.08892789971644
420.41 85.83507594595818
435.059 85.60574881509483
451.172 85.84438450300811
465.82 85.60162392908305
483.398 85.22274495179506
499.512 85.51204747589809
517.09 85.06811198421718
536.133 84.96918099273984
555.176 85.35254655642298
574.219 85.35862272289003
594.727 85.00770194405754
615.234 86.16314427331554
637.207 86.90296017491055
659.18 86.39764602712573
682.617 86.32982265768449
707.52 86.25975250706695
732.422 85.96650355125847
757.324 85.88068407138094
785.156 85.89617842681352
811.523 85.62123909620254
840.82 85.89294499033424
870.117 85.7152774820271
900.879 85.85797842151335
933.105 84.72989530898538
965.332 84.79414698113327
1000.49 84.35276593557565
1035.64 84.01881161320298
1072.27 84.06153439484456
1108.89 82.48917586383583
1148.44 80.80341824898974
1189.45 81.22991414993692
1230.47 80.93070773331955
1274.41 81.624991123402
1319.82 82.52337093675241
1366.7 83.70201376508705
1413.57 83.85866409346164
1463.38 83.28324059734065
1516.11 82.46402519300086
1568.85 81.5598543604339
1624.51 81.8817901268632
1681.64 82.61949117056032
1741.7 82.2539062508114
1803.22 82.7618560758545
1866.21 82.40332932854635
1932.13 82.08753024818066
1999.51 83.12164914399874
2069.82 83.57382753180914
2143.07 83.1493148805841
2219.24 82.11530817970915
2296.88 82.0828152485517
2378.91 82.74575844047517
2462.4 83.49992604865116
2548.83 83.04489364239042
2639.65 81.76480605823053
2731.93 81.52317068453677
2828.61 81.93543231007318
2928.22 82.39931432468538
3030.76 82.35298500901517
3137.7 81.98543730813797
3249.02 81.5208501692496
3363.28 81.3591972843527
3481.93 81.80027419302102
3604.98 82.34078280379885
3732.42 82.9970522220262
3864.26 81.58455916696356
4000.49 82.13626746758274
4141.11 83.77674887096022
4287.6 83.55328600235651
4438.48 83.71978057479991
4595.21 83.9984775474517
4756.35 84.44378836903321
4924.8 84.44105415078319
5097.66 84.36008358057614
5277.83 84.50868985348414
5463.87 84.29431726946645
5657.23 84.37040321449798
5856.45 83.84650599741106
6062.99 84.11440394724396
6276.86 83.48090992468082
6498.05 83.79110633718501
6726.56 83.73029703307965
6963.87 83.23540022578361
7209.96 83.717223340272
7464.84 82.83613267546009
7727.05 82.7830693118532
7999.51 82.43063260145222
8282.23 82.73776477659915
8573.73 82.38219478488917
8876.95 82.06169974752241
9188.96 81.83278771494965
9514.16 81.60671107379314
9849.61 81.0482695985936
10196.8 80.95336014788475
10555.7 81.13342443327421
10927.7 81.45390487845668
11313.0 81.57677631919778
11712.9 81.5017730123051
12126.0 81.66878399400103
12553.7 81.42931824560524
12996.1 80.93988578804237
13454.6 80.80306265880277
13929.2 80.55531619247122
14419.9 79.78261785207603
14928.2 78.38406840962918
15455.6 77.16908741554995
16000.5 78.78830592732747
16564.5 76.65090361431477
17148.9 73.01971231198544
17752.4 71.05445341652747
18379.4 69.71326542590411
19026.9 68.33120307530505
19697.8 66.38184217395774
19999.5 65.40677148921506
