Freq "Side Wall Bounce"
20.5078 45.6501776417965
21.9727 54.81113916174728
23.4375 58.454858238319886
24.9023 60.70054078354316
26.3672 62.432605501786455
27.832 64.32155832642006
29.2969 66.35283098858878
30.7617 68.00611971547924
32.2266 69.63548565860465
33.6914 71.10999704543308
35.1562 72.61222006857987
36.6211 73.84952357821376
38.0859 74.99213142985666
39.5508 76.16718116904606
41.0156 77.45303922667226
42.4805 78.25948742342347
43.9453 79.07666496350022
45.4102 79.89621025532153
46.875 80.66657557278181
48.3398 81.40392747609755
51.2695 82.62810870510734
52.7344 83.18379649951518
54.1992 83.65623023233915
55.6641 84.15335131145301
58.5938 84.90551025263915
60.0586 85.25271128572487
62.9883 85.95309476977336
64.4531 86.24189446838253
67.3828 86.6654526094268
68.8477 86.84242844794711
71.7773 87.23044852271943
74.707 87.63381636504816
77.6367 87.93165179549621
79.1016 88.03040352377455
82.0312 88.1737684999771
84.9609 88.28455677063347
87.8906 88.36448160468366
90.8203 88.4663969699035
95.2148 88.55349334466455
98.1445 88.61042341899169
101.074 88.57566738941544
105.469 88.59027742188904
108.398 88.65952021570384
112.793 88.62998007319514
117.188 88.56243508357387
120.117 88.5782663844141
124.512 88.53323281920808
128.906 88.28127973096636
133.301 88.15591086741777
139.16 88.0798273634204
143.555 87.99115565315849
147.949 87.7725908867515
153.809 87.55736665254568
159.668 87.60219576138199
165.527 87.56476046696343
171.387 87.39864289926226
177.246 87.29666842381982
183.105 87.1170737420914
188.965 86.87712803655724
196.289 86.92183639080706
203.613 86.89831850707706
210.938 86.70541843652416
218.262 86.4230203040553
225.586 86.51198789479942
232.91 86.40340399463425
241.699 86.16996794334794
250.488 86.19808463105936
259.277 86.14821288954987
268.066 85.6492722622681
276.855 85.39123598571582
287.109 84.44672055609065
297.363 85.58650654253299
307.617 85.72894690962983
319.336 85.41193240833297
329.59 85.4254511155029
341.309 84.94367550091506
353.027 85.0303703266044
366.211 84.97578736862752
379.395 85.34065957122422
392.578 85.15010985363847
405.762 85.18510365729222
420.41 85.93125170353396
435.059 85.70192457267059
451.172 85.94056026058391
465.82 85.69779968665883
483.398 85.31892070937084
499.512 85.60822323347385
517.09 85.16428774179298
536.133 85.0653567503156
555.176 85.44872231399874
574.219 85.45479848046581
594.727 85.10387770163332
615.234 86.25932003089132
637.207 86.99913593248633
659.18 86.4938217847015
682.617 86.42599841526028
707.52 86.35592826464271
732.422 86.06267930883426
757.324 85.9768598289567
785.156 85.9923541843893
811.523 85.71741485377831
840.82 85.98912074791004
870.117 85.81145323960288
900.879 85.95415417908912
933.105 84.82607106656117
965.332 84.89032273870906
1000.49 84.44894169315143
1035.64 84.11498737077878
1072.27 84.15771015242032
1108.89 82.58535162141159
1148.44 80.89959400656552
1189.45 81.3260899075127
1230.47 81.02688349089533
1274.41 81.72116688097778
1319.82 82.61954669432819
1366.7 83.79818952266281
1413.57 83.95483985103742
1463.38 83.37941635491644
1516.11 82.56020095057664
1568.85 81.65603011800968
1624.51 81.97796588443897
1681.64 82.71566692813609
1741.7 82.35008200838716
1803.22 82.85803183343027
1866.21 82.49950508612214
1932.13 82.18370600575643
1999.51 83.2178249015745
2069.82 83.67000328938492
2143.07 83.24549063815988
2219.24 82.21148393728494
2296.88 82.17899100612748
2378.91 82.84193419805095
2462.4 83.59610180622694
2548.83 83.14106939996621
2639.65 81.86098181580631
2731.93 81.61934644211256
2828.61 82.03160806764897
2928.22 82.49549008226116
3030.76 82.44916076659096
3137.7 82.08161306571377
3249.02 81.61702592682538
3363.28 81.45537304192847
3481.93 81.89644995059682
3604.98 82.43695856137462
3732.42 83.09322797960196
3864.26 81.68073492453935
4000.49 82.23244322515853
4141.11 83.87292462853598
4287.6 83.64946175993228
4438.48 83.81595633237568
4595.21 84.09465330502748
4756.35 84.539964126609
4924.8 84.53722990835898
5097.66 84.45625933815194
5277.83 84.6048656110599
5463.87 84.39049302704223
5657.23 84.46657897207376
5856.45 83.94268175498682
6062.99 84.21057970481975
6276.86 83.57708568225661
6498.05 83.88728209476079
6726.56 83.82647279065544
6963.87 83.33157598335939
7209.96 83.81339909784778
7464.84 82.93230843303586
7727.05 82.87924506942899
7999.51 82.52680835902798
8282.23 82.83394053417491
8573.73 82.47837054246493
8876.95 82.15787550509818
9188.96 81.92896347252544
9514.16 81.70288683136891
9849.61 81.14444535616938
10196.8 81.04953590546053
10555.7 81.22960019085
10927.7 81.55008063603246
11313.0 81.67295207677357
11712.9 81.59794876988089
12126.0 81.7649597515768
12553.7 81.52549400318102
12996.1 81.03606154561817
13454.6 80.89923841637855
13929.2 80.651491950047
14419.9 79.87879360965181
14928.2 78.48024416720494
15455.6 77.26526317312572
16000.5 78.88448168490324
16564.5 76.74707937189055
17148.9 73.11588806956122
17752.4 71.15062917410326
18379.4 69.8094411834799
19026.9 68.42737883288082
19697.8 66.4780179315335
19999.5 65.50294724679085
