Freq "Rear Wall Bounce"
22.4 1.4717652729433937
23.0 1.9112497169082516
23.6 3.922124521145996
24.0 9.340512305306042
25.0 12.166775813358036
25.8 13.990596600566384
26.5 15.995514785248808
27.2 20.059899842874465
28.0 22.578304898543045
29.0 24.23739235409851
30.0 25.436931441096753
30.7 26.358429200395157
31.5 27.130455766362267
32.5 28.19364161903865
33.5 31.001982354258608
34.5 33.38299079345071
35.5 35.50452514620225
36.5 38.674761766213884
37.5 40.98704765415322
38.7 42.31847487935679
40.0 42.938770878021565
41.2 43.72582767041067
42.5 44.78778690106373
43.7 45.619890494881595
45.0 46.688932993053164
46.2 48.43288213385096
47.5 49.62877829286372
48.7 50.668632953490096
50.0 51.98046013653447
51.5 53.66851961077091
53.0 54.67669212635922
54.5 55.26747541614974
56.0 55.76771406085192
58.0 56.294338202886514
60.0 56.63389832144188
61.5 56.82587133228767
63.0 56.93596836831636
65.0 57.05472825743568
67.0 56.88941426534938
69.0 56.69542193773457
71.0 56.59019700710055
73.0 56.755537434825406
75.0 56.95966645014692
77.5 57.11211441658099
80.0 57.37136593243307
82.5 57.690548276889025
85.0 58.04376307762836
87.5 58.29762080732973
90.0 58.30226876898842
92.5 58.108417080356965
95.0 57.68640240399062
97.5 57.54444015275326
100.0 57.37439430983314
103.0 57.290429009122185
106.0 57.25853933835466
109.0 57.33349094149437
112.0 57.18871605840453
115.0 57.01027233589222
118.0 57.09473620614197
122.0 57.134223663071204
125.0 57.115287689141645
128.0 57.0361926966357
132.0 57.16605868935158
136.0 57.49101170720257
140.0 57.537820572781804
145.0 57.32738856017493
150.0 57.143229141172235
155.0 56.90616819595703
160.0 56.864408574190556
165.0 56.7646473874705
170.0 56.68023662947248
175.0 56.34924164731755
180.0 56.08741989691551
185.0 56.388364680816316
190.0 57.181599659554145
195.0 57.45738852553962
200.0 57.47956485491368
206.0 57.16629862175497
212.0 56.64699143231612
218.0 56.192943074113224
224.0 55.718016812853186
230.0 55.44338627174974
236.0 55.34508842338223
240.0 55.32328058652828
250.0 55.52254026865864
258.0 55.80030353265058
265.0 56.13362976841075
272.0 56.18668021788394
280.0 56.31417271505557
290.0 56.3713350686455
300.0 56.46725200541325
307.0 56.58015996163157
315.0 56.793437604883984
325.0 56.882071406502085
335.0 56.55424369907387
345.0 55.77474899052796
355.0 55.172216906877686
365.0 55.0933547644862
375.0 55.04655279924621
387.0 54.769199659685874
400.0 54.360031652461906
412.0 53.51178219021276
425.0 53.0450298753181
437.0 53.0528654034405
450.0 53.18263915973046
462.0 53.64344199450533
475.0 54.58583227628606
487.0 55.33999362883973
500.0 54.54948477000051
515.0 53.4621720498611
530.0 52.61303397842655
545.0 52.13083805382659
560.0 51.639069667434946
580.0 51.249146573822124
600.0 51.40185225021329
615.0 52.64079178816308
630.0 53.4971007096837
650.0 53.48108113503854
670.0 53.04001716337822
690.0 52.016351658885405
710.0 51.75556122397365
730.0 51.80468353660053
750.0 51.09044365178948
775.0 50.9663892317507
800.0 51.44341980358397
825.0 51.52260375543427
850.0 51.24319065796043
875.0 50.61310580881942
900.0 49.548272964615855
925.0 49.30934481617526
950.0 50.12787687959865
975.0 50.34512116121865
1000.0 49.48699406861481
1030.0 49.863173398351115
1060.0 48.49593813508164
1090.0 47.75925115466115
1120.0 47.30363118144056
1150.0 46.35402858393905
1180.0 47.09896474699972
1220.0 47.040936798777985
1250.0 46.6514249281439
1280.0 45.78082070822553
1320.0 45.8512432765395
1360.0 45.51584586258809
1400.0 45.21743189045056
1450.0 45.90558496995184
1500.0 45.63572172397627
1550.0 45.176061890503654
1600.0 44.65843423036167
1650.0 45.24183830894237
1700.0 45.291154116365526
1750.0 44.89559891045764
1800.0 43.812878248266394
1850.0 44.33194977549186
1900.0 44.29104829836482
1950.0 44.243842042717425
2000.0 44.55313486625496
2060.0 44.17568223874708
2120.0 44.52755488500201
2180.0 44.60846635187591
2240.0 44.0744617431561
2300.0 43.92453267549461
2360.0 43.013049178577226
2400.0 43.41014159582746
2500.0 42.654427082325064
2580.0 42.259452058133625
2650.0 42.16596882894144
2720.0 41.77906608037927
2800.0 43.22328204694684
2900.0 43.04525754434726
3000.0 43.203598140288044
3070.0 41.80618159490172
3150.0 42.80794714669212
3250.0 42.23237984199425
3350.0 41.95174385562209
3450.0 41.46268006025358
3550.0 41.4986018945795
3650.0 41.762659091186485
3750.0 41.89710289913051
3870.0 41.648420421889845
4000.0 41.73009078568207
4120.0 41.08370705937869
4250.0 41.273888338761076
4370.0 40.756803087582576
4500.0 40.39760741649132
4620.0 39.68988009422039
4750.0 39.44672039912354
4870.0 39.596582235347746
5000.0 39.0731842989862
5150.0 38.6810666772864
5300.0 38.429297053597956
5450.0 37.18135092432126
5600.0 36.28328649596039
5800.0 35.86019446518775
6000.0 37.27967315250702
6150.0 37.884367059312716
6300.0 37.67381423983996
6500.0 37.23900144505091
6700.0 37.14495333476001
6900.0 36.30342566062668
7100.0 35.67836350575747
7300.0 34.7673878032622
7500.0 35.10114726704432
7750.0 35.29459962601637
8000.0 36.487190928894925
8250.0 34.72778298247416
8500.0 33.27485896128277
8750.0 33.49268569833463
9000.0 33.33546577021348
9250.0 33.52374663876724
9500.0 33.771112467129505
9750.0 33.8265984256285
10000.0 32.24380726604178
10300.0 31.558776119603543
10600.0 32.92540080942043
10900.0 32.564219135222196
11200.0 31.019043037852548
11500.0 30.03655336486758
11800.0 29.596652053754177
12200.0 30.67369580001587
12500.0 30.92964356619114
12800.0 29.68938840551109
13200.0 29.72303528657357
13600.0 30.781670674158413
14000.0 30.835182241527797
14500.0 29.42253753662623
15000.0 30.721212868526315
15500.0 30.78733469054918
16000.0 29.80234317887612
16500.0 28.940013006738518
17000.0 28.522089985165955
17500.0 28.357394076275817
18000.0 28.315340247222842
18500.0 28.1866749916885
19000.0 28.451569398445677
19500.0 27.039180611370647
