Freq,On Axis,Listening Window,Sound Power,Early Reflections,Early Reflections DI,Sound Power DI,DI offset
22.4,-14.59999999999998,-14.564768692028807,-15.38277065510654,-14.937982629762658,30.37321393773385,30.818001963077734,30
23.0,-13.399999999999991,-13.364768692028818,-14.182770655106523,-13.73798262976264,30.373213937733823,30.818001963077705,30
23.6,-12.000000000000014,-12.009260611555831,-12.824598128050994,-12.391237427965805,30.381976816409974,30.815337516495163,30
24.0,-9.899999999999991,-9.828222379097994,-10.45220776694363,-10.108727158420564,30.28050477932257,30.623985387845636,30
25.0,-7.799999999999997,-7.715252358669616,-8.177071007687019,-7.907387146752924,30.192134788083308,30.461818649017403,30
25.8,-5.799999999999997,-5.760604584803744,-6.1217085411768295,-5.89249107227532,30.131886487471576,30.361103956373086,30
26.5,-4.000000000000014,-3.9139075806590853,-4.207939634215322,-4.0110385407012785,30.097130960042193,30.294032053556236,30
27.2,-2.200000000000003,-2.14753764073744,-2.411989324755538,-2.2233498419756046,30.075812201238165,30.2644516840181,30
28.0,-0.5999999999999801,-0.5139075806590796,-0.7012460047917983,-0.5438841958402492,30.02997661518117,30.18733842413272,30
29.0,1.1000000000000085,1.1420861300489236,0.959326898611252,1.1006573207439914,30.041428809304932,30.18275923143767,30
30.0,2.90000000000002,2.962123706510269,2.7705832888411663,2.9154441630911236,30.046679543419145,30.191540417669103,30
30.7,5.1000000000000085,5.169080646705268,4.935215731889215,5.098211230156849,30.07086941654842,30.233864914816053,30
31.5,7.1000000000000085,7.177596340348131,6.934697067459425,7.1039244110360045,30.073671929312127,30.242899272888707,30
32.5,8.999999999999986,9.0752229938103,8.787176927671894,8.969748188447355,30.105474805362945,30.288046066138406,30
33.5,10.799999999999997,10.807506398570055,10.535188107938254,10.716515980473147,30.090990418096908,30.2723182906318,30
34.5,12.40000000000002,12.484175491472442,12.185801185680376,12.37148150113272,30.11269399033972,30.298374305792066,30
35.5,14.100000000000009,14.172346687316391,13.874268866258276,14.056235713710763,30.11611097360563,30.298077821058115,30
36.5,16.299999999999997,16.316381451274353,16.025569193804543,16.207719271288298,30.108662179986055,30.29081225746981,30
37.5,18.299999999999997,18.33772204939565,18.065464803083913,18.240067805752872,30.09765424364278,30.27225724631174,30
38.7,20.200000000000003,20.22603838881902,19.945789915405484,20.114274670256194,30.111763718562827,30.280248473413536,30
40.0,21.89999999999999,21.948350338439738,21.6984786604679,21.857543691335408,30.09080664710433,30.24987167797184,30
41.2,23.60000000000001,23.626038388819026,23.371122190351613,23.5316334451159,30.094404943703125,30.254916198467413,30
42.5,25.799999999999997,25.814049952805092,25.53000363112578,25.705867873296697,30.108182079508396,30.284046321679313,30
43.7,27.999999999999986,28.04627769960699,27.73453615160288,27.91795110439044,30.12832659521655,30.311741548004107,30
45.0,29.999999999999986,30.0455003766982,29.72269813271454,29.906663331393403,30.138837045304797,30.32280224398366,30
46.2,31.89999999999999,31.890033783526448,31.553130834118903,31.74516014192143,30.144873641605017,30.336902949407545,30
47.5,33.7,33.70102925400231,33.363550158872684,33.55864314933679,30.14238610466552,30.337479095129623,30
48.7,35.89999999999999,35.878490197129096,35.543772614454596,35.732621919340815,30.14586827778828,30.3347175826745,30
50.0,37.89999999999999,37.901029254002296,37.57679683424617,37.760221997977894,30.140807256024402,30.32423241975613,30
51.5,39.7,39.723191529617125,39.408356256016376,39.57954287710474,30.143648652512383,30.31483527360075,30
53.0,41.499999999999986,41.47849019712909,41.16414853140536,41.336836800438036,30.141653396691055,30.31434166572373,30
54.5,43.499999999999986,43.51173585711585,43.195977858209304,43.365604710700396,30.146131146415456,30.315757998906548,30
56.0,45.39999999999999,45.43358982687998,45.11904018291726,45.29023466557079,30.143355161309188,30.31454964396272,30
58.0,47.2,47.17823306508389,46.85708204327348,47.01470856247413,30.16352450260976,30.321151021810408,30
60.0,48.89999999999999,48.92267658830113,48.60023583310529,48.770312727344816,30.152363860956314,30.322440755195842,30
61.5,50.8,50.822422059205195,50.48476714758725,50.66448964667815,30.157932412527046,30.337654911617946,30
63.0,52.5,52.533589826879975,52.186775828212305,52.372161363945466,30.16142846293451,30.34681399866767,30
65.0,54.2,54.15583957685776,53.78868238742656,53.97513697815617,30.180702598701586,30.367157189431197,30
67.0,55.89999999999999,55.87797591781377,55.51173203880222,55.68600773618172,30.19196818163205,30.36624387901155,30
69.0,57.5,57.47797591781378,57.11445053453225,57.29396777045794,30.18400814735584,30.363525383281527,30
71.0,59.000000000000014,58.977975917813794,58.58584543844471,58.7730064047003,30.204969513113497,30.392130479369087,30
73.0,60.499999999999986,60.48900192004663,60.11942919562739,60.30788347336461,30.18111844668202,30.369572724419243,30
75.0,62.0,61.98900192004663,61.559379882544334,61.767941179791194,30.22106074025544,30.4296220375023,30
77.5,63.39999999999999,63.366921851160484,62.92463737391472,63.140956739909726,30.22596511125076,30.442284477245764,30
80.0,64.8,64.76692185116049,64.33182693548717,64.54159058648737,30.225331264673116,30.435094915673318,30
82.5,66.1,66.0669218511605,65.64786805036297,65.8476119031607,30.219309947999804,30.419053800797528,30
85.0,67.4,67.37797591781379,66.94019640619757,67.14235509936051,30.23562081845327,30.437779511616213,30
87.5,68.6,68.6,68.16591648374296,68.37827528063768,30.221724719362314,30.434083516257033,30
90.0,69.8,69.78900192004663,69.34210181735345,69.55324958694321,30.23575233310342,30.446900102693178,30
92.5,71.0,70.95583957685776,70.4791180112235,70.69096282649174,30.264876750366014,30.47672156563425,30
95.0,72.0,71.96692185116049,71.49189179798381,71.70597073049832,30.26095112066217,30.47503005317668,30
97.5,72.90000000000002,72.85583957685778,72.36049631590927,72.5793976309348,30.27644194592297,30.495343260948502,30
100.0,73.6,73.51148068598391,73.00879613071363,73.23548141581055,30.275999270173358,30.502684555270278,30
103.0,74.00000000000001,73.95609215500939,73.40921225797574,73.65239347728387,30.30369867772552,30.546879897033648,30
106.0,74.2,74.15609215500938,73.58642293883923,73.83885808921218,30.317234065797194,30.56966921617014,30
109.0,74.2,74.15609215500938,73.57357854373537,73.84128068603205,30.314811468977325,30.58251361127401,30
112.0,74.2,74.10101747322108,73.45941197527827,73.74594115936641,30.355076313854667,30.641605497942805,30
115.0,74.00000000000001,73.95609215500939,73.32442681793528,73.61259682126372,30.343495333745665,30.63166533707411,30
118.0,73.8,73.77848434425849,73.1480118911493,73.43309646885437,30.345387875404114,30.630472453109192,30
122.0,73.6,73.56743157327173,72.96242419274212,73.2367804640841,30.330651109187627,30.605007380529614,30
125.0,73.5,73.40101747322109,72.7406531030057,73.03489652042657,30.366120952794518,30.66036437021539,30
128.0,73.3,73.24548281841984,72.50231940739057,72.83539860649883,30.410084211921017,30.743163411029272,30
132.0,73.2,73.12343429349211,72.26100615244637,72.64425104015749,30.479183253334625,30.86242814104574,30
136.0,73.1,73.03459946187918,72.13578812912625,72.5571737015425,30.477425760336686,30.898811332752928,30
140.0,73.1,73.04548281841984,72.15763095638594,72.56581703394285,30.479665784476992,30.887851862033898,30
145.0,73.1,72.97874146142715,72.12240922157038,72.51356105121181,30.46518041021534,30.85633223985677,30
150.0,72.99999999999999,72.92368876327218,71.99495352926625,72.41757414318731,30.506114620084873,30.928735234005927,30
155.0,72.99999999999999,72.89077385642433,71.83597896955193,72.3090017701551,30.581772086269225,31.0547948868724,30
160.0,72.99999999999999,72.90202319816996,71.77493874424992,72.28779914984757,30.614224048322384,31.127084453920034,30
165.0,72.99999999999999,72.91324347649868,71.73731393562207,72.27575489731008,30.6374885791886,31.17592954087661,30
170.0,72.90000000000002,72.76818737768491,71.64228302444828,72.1615073197178,30.60668005796711,31.125904353236635,30
175.0,72.7,72.60202319816996,71.525115113184,72.00557983281881,30.59644336535115,31.07690808498596,30
180.0,72.7,72.58048886705923,71.39802416865706,71.93183329973647,30.648655567322763,31.18246469840217,30
185.0,72.7,72.55835948371907,71.26819276580164,71.85949089092048,30.69886859279859,31.29016671791743,30
190.0,72.7,72.56969299125257,71.14193858325795,71.79630667403377,30.773386317218794,31.427754407994613,30
195.0,72.7,72.53611676281918,71.03712193456488,71.73100567013033,30.805111092688847,31.498994828254297,30
200.0,72.60000000000001,72.44750838841033,70.85079418297275,71.5900313565533,30.85747703185703,31.59671420543758,30
206.0,72.4,72.28099699941652,70.71904460760588,71.44910955315099,30.831887446265526,31.561952391810635,30
212.0,72.4,72.21551626386177,70.55319910237772,71.32075642589136,30.894759837970412,31.662317161484054,30
218.0,72.4,72.21551626386177,70.37663849637961,71.23275464910432,30.98276161475745,31.83887776748216,30
224.0,72.5,72.27169650456474,70.24048574999878,71.20906157352718,31.062634931037564,32.03121075456596,30
230.0,72.5,72.34874541749859,70.20225342396533,71.25759966312911,31.091145754369478,32.14649199353326,30
236.0,72.4,72.22670178086567,70.07488846495842,71.12086254079398,31.10583924007169,32.15181331590725,30
240.0,72.4,72.17196002211287,70.01794799741276,71.07310890557862,31.09885111653425,32.15401202470011,30
250.0,72.5,72.2945269397368,70.01806937097297,71.1295770352687,31.164949904468102,32.27645756876383,30
258.0,72.5,72.31673407540255,69.85888543776367,71.08151244176149,31.23522163364106,32.457848637638875,30
265.0,72.5,72.26112526563271,69.75469224045678,71.02531578250516,31.235809483127554,32.50643302517594,30
272.0,72.5,72.27341954320737,69.77346056461192,71.02778631933474,31.24563322387263,32.499958978595444,30
280.0,72.4,72.21749875363838,69.64617719282799,70.94196131509138,31.275537438547005,32.57132156081039,30
290.0,72.4,72.1628525026279,69.40284197875876,70.80933536383698,31.35351713879092,32.76001052386914,30
300.0,72.4,72.1628525026279,69.37567585167554,70.79547165885951,31.367380843768387,32.78717665095236,30
307.0,72.5,72.22970811072229,69.30740947890808,70.81718918755418,31.412518923168108,32.9222986318142,30
315.0,72.5,72.28665528245483,69.27272464911535,70.83754235841995,31.44911292403488,33.013930633339484,30
325.0,72.5,72.23117176106882,69.17498670946681,70.78522863279593,31.445943128272887,33.056185051602014,30
335.0,72.4,72.20773750938731,69.03731974919408,70.72712220573838,31.480615303648932,33.17041776019323,30
345.0,72.5,72.26480371164858,68.99315790130477,70.74178220936177,31.52302150228681,33.27164581034381,30
355.0,72.60000000000001,72.37443767358992,68.97570327434333,70.80661336625764,31.567824307332288,33.39873439924659,30
365.0,72.7,72.4216629709574,68.93110813863474,70.82508187637337,31.596581094584025,33.49055483232266,30
375.0,72.60000000000001,72.35536835336664,68.86800422941576,70.76655190853536,31.58881644483128,33.48736412395088,30
387.0,72.4,72.16619985231239,68.78317208374071,70.657851144579,31.50834870773339,33.38302776857168,30
400.0,72.0,71.81232696353835,68.46227077899826,70.30942444451846,31.502902519019898,33.350056184540094,30
412.0,71.7,71.46480371164857,68.08536988502469,69.96931392938464,31.49548978226393,33.37943382662388,30
425.0,71.50000000000001,71.26480371164858,67.87333304871365,69.76363167216742,31.501172039481162,33.391470662934935,30
437.0,71.8,71.52148579426236,67.86517024630129,69.85752343465234,31.663962359610025,33.65631554796107,30
450.0,71.7,71.45224831050874,67.76736434048502,69.81634624988997,31.63590206061876,33.68488397002372,30
462.0,71.7,71.4197817242105,67.69187086965418,69.76483490534545,31.654946818865042,33.72791085455631,30
475.0,72.0,71.73295539194838,67.76363024993246,69.9887383452094,31.74421704673898,33.96932514201592,30
487.0,71.89999999999999,71.56588012352255,67.60869626441766,69.84476138559829,31.721118737924257,33.95718385910489,30
500.0,71.50000000000001,71.23318169244818,67.46789062819009,69.56133288886814,31.671848803580048,33.76529106425809,30
515.0,71.50000000000001,71.17218020121946,67.26485447699828,69.36492268466326,31.807257516556206,33.90732572422118,30
530.0,71.50000000000001,71.16085319101101,67.03582116401755,69.25445362164308,31.906399569367935,34.125032026993466,30
545.0,71.4,70.96648892561957,66.72766575793742,68.95340317672684,32.013085748892735,34.238823167682156,30
560.0,71.59999999999998,71.17620426226638,66.4393155570278,68.87525871128396,32.30094555098242,34.736888705238584,30
580.0,71.3,70.90765835161562,66.16376729126047,68.67229544661684,32.23536290499878,34.74389106035515,30
600.0,71.0,70.57620426226639,65.82718531390286,68.35063230273296,32.225571959533426,34.74901894836353,30
615.0,70.9,70.47028435133944,65.57708753973078,68.18606170366796,32.284222647671484,34.89319681160866,30
630.0,70.49999999999999,69.98800401553582,65.02791074723268,67.67389163134786,32.314112384187965,34.96009326830314,30
650.0,70.6,70.04392329316204,64.86447883712819,67.60446552738998,32.43945776577206,35.17944445603385,30
670.0,70.40000000000002,69.83530178509783,64.62925683183997,67.39403746877217,32.44126431632566,35.20604495325786,30
690.0,70.40000000000002,69.85442323391116,64.43205825166535,67.24792712392131,32.60649610998985,35.42236498224581,30
710.0,70.10000000000001,69.57245495409435,64.02459082365624,66.92300641398374,32.64944854011061,35.547864130438114,30
730.0,69.8,69.25136483391921,63.65408559366067,66.61715295990687,32.63421187401234,35.597279240258544,30
750.0,69.39999999999999,68.86685419312205,63.27695031461424,66.26479894872021,32.60205524440184,35.58990387850781,30
775.0,68.9,68.36332722105895,62.82695575997356,65.76063692586003,32.602690295198926,35.536371461085395,30
800.0,68.5,67.97301313855222,62.39822072280836,65.42166951696858,32.55134362158364,35.57479241574386,30
825.0,68.9,68.36246981716464,62.735451980816606,65.80771410294238,32.55475571422225,35.62701783634803,30
850.0,70.2,69.60817282398132,63.743899441068365,66.93849917071309,32.669673653268234,35.864273382912955,30
875.0,70.3,69.70025721683784,63.60658775830761,66.95661794222659,32.743639274611255,36.09366945853023,30
900.0,69.9,69.27271097228694,62.99584758506994,66.35794072448881,32.91477024779813,36.276863387217006,30
925.0,69.8,69.15874539432349,62.816362002224,66.13992908310878,33.01881631121471,36.34238339209949,30
950.0,69.8,69.13290937253355,62.700812059098396,66.08468132030934,33.048228052224204,36.43209731343515,30
975.0,69.7,69.00697201665392,62.62957323993869,65.99464895997255,33.01232305668137,36.377398776715225,30
1000.0,68.9,68.26971803428007,62.28524215907751,65.38654283949339,32.88317519478669,35.98447587520256,30
1030.0,68.3,67.74053294777242,62.27512302449469,64.90502978938387,32.83550315838855,35.46540992327773,30
1060.0,68.7,68.1317450814416,62.84971475332277,65.3451528394139,32.786592242027695,35.28203032811882,30
1090.0,70.3,69.64043401479881,63.73801819281594,66.70620426582194,32.934229748976875,35.90241582198287,30
1120.0,71.89999999999999,71.16542607952906,64.59459269384165,67.9474776109864,33.21794846854266,36.57083338568741,30
1150.0,72.60000000000001,71.84719588536316,65.00134265781176,68.52361939695695,33.32357648840622,36.8458532275514,30
1180.0,72.5,71.7567155420687,64.95939777061386,68.49606289361154,33.26065264845717,36.79731777145484,30
1220.0,72.3,71.4867197196639,64.90308835840806,68.38840353617393,33.09831618348997,36.58363136125584,30
1250.0,71.7,71.01913681172262,64.78512286651448,68.2001878258137,32.81894898590892,36.23401394520813,30
1280.0,71.4,70.7463345241138,64.77984132429152,68.12642688269848,32.619907641415324,35.96649319982228,30
1320.0,71.1,70.47451906227286,64.81005338148603,68.06011445070784,32.41440461156502,35.66446568078683,30
1360.0,70.9,70.26663429928574,64.71952242497473,67.93486496255649,32.33176933672925,35.547111874311014,30
1400.0,70.49999999999999,69.85770112807762,64.20730170872615,67.41962711321867,32.438074014858955,35.65039941935147,30
1450.0,69.39999999999999,68.6505661405504,63.00454303517611,66.34903450208225,32.30153163846815,35.64602310537428,30
1500.0,67.8,67.0675482382827,61.65718370030062,65.17282677512867,31.894721463154028,35.410364537982076,30
1550.0,66.7,65.97827633977053,60.714378670499244,64.23635207553657,31.74192426423396,35.26389766927129,30
1600.0,66.7,65.88206223006326,60.651773835234835,64.13363982717168,31.748422402891578,35.23028839482842,30
1650.0,67.8,66.87263573031085,61.47775248201167,65.07670699699679,31.795928733314057,35.39488324829918,30
1700.0,68.9,68.04864512674216,62.61313921895791,66.33897734874624,31.709667777995918,35.43550590778425,30
1750.0,69.6,68.88126060747331,63.64127546152126,67.34091376410801,31.5403468433653,35.23998514595205,30
1800.0,70.3,69.85382481493319,64.80054529285039,68.41928437424129,31.434540440691904,35.0532795220828,30
1850.0,71.2,70.97169046030953,65.77731943660466,69.31955618608247,31.652134274227066,35.194371023704875,30
1900.0,71.50000000000001,71.5801251389973,66.32263405469875,69.84248947068816,31.73763566830914,35.25749108429855,30
1950.0,71.2,71.58918101021602,66.5957148164624,70.08587783090563,31.503303179310393,34.99346619375362,30
2000.0,71.1,71.88116757490913,67.03553871956663,70.38711032677448,31.494057248134652,34.8456288553425,30
2060.0,71.59999999999998,72.64876037238565,67.64477019614417,70.86652356172519,31.782236810660464,35.00399017624149,30
2120.0,72.2,73.14164970234155,67.70915489891324,70.94792598461876,32.19372371772279,35.43249480342831,30
2180.0,72.8,73.25403149462281,67.13043759904187,70.506420810535,32.7476106840878,36.12359389558094,30
2240.0,72.90000000000002,73.01511430821135,66.24439359391218,69.78410657310532,33.23100773510603,36.77072071429917,30
2300.0,72.60000000000001,72.36068305857678,65.10410203539944,68.78835754422569,33.57232551435109,37.25658102317735,30
2360.0,72.2,71.67377941210744,64.02781430515894,67.84621587899329,33.827563533114144,37.645965106948495,30
2400.0,71.8,71.22439254283331,63.3368671263123,67.16489449725246,34.05949804558085,37.887525416521015,30
2500.0,71.0,70.46214979087827,62.546465594932386,66.26914271627605,34.19300707460222,37.915684195945886,30
2580.0,70.40000000000002,69.81973113608632,61.766267663023754,65.43574420095227,34.38398693513405,38.053463473062564,30
2650.0,70.7,69.87803247727201,61.60283557688828,65.36762492299911,34.5104075542729,38.27519690038373,30
2720.0,70.40000000000002,69.5467615146778,61.33916754507507,65.03715504461896,34.50960647005884,38.207593969602726,30
2800.0,70.6,69.51206399833393,61.27750325586983,65.04200059718521,34.47006340114872,38.2345607424641,30
2900.0,70.8,69.68458656989527,61.484865741147814,65.33022958142952,34.35435698846575,38.19972082874746,30
3000.0,71.0,69.81489443919227,61.68387740358425,65.62009446268665,34.19479997650562,38.131017035608025,30
3070.0,71.3,70.21388298248944,61.823727408975415,65.9336112968965,34.280271685592936,38.39015557351402,30
3150.0,71.89999999999999,70.72098575596964,61.79009874890653,66.1369773497644,34.58400840620524,38.930887007063106,30
3250.0,72.0,70.79099556449914,61.413126337010496,65.96251487484757,34.82848068965157,39.377869227488645,30
3350.0,71.59999999999998,70.38548215933308,60.77679939140509,65.46477679111085,34.92070536822223,39.60868276792799,30
3450.0,71.4,70.1439608199532,60.31657725207212,65.102323655583,35.04163716437019,39.82738356788107,30
3550.0,70.9,69.65457387072907,59.84053771057444,64.56132644471235,35.09324742601672,39.81403616015463,30
3650.0,70.8,69.60750490781204,59.948351811477906,64.51039542148135,35.097109486330694,39.65915309633414,30
3750.0,70.6,69.71379696566929,60.35080130590991,64.75989430389713,34.95390266177216,39.36299565975938,30
3870.0,70.8,70.25239999758399,60.88355694326097,65.36724048504777,34.88515951253622,39.36884305432302,30
