Freq,On Axis,Listening Window,Sound Power,Early Reflections,Early Reflections DI,Sound Power DI,DI offset
22.4,-13.470886075949352,-13.435654767978178,-14.253656731055912,-13.80886870571203,30.37321393773385,30.818001963077734,30
23.0,-12.270886075949363,-12.23565476797819,-13.053656731055895,-12.608868705712013,30.373213937733823,30.818001963077705,30
23.6,-10.870886075949386,-10.880146687505203,-11.695484204000365,-11.262123503915177,30.381976816409974,30.815337516495163,30
24.0,-8.770886075949363,-8.699108455047366,-9.323093842893002,-8.979613234369936,30.28050477932257,30.623985387845636,30
25.0,-6.670886075949369,-6.586138434618988,-7.0479570836363905,-6.778273222702296,30.192134788083308,30.461818649017403,30
25.8,-4.670886075949369,-4.631490660753116,-4.992594617126201,-4.763377148224691,30.131886487471576,30.361103956373086,30
26.5,-2.870886075949386,-2.784793656608457,-3.0788257101646934,-2.8819246166506503,30.097130960042193,30.294032053556236,30
27.2,-1.0708860759493746,-1.0184237166868115,-1.28287540070491,-1.0942359179249763,30.075812201238165,30.2644516840181,30
28.0,0.5291139240506482,0.6152063433915487,0.42786791925882994,0.5852297282103791,30.02997661518117,30.18733842413272,30
29.0,2.229113924050637,2.271200054099552,2.0884408226618802,2.2297712447946196,30.041428809304932,30.18275923143767,30
30.0,4.029113924050648,4.091237630560897,3.8996972128917946,4.044558087141752,30.046679543419145,30.191540417669103,30
30.7,6.229113924050637,6.298194570755896,6.064329655939844,6.2273251542074775,30.07086941654842,30.233864914816053,30
31.5,8.229113924050637,8.30671026439876,8.063810991510053,8.233038335086633,30.073671929312127,30.242899272888707,30
32.5,10.129113924050614,10.204336917860928,9.916290851722522,10.098862112497983,30.105474805362945,30.288046066138406,30
33.5,11.929113924050625,11.936620322620684,11.664302031988882,11.845629904523776,30.090990418096908,30.2723182906318,30
34.5,13.529113924050648,13.61328941552307,13.314915109731004,13.500595425183349,30.11269399033972,30.298374305792066,30
35.5,15.229113924050637,15.30146061136702,15.003382790308905,15.18534963776139,30.11611097360563,30.298077821058115,30
36.5,17.429113924050625,17.44549537532498,17.15468311785517,17.336833195338926,30.108662179986055,30.29081225746981,30
37.5,19.429113924050625,19.46683597344628,19.19457872713454,19.3691817298035,30.09765424364278,30.27225724631174,30
38.7,21.32911392405063,21.35515231286965,21.074903839456113,21.243388594306822,30.111763718562827,30.280248473413536,30
40.0,23.02911392405062,23.077464262490366,22.827592584518527,22.986657615386036,30.09080664710433,30.24987167797184,30
41.2,24.729113924050637,24.755152312869654,24.50023611440224,24.66074736916653,30.094404943703125,30.254916198467413,30
42.5,26.929113924050625,26.94316387685572,26.659117555176408,26.834981797347325,30.108182079508396,30.284046321679313,30
43.7,29.129113924050614,29.175391623657617,28.86365007565351,29.047065028441068,30.12832659521655,30.311741548004107,30
45.0,31.129113924050614,31.17461430074883,30.85181205676517,31.03577725544403,30.138837045304797,30.32280224398366,30
46.2,33.02911392405062,33.019147707577076,32.68224475816953,32.87427406597206,30.144873641605017,30.336902949407545,30
47.5,34.82911392405063,34.830143178052936,34.49266408292331,34.68775707338742,30.14238610466552,30.337479095129623,30
48.7,37.02911392405062,37.007604121179725,36.672886538505225,36.86173584339144,30.14586827778828,30.3347175826745,30
50.0,39.02911392405062,39.030143178052924,38.705910758296795,38.88933592202852,30.140807256024402,30.32423241975613,30
51.5,40.82911392405063,40.85230545366775,40.537470180067004,40.70865680115537,30.143648652512383,30.31483527360075,30
53.0,42.629113924050614,42.60760412117972,42.29326245545599,42.465950724488664,30.141653396691055,30.31434166572373,30
54.5,44.629113924050614,44.64084978116648,44.32509178225993,44.494718634751024,30.146131146415456,30.315757998906548,30
56.0,46.52911392405062,46.56270375093061,46.24815410696789,46.41934858962142,30.143355161309188,30.31454964396272,30
58.0,48.32911392405063,48.307346989134516,47.98619596732411,48.143822486524755,30.16352450260976,30.321151021810408,30
60.0,50.02911392405062,50.05179051235176,49.729349757155916,49.899426651395444,30.152363860956314,30.322440755195842,30
61.5,51.929113924050625,51.95153598325582,51.61388107163788,51.79360357072878,30.157932412527046,30.337654911617946,30
63.0,53.62911392405063,53.6627037509306,53.31588975226293,53.501275287996094,30.16142846293451,30.34681399866767,30
65.0,55.32911392405063,55.28495350090839,54.91779631147719,55.1042509022068,30.180702598701586,30.367157189431197,30
67.0,57.02911392405062,57.0070898418644,56.64084596285285,56.81512166023235,30.19196818163205,30.36624387901155,30
69.0,58.62911392405063,58.60708984186441,58.24356445858288,58.42308169450857,30.18400814735584,30.363525383281527,30
71.0,60.12911392405064,60.10708984186442,59.714959362495335,59.902120328750925,30.204969513113497,30.392130479369087,30
73.0,61.629113924050614,61.61811584409726,61.24854311967802,61.43699739741524,30.18111844668202,30.369572724419243,30
75.0,63.12911392405063,63.11811584409726,62.68849380659496,62.89705510384182,30.22106074025544,30.4296220375023,30
77.5,64.52911392405062,64.49603577521111,64.05375129796535,64.27007066396035,30.22596511125076,30.442284477245764,30
80.0,65.92911392405063,65.89603577521112,65.4609408595378,65.670704510538,30.225331264673116,30.435094915673318,30
82.5,67.22911392405062,67.19603577521113,66.7769819744136,66.97672582721133,30.219309947999804,30.419053800797528,30
85.0,68.52911392405063,68.50708984186441,68.0693103302482,68.27146902341114,30.23562081845327,30.437779511616213,30
87.5,69.72911392405062,69.72911392405062,69.29503040779359,69.50738920468831,30.221724719362314,30.434083516257033,30
90.0,70.92911392405063,70.91811584409726,70.47121574140408,70.68236351099384,30.23575233310342,30.446900102693178,30
92.5,72.12911392405063,72.08495350090838,71.60823193527413,71.82007675054237,30.264876750366014,30.47672156563425,30
95.0,73.12911392405063,73.09603577521112,72.62100572203444,72.83508465454895,30.26095112066217,30.47503005317668,30
97.5,74.02911392405065,73.9849535009084,73.4896102399599,73.70851155498544,30.27644194592297,30.495343260948502,30
100.0,74.72911392405062,74.64059461003454,74.13791005476426,74.36459533986118,30.275999270173358,30.502684555270278,30
103.0,75.12911392405064,75.08520607906001,74.53832618202637,74.7815074013345,30.30369867772552,30.546879897033648,30
106.0,75.32911392405063,75.28520607906,74.71553686288986,74.96797201326281,30.317234065797194,30.56966921617014,30
109.0,75.32911392405063,75.28520607906,74.702692467786,74.97039461008268,30.314811468977325,30.58251361127401,30
112.0,75.32911392405063,75.2301313972717,74.5885258993289,74.87505508341704,30.355076313854667,30.641605497942805,30
115.0,75.12911392405064,75.08520607906001,74.4535407419859,74.74171074531435,30.343495333745665,30.63166533707411,30
118.0,74.92911392405063,74.90759826830912,74.27712581519992,74.562210392905,30.345387875404114,30.630472453109192,30
122.0,74.72911392405062,74.69654549732236,74.09153811679275,74.36589438813473,30.330651109187627,30.605007380529614,30
125.0,74.62911392405063,74.53013139727172,73.86976702705633,74.1640104444772,30.366120952794518,30.66036437021539,30
128.0,74.42911392405063,74.37459674247047,73.6314333314412,73.96451253054946,30.410084211921017,30.743163411029272,30
132.0,74.32911392405063,74.25254821754274,73.390120076497,73.77336496420811,30.479183253334625,30.86242814104574,30
136.0,74.22911392405062,74.16371338592981,73.26490205317688,73.68628762559312,30.477425760336686,30.898811332752928,30
140.0,74.22911392405062,74.17459674247047,73.28674488043657,73.69493095799348,30.479665784476992,30.887851862033898,30
145.0,74.22911392405062,74.10785538547778,73.25152314562101,73.64267497526244,30.46518041021534,30.85633223985677,30
150.0,74.12911392405061,74.05280268732281,73.12406745331688,73.54668806723794,30.506114620084873,30.928735234005927,30
155.0,74.12911392405061,74.01988778047496,72.96509289360256,73.43811569420573,30.581772086269225,31.0547948868724,30
160.0,74.12911392405061,74.03113712222058,72.90405266830055,73.4169130738982,30.614224048322384,31.127084453920034,30
165.0,74.12911392405061,74.0423574005493,72.8664278596727,73.40486882136071,30.6374885791886,31.17592954087661,30
170.0,74.02911392405065,73.89730130173554,72.7713969484989,73.29062124376843,30.60668005796711,31.125904353236635,30
175.0,73.82911392405063,73.73113712222059,72.65422903723463,73.13469375686944,30.59644336535115,31.07690808498596,30
180.0,73.82911392405063,73.70960279110986,72.52713809270769,73.0609472237871,30.648655567322763,31.18246469840217,30
185.0,73.82911392405063,73.6874734077697,72.39730668985227,72.98860481497111,30.69886859279859,31.29016671791743,30
190.0,73.82911392405063,73.6988069153032,72.27105250730858,72.9254205980844,30.773386317218794,31.427754407994613,30
195.0,73.82911392405063,73.6652306868698,72.16623585861551,72.86011959418096,30.805111092688847,31.498994828254297,30
200.0,73.72911392405064,73.57662231246096,71.97990810702338,72.71914528060393,30.85747703185703,31.59671420543758,30
206.0,73.52911392405063,73.41011092346714,71.84815853165651,72.57822347720162,30.831887446265526,31.561952391810635,30
212.0,73.52911392405063,73.3446301879124,71.68231302642835,72.44987034994199,30.894759837970412,31.662317161484054,30
218.0,73.52911392405063,73.3446301879124,71.50575242043024,72.36186857315495,30.98276161475745,31.83887776748216,30
224.0,73.62911392405063,73.40081042861537,71.36959967404941,72.33817549757781,31.062634931037564,32.03121075456596,30
230.0,73.62911392405063,73.47785934154922,71.33136734801596,72.38671358717974,31.091145754369478,32.14649199353326,30
236.0,73.52911392405063,73.3558157049163,71.20400238900905,72.24997646484461,31.10583924007169,32.15181331590725,30
240.0,73.52911392405063,73.3010739461635,71.14706192146339,72.20222282962925,31.09885111653425,32.15401202470011,30
250.0,73.62911392405063,73.42364086378743,71.1471832950236,72.25869095931932,31.164949904468102,32.27645756876383,30
258.0,73.62911392405063,73.44584799945318,70.9879993618143,72.21062636581212,31.23522163364106,32.457848637638875,30
265.0,73.62911392405063,73.39023918968334,70.8838061645074,72.15442970655579,31.235809483127554,32.50643302517594,30
272.0,73.62911392405063,73.402533467258,70.90257448866255,72.15690024338537,31.24563322387263,32.499958978595444,30
280.0,73.52911392405063,73.34661267768901,70.77529111687862,72.071075239142,31.275537438547005,32.57132156081039,30
290.0,73.52911392405063,73.29196642667853,70.53195590280939,71.93844928788761,31.35351713879092,32.76001052386914,30
300.0,73.52911392405063,73.29196642667853,70.50478977572617,71.92458558291014,31.367380843768387,32.78717665095236,30
307.0,73.62911392405063,73.35882203477291,70.43652340295871,71.9463031116048,31.412518923168108,32.9222986318142,30
315.0,73.62911392405063,73.41576920650546,70.40183857316597,71.96665628247058,31.44911292403488,33.013930633339484,30
325.0,73.62911392405063,73.36028568511945,70.30410063351744,71.91434255684656,31.445943128272887,33.056185051602014,30
335.0,73.52911392405063,73.33685143343794,70.16643367324471,71.85623612978901,31.480615303648932,33.17041776019323,30
345.0,73.62911392405063,73.39391763569921,70.1222718253554,71.8708961334124,31.52302150228681,33.27164581034381,30
355.0,73.72911392405064,73.50355159764055,70.10481719839396,71.93572729030826,31.567824307332288,33.39873439924659,30
365.0,73.82911392405063,73.55077689500803,70.06022206268537,71.954195800424,31.596581094584025,33.49055483232266,30
375.0,73.72911392405064,73.48448227741727,69.99711815346639,71.89566583258599,31.58881644483128,33.48736412395088,30
387.0,73.52911392405063,73.29531377636302,69.91228600779134,71.78696506862963,31.50834870773339,33.38302776857168,30
400.0,73.12911392405063,72.94144088758898,69.59138470304889,71.43853836856908,31.502902519019898,33.350056184540094,30
412.0,72.82911392405063,72.5939176356992,69.21448380907532,71.09842785343527,31.49548978226393,33.37943382662388,30
425.0,72.62911392405064,72.39391763569921,69.00244697276428,70.89274559621805,31.501172039481162,33.391470662934935,30
437.0,72.92911392405063,72.65059971831299,68.99428417035192,70.98663735870296,31.663962359610025,33.65631554796107,30
450.0,72.82911392405063,72.58136223455936,68.89647826453565,70.9454601739406,31.63590206061876,33.68488397002372,30
462.0,72.82911392405063,72.54889564826112,68.82098479370481,70.89394882939608,31.654946818865042,33.72791085455631,30
475.0,73.12911392405063,72.86206931599901,68.89274417398309,71.11785226926003,31.74421704673898,33.96932514201592,30
487.0,73.02911392405062,72.69499404757318,68.73781018846829,70.97387530964892,31.721118737924257,33.95718385910489,30
500.0,72.62911392405064,72.36229561649881,68.59700455224072,70.69044681291876,31.671848803580048,33.76529106425809,30
515.0,72.62911392405064,72.30129412527009,68.39396840104891,70.49403660871388,31.807257516556206,33.90732572422118,30
530.0,72.62911392405064,72.28996711506164,68.16493508806818,70.38356754569371,31.906399569367935,34.125032026993466,30
545.0,72.52911392405063,72.0956028496702,67.85677968198804,70.08251710077747,32.013085748892735,34.238823167682156,30
560.0,72.72911392405061,72.30531818631701,67.56842948107843,70.00437263533459,32.30094555098242,34.736888705238584,30
580.0,72.42911392405063,72.03677227566625,67.2928812153111,69.80140937066747,32.23536290499878,34.74389106035515,30
600.0,72.12911392405063,71.70531818631702,66.95629923795349,69.47974622678359,32.225571959533426,34.74901894836353,30
615.0,72.02911392405063,71.59939827539007,66.70620146378141,69.31517562771859,32.284222647671484,34.89319681160866,30
630.0,71.62911392405061,71.11711793958645,66.15702467128331,68.80300555539849,32.314112384187965,34.96009326830314,30
650.0,71.72911392405062,71.17303721721267,65.99359276117882,68.7335794514406,32.43945776577206,35.17944445603385,30
670.0,71.52911392405065,70.96441570914845,65.7583707558906,68.5231513928228,32.44126431632566,35.20604495325786,30
690.0,71.52911392405065,70.98353715796179,65.56117217571598,68.37704104797194,32.60649610998985,35.42236498224581,30
710.0,71.22911392405064,70.70156887814498,65.15370474770687,68.05212033803437,32.64944854011061,35.547864130438114,30
730.0,70.92911392405063,70.38047875796984,64.7831995177113,67.7462668839575,32.63421187401234,35.597279240258544,30
750.0,70.52911392405062,69.99596811717268,64.40606423866487,67.39391287277084,32.60205524440184,35.58990387850781,30
775.0,70.02911392405063,69.49244114510958,63.956069684024186,66.88975084991066,32.602690295198926,35.536371461085395,30
800.0,69.62911392405063,69.10212706260285,63.52733464685899,66.5507834410192,32.55134362158364,35.57479241574386,30
825.0,70.02911392405063,69.49158374121527,63.864565904867234,66.93682802699301,32.55475571422225,35.62701783634803,30
850.0,71.32911392405063,70.73728674803195,64.873013365119,68.06761309476371,32.669673653268234,35.864273382912955,30
875.0,71.42911392405063,70.82937114088847,64.73570168235824,68.08573186627721,32.743639274611255,36.09366945853023,30
900.0,71.02911392405063,70.40182489633757,64.12496150912057,67.48705464853944,32.91477024779813,36.276863387217006,30
925.0,70.92911392405063,70.28785931837412,63.945475926274625,67.26904300715941,33.01881631121471,36.34238339209949,30
950.0,70.92911392405063,70.26202329658418,63.829925983149025,67.21379524435997,33.048228052224204,36.43209731343515,30
975.0,70.82911392405063,70.13608594070455,63.75868716398932,67.12376288402318,33.01232305668137,36.377398776715225,30
1000.0,70.02911392405063,69.3988319583307,63.41435608312814,66.51565676354402,32.88317519478669,35.98447587520256,30
1030.0,69.42911392405063,68.86964687182305,63.40423694854532,66.0341437134345,32.83550315838855,35.46540992327773,30
1060.0,69.82911392405063,69.26085900549222,63.9788286773734,66.47426676346453,32.786592242027695,35.28203032811882,30
1090.0,71.42911392405063,70.76954793884944,64.86713211686657,67.83531818987257,32.934229748976875,35.90241582198287,30
1120.0,73.02911392405062,72.29454000357968,65.72370661789228,69.07659153503702,33.21794846854266,36.57083338568741,30
1150.0,73.72911392405064,72.97630980941379,66.13045658186239,69.65273332100757,33.32357648840622,36.8458532275514,30
1180.0,73.62911392405063,72.88582946611933,66.08851169466449,69.62517681766217,33.26065264845717,36.79731777145484,30
1220.0,73.42911392405063,72.61583364371452,66.03220228245868,69.51751746022455,33.09831618348997,36.58363136125584,30
1250.0,72.82911392405063,72.14825073577325,65.91423679056511,69.32930174986433,32.81894898590892,36.23401394520813,30
1280.0,72.52911392405063,71.87544844816443,65.90895524834215,69.25554080674911,32.619907641415324,35.96649319982228,30
1320.0,72.22911392405062,71.60363298632349,65.93916730553666,69.18922837475847,32.41440461156502,35.66446568078683,30
1360.0,72.02911392405063,71.39574822333637,65.84863634902536,69.06397888660712,32.33176933672925,35.547111874311014,30
1400.0,71.62911392405061,70.98681505212825,65.33641563277678,68.5487410372693,32.438074014858955,35.65039941935147,30
1450.0,70.52911392405062,69.77968006460102,64.13365695922674,67.47814842613288,32.30153163846815,35.64602310537428,30
1500.0,68.92911392405063,68.19666216233333,62.78629762435125,66.3019406991793,31.894721463154028,35.410364537982076,30
1550.0,67.82911392405063,67.10739026382116,61.84349259454987,65.3654659995872,31.74192426423396,35.26389766927129,30
1600.0,67.82911392405063,67.01117615411388,61.78088775928546,65.2627537512223,31.748422402891578,35.23028839482842,30
1650.0,68.92911392405063,68.00174965436148,62.606866406062295,66.20582092104742,31.795928733314057,35.39488324829918,30
1700.0,70.02911392405063,69.17775905079279,63.74225314300854,67.46809127279687,31.709667777995918,35.43550590778425,30
1750.0,70.72911392405062,70.01037453152394,64.77038938557189,68.47002768815864,31.5403468433653,35.23998514595205,30
1800.0,71.42911392405063,70.98293873898382,65.92965921690102,69.54839829829191,31.434540440691904,35.0532795220828,30
1850.0,72.32911392405063,72.10080438436016,66.90643336065529,70.4486701101331,31.652134274227066,35.194371023704875,30
1900.0,72.62911392405064,72.70923906304793,67.45174797874938,70.97160339473879,31.73763566830914,35.25749108429855,30
1950.0,72.32911392405063,72.71829493426665,67.72482874051303,71.21499175495626,31.503303179310393,34.99346619375362,30
2000.0,72.22911392405062,73.01028149895976,68.16465264361726,71.5162242508251,31.494057248134652,34.8456288553425,30
2060.0,72.72911392405061,73.77787429643628,68.7738841201948,71.99563748577582,31.782236810660464,35.00399017624149,30
2120.0,73.32911392405063,74.27076362639218,68.83826882296387,72.07703990866939,32.19372371772279,35.43249480342831,30
2180.0,73.92911392405063,74.38314541867344,68.2595515230925,71.63553473458563,32.7476106840878,36.12359389558094,30
2240.0,74.02911392405065,74.14422823226198,67.3735075179628,70.91322049715595,33.23100773510603,36.77072071429917,30
2300.0,73.72911392405064,73.48979698262741,66.23321595945006,69.91747146827632,33.57232551435109,37.25658102317735,30
2360.0,73.32911392405063,72.80289333615806,65.15692822920957,68.97532980304392,33.827563533114144,37.645965106948495,30
2400.0,72.92911392405063,72.35350646688394,64.46598105036293,68.29400842130309,34.05949804558085,37.887525416521015,30
2500.0,72.12911392405063,71.5912637149289,63.675579518983014,67.39825664032668,34.19300707460222,37.915684195945886,30
2580.0,71.52911392405065,70.94884506013695,62.89538158707438,66.5648581250029,34.38398693513405,38.053463473062564,30
2650.0,71.82911392405063,71.00714640132264,62.73194950093891,66.49673884704974,34.5104075542729,38.27519690038373,30
2720.0,71.52911392405065,70.67587543872843,62.4682814691257,66.16626896866958,34.50960647005884,38.207593969602726,30
