Freq "Early Reflections DI"
20.0 19.068307968208416
20.2909 19.096334713516455
20.586 19.124427177349446
20.8855 19.151027532306045
21.1893 19.175674631488477
21.4975 19.197090477955868
21.8102 19.214381083179518
22.1274 19.227365649407176
22.4492 19.234450820400042
22.7758 19.235331088687417
23.1071 19.230142193733712
23.4432 19.217549991987795
23.7841 19.197729252495378
24.1301 19.17155170603877
24.4811 19.13960436507483
24.8372 19.10289458718674
25.1984 19.062774526779236
25.5649 19.0203870059251
25.9368 18.978566128022123
26.3141 18.937840197992955
26.6968 18.900792904251574
27.0851 18.868777064713527
27.4791 18.843876938045014
27.8788 18.827374840021605
28.2843 18.81980744062372
28.6957 18.820979342885835
29.1131 18.830914987413394
29.5365 18.84866603077677
29.9661 18.87348616212782
30.402 18.903208512455535
30.8442 18.936147144139483
31.2929 18.97072341956374
31.748 19.0042655172941
32.2098 19.034453940468154
32.6783 19.06101750222936
33.1536 19.08143727768524
33.6359 19.096773730688625
34.1251 19.105642632747134
34.6215 19.108914087396613
35.125 19.10827966597975
35.6359 19.10439863916983
36.1543 19.098924619012024
36.6802 19.093564776189567
37.2137 19.089214126742547
37.755 19.087089982851722
38.3041 19.087649790313122
38.8613 19.09070059710777
39.4265 19.09590625479261
40.0 19.102404686919883
40.5818 19.10914459140514
41.1721 19.11520128512214
41.771 19.119924028616637
42.3785 19.122631513989674
42.9949 19.12389296587736
43.6203 19.124301713179236
44.2548 19.124432383327374
44.8985 19.125166405082
45.5515 19.127563427224587
46.2141 19.132319287791816
46.8863 19.139065410455345
47.5683 19.14731861320128
48.2602 19.15672730740448
48.9621 19.166405238766217
49.6743 19.175413733314926
50.3968 19.18261328837545
51.1299 19.187922081690544
51.8736 19.192667139960633
52.6281 19.196317069827145
53.3936 19.199872759845903
54.1702 19.203461495429224
54.9581 19.2063721474085
55.7575 19.208433433928263
56.5685 19.209210260512975
57.3914 19.20779651467349
58.2261 19.205107903089427
59.073 19.20210306791475
59.9323 19.20230435406137
60.804 19.20753714316001
61.6884 19.22155446417436
62.5857 19.244367420696875
63.496 19.27449496866913
64.4196 19.30900299120178
65.3566 19.34259622288465
66.3073 19.36940545581743
67.2717 19.384948078652613
68.2502 19.38882069999599
69.2429 19.3829114538306
70.2501 19.37219198198713
71.2719 19.361910106043425
72.3086 19.358052381316625
73.3603 19.362480795366693
74.4274 19.373401201962523
75.5099 19.38655885628485
76.6083 19.397420134720733
77.7226 19.401980221552478
78.8531 19.400162533948958
80.0 19.394824639812214
81.1636 19.391046500803952
82.3442 19.393669616329817
83.5419 19.40381462575786
84.757 19.4216347271429
85.9899 19.44254045989456
87.2406 19.463861282075456
88.5096 19.479921591688793
89.797 19.49016700430849
91.1031 19.494200240059513
92.4282 19.494257904286883
93.7726 19.49489237349283
95.1366 19.49920166414863
96.5204 19.51022088592576
97.9243 19.526444659873803
99.3486 19.544462964136144
100.794 19.559297306988213
102.26 19.568080439717576
103.747 19.571988179031166
105.256 19.575600397621727
106.787 19.582635651287674
108.34 19.592938773555062
109.916 19.602898434561993
111.515 19.60914291603453
113.137 19.611317372982242
114.783 19.614587741826753
116.452 19.62285778544718
118.146 19.63653095617981
119.865 19.649258961762058
121.608 19.655483630977756
123.377 19.655972822292185
125.171 19.657995614956832
126.992 19.666414098551613
128.839 19.683135042167137
130.713 19.702331510210925
132.615 19.718550914064096
134.543 19.73007598193287
136.5 19.737309245441793
138.486 19.741949503882154
140.5 19.747853119525388
142.544 19.757898582629977
144.617 19.769150471228258
146.721 19.778977400277284
148.855 19.785806642779846
151.02 19.791116309506947
153.217 19.799108435844772
155.445 19.81008348095122
157.706 19.81948515107993
160.0 19.82505660505619
162.327 19.829692024043183
164.688 19.838255175254517
167.084 19.850985716143185
169.514 19.860750315083024
171.98 19.863778931738736
174.481 19.8671146613936
177.019 19.87512209592782
179.594 19.884174108534694
182.206 19.89032112947187
184.856 19.899283924368746
187.545 19.914076959117665
190.273 19.926342600873014
193.041 19.92663812686793
195.849 19.924188358593895
198.697 19.929233360519106
201.587 19.937250051100463
204.52 19.94216453308117
207.494 19.947642500684296
210.512 19.956484890652362
213.574 19.963151730245997
216.681 19.96643117473326
219.833 19.969358328311145
223.03 19.972439116859235
226.274 19.975859218844477
229.565 19.98342272773229
232.905 19.98661178612184
236.292 19.98081449482514
239.729 19.98196975154731
243.216 19.988726916275567
246.754 19.99138758360604
250.343 19.995651654567624
253.984 19.997302764915474
257.678 20.00238781826384
261.426 20.005017639562922
265.229 20.003477224821467
269.087 20.008010954039904
273.001 20.006114236325814
276.972 20.008420699304565
281.0 20.01116692215153
285.088 20.013189105934217
289.234 20.017282426538486
293.441 20.01800265890884
297.709 20.021385923777586
302.04 20.027002436081005
306.433 20.033326040174046
310.89 20.04075421946537
315.412 20.045009419194642
320.0 20.054482439465644
324.655 20.065084201488716
329.377 20.078066698191165
334.168 20.093867416091413
339.028 20.10674362511226
343.959 20.131025121723567
348.962 20.146205992696963
354.038 20.17273393086245
359.188 20.199166716346582
364.412 20.223552404162945
369.713 20.253175522525837
375.09 20.282672117955173
380.546 20.316534237644845
386.081 20.352467754506534
391.697 20.38194754983735
397.394 20.4199306497475
403.175 20.450727393695914
409.039 20.483228489369324
414.989 20.512570567133338
421.025 20.544817738458818
427.149 20.566507529672393
433.362 20.595833635613502
439.665 20.620979760029627
446.06 20.64179530852033
452.548 20.65910265287404
459.131 20.680253823708426
465.809 20.695252243229177
472.584 20.70856904563753
479.458 20.72056669486082
486.432 20.73720152814029
493.507 20.74239534394539
500.686 20.76012080314638
507.968 20.77946462928921
515.357 20.78731407621862
522.853 20.804091290339883
530.458 20.819759714174268
538.174 20.83947080181096
546.002 20.85737352204768
553.943 20.87491896772751
562.001 20.895020299258547
570.175 20.91920952950956
578.469 20.94151357080291
586.883 20.96412154670361
595.419 20.984731094851682
604.08 21.00012254943357
612.866 21.021969971315215
621.78 21.037261155419145
630.824 21.051781892752075
640.0 21.06403178808604
649.309 21.07412338978594
658.753 21.075165133678126
668.335 21.07722712714977
678.056 21.075936124085317
687.919 21.06940018332591
697.925 21.06550329835595
708.077 21.0528357839799
718.376 21.044903388349397
728.825 21.03468436532448
739.426 21.028794031489795
750.181 21.026727382849046
761.093 21.031447850112997
772.163 21.04404668358839
783.394 21.06362795118784
794.789 21.094582533646104
806.349 21.133780319529833
818.078 21.176284614621792
829.977 21.225735693501875
842.05 21.272561198350104
854.298 21.325539897445964
866.724 21.367382894298487
879.33 21.40513876819233
892.12 21.439120275697974
905.097 21.46107333419826
918.262 21.47853262131551
931.618 21.487195273771746
945.169 21.493255902362506
958.917 21.49502504155255
972.864 21.500679260555074
987.015 21.513767211355187
1001.37 21.533097883258677
1015.94 21.56805319724839
1030.71 21.616113869214644
1045.71 21.679612747034696
1060.92 21.75115046954346
1076.35 21.828587465451946
1092.0 21.907010130890612
1107.89 21.980933627358453
1124.0 22.04173145054996
1140.35 22.085025338285547
1156.94 22.10803398542798
1173.77 22.108932731307263
1190.84 22.088121951546157
1208.16 22.048494685310203
1225.73 21.99945559174148
1243.56 21.946778415559777
1261.65 21.905011462028767
1280.0 21.883584358506113
1298.62 21.882961764304397
1317.51 21.903911859417903
1336.67 21.947009248605397
1356.11 22.002760624501235
1375.84 22.067012714926364
1395.85 22.129956596377397
1416.15 22.188121453940767
1436.75 22.239917674154583
1457.65 22.283188967545243
1478.85 22.32214255542361
1500.36 22.359306147470647
1522.19 22.397492552708542
1544.33 22.445749862684778
1566.79 22.504860443645484
1589.58 22.576319832208014
1612.7 22.657393198715624
1636.16 22.747258437441133
1659.95 22.838581814901943
1684.1 22.932309922180735
1708.6 23.021896572880905
1733.45 23.103481888455875
1758.66 23.173894483395813
1784.24 23.224982674933457
1810.19 23.256359637075036
1836.52 23.277770732094552
1863.24 23.302723109849993
1890.34 23.34363884146778
1917.83 23.40771850566071
1945.73 23.49502042980872
1974.03 23.602122965410814
2002.74 23.723355506459953
2031.87 23.851516805426158
2061.43 23.97134965731965
2091.41 24.06838666718737
2121.83 24.125767779142578
2152.69 24.149247444713936
2184.01 24.157006104817327
2215.77 24.16372105514391
2248.0 24.170694079591556
2280.7 24.169587257162505
2313.87 24.154019703838188
2347.53 24.133796829087217
2381.68 24.12409427937952
2416.32 24.131075475008203
2451.46 24.134312090529633
2487.12 24.118187881953432
2523.3 24.08440181434699
2560.0 24.04455823150583
2597.24 24.017709403374425
2635.01 24.018384460775934
2673.34 24.029210310311925
2712.23 24.02650502859194
2751.68 24.000925582711176
2791.7 23.954694492333203
2832.31 23.890694816215102
2873.5 23.824643748736122
2915.3 23.77599609146351
2957.7 23.74713046296887
3000.72 23.703897037834878
3044.37 23.611858351657787
3088.65 23.45440612898659
3133.58 23.2644079336753
3179.16 23.11688473648796
3225.4 23.02531906274764
3272.31 22.917851187220037
3319.91 22.74373152335835
3368.2 22.52920872200741
3417.19 22.358162610351187
3466.89 22.25867355149923
3517.32 22.17511804372846
3568.48 22.090479991400557
3620.39 22.04430341345406
3673.05 22.031928016859297
3726.47 21.969636305262753
3780.67 21.84287530201894
3835.67 21.750979606627865
3891.46 21.741545333232907
3948.06 21.732992925300266
4005.49 21.682249701678344
4063.75 21.6571405902245
4122.86 21.657889139782313
4182.82 21.536957827812998
4243.66 21.18618825291327
4305.39 20.910809642711186
4368.01 20.977350871394208
4431.55 21.044894795331743
4496.01 20.9656086498007
4561.4 20.939775963650362
4627.75 20.996282849203993
4695.06 20.996824654869428
4763.35 20.936347098515753
4832.64 20.898683015708173
4902.93 20.979999079875626
4974.24 21.09475657511082
5046.6 21.11427803531558
5120.0 21.152689996650764
5194.47 21.25846988155965
5270.03 21.216064609309626
5346.68 21.11924762034144
5424.45 21.13811715416972
5503.35 21.10605881437428
5583.4 21.077809978432228
5664.61 21.148263012381108
5747.01 21.187269182216085
5830.6 21.189591694389975
5915.41 21.218075965928364
6001.45 21.328726047908887
6088.74 21.389075665648946
6177.3 21.4056321213792
6267.15 21.483577039401325
6358.31 21.46170223451024
6450.8 21.41650180078227
6544.62 21.2430494386697
6639.82 20.999825950750463
6736.4 20.840088280045634
6834.38 20.83129102815255
6933.79 20.93352337954329
7034.64 21.07492993382722
7136.96 21.25937694402461
7240.77 21.411081718930475
7346.09 21.58117398569388
7452.94 21.725522613050146
7561.35 21.85913831917371
7671.33 21.926236305524426
7782.91 22.027668601904523
7896.12 22.032500060127404
8010.97 22.108385585348444
8127.49 22.10213231833555
8245.71 22.172877965542796
8365.65 22.166242917400737
8487.33 22.141276958945213
8610.78 22.044938554949482
8736.03 21.95601132986718
8863.09 21.887773807193796
8992.01 21.871085613239146
9122.8 21.920325920729695
9255.5 22.09524609166691
9390.12 22.236280957072793
9526.7 22.431446289363137
9665.27 22.597007134775055
9805.86 22.803728987601644
9948.49 22.989577689831293
10093.2 23.159500770798843
10240.0 23.257773052894066
10388.9 23.28595306660702
10540.1 23.233322554991574
10693.4 23.113952648005252
10848.9 22.997387315088886
11006.7 22.95093672491504
11166.8 22.956372217701784
11329.2 23.013018763291953
11494.0 23.11634685266192
11661.2 23.254079504543498
11830.8 23.361035484046084
12002.9 23.4017339760763
12177.5 23.416776761567803
12354.6 23.472539714483744
12534.3 23.571706785870404
12716.6 23.696806991463248
12901.6 23.828470936203928
13089.2 23.917870134266522
13279.6 23.96973210799557
13472.8 24.032091354625308
13668.8 24.094006271785204
13867.6 24.112828326032485
14069.3 24.08553646208817
14273.9 24.032692105696185
14481.5 23.98536774937284
14692.2 23.96128353227465
14905.9 23.94415935048984
15122.7 23.887910275347565
15342.7 23.766839657022302
15565.8 23.637594479827285
15792.2 23.584314502091956
16021.9 23.627700001727533
16255.0 23.71712811235433
16491.4 23.767463949785025
16731.3 23.77490270736405
16974.7 23.725541524573714
17221.6 23.738701911206817
17472.1 23.851372512085547
17726.2 23.948217196807022
17984.0 24.016406176451213
18245.6 24.04020373957222
18511.0 24.025646827861138
18780.2 24.05457609099207
19053.4 24.14148792119032
19330.5 24.25745081427722
19611.7 24.39331927011945
19897.0 24.54484996926989
