Freq "Early Reflections DI"
20.0 19.068307968208416
20.2909 19.096334713516427
20.586 19.124427177349446
20.8855 19.151027532306045
21.1893 19.175674631488477
21.4975 19.197090477955868
21.8102 19.214381083179518
22.1274 19.227365649407176
22.4492 19.234450820400014
22.7758 19.235331088687417
23.1071 19.23014219373374
23.4432 19.217549991987823
23.7841 19.19772925249535
24.1301 19.171551706038798
24.4811 19.13960436507483
24.8372 19.10289458718674
25.1984 19.062774526779236
25.5649 19.0203870059251
25.9368 18.978566128022123
26.3141 18.937840197992955
26.6968 18.900792904251574
27.0851 18.868777064713527
27.4791 18.843876938044957
27.8788 18.827374840021633
28.2843 18.81980744062372
28.6957 18.820979342885806
29.1131 18.830914987413365
29.5365 18.84866603077677
29.9661 18.873486162127847
30.402 18.903208512455564
30.8442 18.936147144139454
31.2929 18.97072341956371
31.748 19.0042655172941
32.2098 19.034453940468126
32.6783 19.06101750222936
33.1536 19.081437277685268
33.6359 19.096773730688653
34.1251 19.105642632747106
34.6215 19.108914087396585
35.125 19.10827966597975
35.6359 19.10439863916983
36.1543 19.098924619012024
36.6802 19.093564776189538
37.2137 19.089214126742576
37.755 19.08708998285175
38.3041 19.08764979031308
38.8613 19.090700597107755
39.4265 19.09590625479261
40.0 19.102404686919883
40.5818 19.109144591405155
41.1721 19.115201285122126
41.771 19.119924028616637
42.3785 19.12263151398969
42.9949 19.123892965877374
43.6203 19.12430171317925
44.2548 19.124432383327402
44.8985 19.125166405082012
45.5515 19.127563427224572
46.2141 19.132319287791816
46.8863 19.139065410455345
47.5683 19.14731861320128
48.2602 19.15672730740448
48.9621 19.166405238766203
49.6743 19.17541373331494
50.3968 19.182613288375464
51.1299 19.187922081690544
51.8736 19.192667139960648
52.6281 19.196317069827145
53.3936 19.199872759845917
54.1702 19.203461495429252
54.9581 19.206372147408516
55.7575 19.208433433928263
56.5685 19.209210260512975
57.3914 19.20779651467349
58.2261 19.205107903089413
59.073 19.20210306791475
59.9323 19.202304354061383
60.804 19.20753714316001
61.6884 19.22155446417436
62.5857 19.244367420696875
63.496 19.27449496866913
64.4196 19.30900299120178
65.3566 19.34259622288465
66.3073 19.369405455817457
67.2717 19.384948078652613
68.2502 19.388820699995975
69.2429 19.3829114538306
70.2501 19.372191981987143
71.2719 19.36191010604341
72.3086 19.358052381316625
73.3603 19.362480795366693
74.4274 19.37340120196251
75.5099 19.38655885628485
76.6083 19.39742013472076
77.7226 19.401980221552478
78.8531 19.400162533948958
80.0 19.394824639812214
81.1636 19.391046500803952
82.3442 19.393669616329802
83.5419 19.403814625757846
84.757 19.4216347271429
85.9899 19.442540459894573
87.2406 19.46386128207547
88.5096 19.47992159168878
89.797 19.490167004308503
91.1031 19.4942002400595
92.4282 19.494257904286883
93.7726 19.49489237349283
95.1366 19.49920166414863
96.5204 19.510220885925776
97.9243 19.526444659873803
99.3486 19.54446296413613
100.794 19.559297306988213
102.26 19.568080439717576
103.747 19.57198817903118
105.256 19.575600397621727
106.787 19.58263565128766
108.34 19.592938773555062
109.916 19.602898434562007
111.515 19.6091429160345
113.137 19.611317372982242
114.783 19.614587741826753
116.452 19.62285778544718
118.146 19.636530956179826
119.865 19.649258961762058
121.608 19.655483630977756
123.377 19.655972822292185
125.171 19.657995614956818
126.992 19.6664140985516
128.839 19.683135042167137
130.713 19.702331510210925
132.615 19.718550914064096
134.543 19.73007598193287
136.5 19.737309245441793
138.486 19.741949503882154
140.5 19.74785311952536
142.544 19.757898582629977
144.617 19.769150471228258
146.721 19.778977400277284
148.855 19.785806642779846
151.02 19.791116309506947
153.217 19.799108435844772
155.445 19.810083480951207
157.706 19.819485151079917
160.0 19.825056605056204
162.327 19.82969202404317
164.688 19.838255175254503
167.084 19.850985716143185
169.514 19.86075031508301
171.98 19.863778931738707
174.481 19.8671146613936
177.019 19.87512209592782
179.594 19.884174108534708
182.206 19.89032112947187
184.856 19.899283924368717
187.545 19.914076959117665
190.273 19.926342600873028
193.041 19.92663812686793
195.849 19.924188358593895
198.697 19.929233360519063
201.587 19.937250051100463
204.52 19.942164533081183
207.494 19.947642500684296
210.512 19.956484890652376
213.574 19.96315173024601
216.681 19.96643117473326
219.833 19.96935832831116
223.03 19.97243911685925
226.274 19.975859218844477
229.565 19.98342272773229
232.905 19.98661178612184
236.292 19.980814494825154
239.729 19.98196975154731
243.216 19.98872691627558
246.754 19.991387583606056
250.343 19.995651654567624
253.984 19.997302764915474
257.678 20.002387818263855
261.426 20.005017639562936
265.229 20.003477224821452
269.087 20.008010954039918
273.001 20.00611423632583
276.972 20.008420699304565
281.0 20.011166922151546
285.088 20.01318910593423
289.234 20.0172824265385
293.441 20.01800265890884
297.709 20.021385923777572
302.04 20.027002436081005
306.433 20.033326040174032
310.89 20.040754219465356
315.412 20.045009419194628
320.0 20.05448243946563
324.655 20.065084201488716
329.377 20.078066698191165
334.168 20.093867416091413
339.028 20.10674362511226
343.959 20.131025121723567
348.962 20.146205992696977
354.038 20.172733930862435
359.188 20.199166716346554
364.412 20.223552404162945
369.713 20.253175522525808
375.09 20.282672117955173
380.546 20.31653423764483
386.081 20.352467754506534
391.697 20.38194754983735
397.394 20.419930649747485
403.175 20.4507273936959
409.039 20.48322848936931
414.989 20.512570567133366
421.025 20.544817738458818
427.149 20.566507529672407
433.362 20.595833635613502
439.665 20.620979760029627
446.06 20.641795308520315
452.548 20.659102652874054
459.131 20.680253823708426
465.809 20.695252243229177
472.584 20.70856904563753
479.458 20.720566694860835
486.432 20.737201528140275
493.507 20.742395343945404
500.686 20.760120803146364
507.968 20.77946462928921
515.357 20.787314076218635
522.853 20.804091290339883
530.458 20.819759714174253
538.174 20.839470801810933
546.002 20.85737352204768
553.943 20.87491896772751
562.001 20.89502029925856
570.175 20.91920952950953
578.469 20.94151357080291
586.883 20.96412154670361
595.419 20.984731094851668
604.08 21.00012254943357
612.866 21.021969971315215
621.78 21.03726115541913
630.824 21.051781892752075
640.0 21.06403178808604
649.309 21.074123389785925
658.753 21.075165133678126
668.335 21.077227127149783
678.056 21.075936124085302
687.919 21.06940018332591
697.925 21.065503298355964
708.077 21.052835783979887
718.376 21.044903388349383
728.825 21.034684365324495
739.426 21.02879403148981
750.181 21.02672738284906
761.093 21.031447850112983
772.163 21.04404668358839
783.394 21.06362795118784
794.789 21.094582533646104
806.349 21.133780319529833
818.078 21.17628461462178
829.977 21.225735693501875
842.05 21.27256119835009
854.298 21.32553989744595
866.724 21.367382894298473
879.33 21.405138768192316
892.12 21.439120275697974
905.097 21.46107333419826
918.262 21.47853262131551
931.618 21.487195273771732
945.169 21.493255902362534
958.917 21.495025041552566
972.864 21.500679260555103
987.015 21.513767211355187
1001.37 21.533097883258677
1015.94 21.56805319724839
1030.71 21.616113869214644
1045.71 21.67961274703468
1060.92 21.75115046954346
1076.35 21.828587465451946
1092.0 21.907010130890612
1107.89 21.98093362735844
1124.0 22.041731450549975
1140.35 22.08502533828556
1156.94 22.108033985427994
1173.77 22.10893273130725
1190.84 22.088121951546157
1208.16 22.04849468531019
1225.73 21.99945559174145
1243.56 21.946778415559805
1261.65 21.905011462028767
1280.0 21.883584358506113
1298.62 21.882961764304383
1317.51 21.903911859417917
1336.67 21.947009248605383
1356.11 22.00276062450125
1375.84 22.067012714926364
1395.85 22.129956596377397
1416.15 22.18812145394078
1436.75 22.239917674154597
1457.65 22.283188967545257
1478.85 22.32214255542361
1500.36 22.359306147470633
1522.19 22.397492552708528
1544.33 22.445749862684764
1566.79 22.504860443645484
1589.58 22.576319832208
1612.7 22.65739319871561
1636.16 22.74725843744116
1659.95 22.838581814901943
1684.1 22.93230992218072
1708.6 23.02189657288092
1733.45 23.103481888455875
1758.66 23.1738944833958
1784.24 23.224982674933457
1810.19 23.256359637075036
1836.52 23.277770732094552
1863.24 23.30272310985002
1890.34 23.34363884146778
1917.83 23.40771850566071
1945.73 23.49502042980869
1974.03 23.602122965410828
2002.74 23.72335550645994
2031.87 23.851516805426158
2061.43 23.97134965731965
2091.41 24.068386667187383
2121.83 24.125767779142592
2152.69 24.149247444713936
2184.01 24.157006104817327
2215.77 24.16372105514391
2248.0 24.170694079591556
2280.7 24.169587257162505
2313.87 24.154019703838188
2347.53 24.133796829087203
2381.68 24.12409427937952
2416.32 24.131075475008203
2451.46 24.134312090529605
2487.12 24.118187881953446
2523.3 24.08440181434699
2560.0 24.04455823150583
2597.24 24.017709403374425
2635.01 24.018384460775934
2673.34 24.029210310311896
2712.23 24.02650502859194
2751.68 24.00092558271116
2791.7 23.95469449233319
2832.31 23.890694816215102
2873.5 23.824643748736122
2915.3 23.77599609146351
2957.7 23.74713046296887
3000.72 23.703897037834878
3044.37 23.6118583516578
3088.65 23.454406128986605
3133.58 23.2644079336753
3179.16 23.116884736487975
3225.4 23.025319062747627
3272.31 22.917851187220037
3319.91 22.74373152335835
3368.2 22.52920872200741
3417.19 22.358162610351187
3466.89 22.25867355149923
3517.32 22.175118043728446
3568.48 22.09047999140057
3620.39 22.044303413454088
3673.05 22.031928016859297
3726.47 21.969636305262753
3780.67 21.84287530201894
3835.67 21.750979606627865
3891.46 21.741545333232907
3948.06 21.732992925300266
4005.49 21.682249701678344
4063.75 21.6571405902245
4122.86 21.657889139782313
4182.82 21.536957827812998
4243.66 21.186188252913254
4305.39 20.9108096427112
4368.01 20.977350871394208
4431.55 21.044894795331743
4496.01 20.9656086498007
4561.4 20.939775963650362
4627.75 20.996282849203993
4695.06 20.996824654869428
4763.35 20.93634709851574
4832.64 20.898683015708173
4902.93 20.97999907987561
4974.24 21.09475657511082
5046.6 21.114278035315564
5120.0 21.152689996650764
5194.47 21.258469881559634
5270.03 21.216064609309626
5346.68 21.11924762034144
5424.45 21.13811715416972
5503.35 21.106058814374265
5583.4 21.077809978432242
5664.61 21.148263012381108
5747.01 21.18726918221607
5830.6 21.189591694389975
5915.41 21.218075965928392
6001.45 21.328726047908887
6088.74 21.389075665648946
6177.3 21.405632121379227
6267.15 21.48357703940134
6358.31 21.46170223451024
6450.8 21.41650180078227
6544.62 21.2430494386697
6639.82 20.99982595075045
6736.4 20.840088280045634
6834.38 20.831291028152535
6933.79 20.93352337954329
7034.64 21.074929933827235
7136.96 21.25937694402461
7240.77 21.41108171893049
7346.09 21.58117398569388
7452.94 21.725522613050146
7561.35 21.85913831917371
7671.33 21.926236305524412
7782.91 22.027668601904523
7896.12 22.032500060127404
8010.97 22.10838558534843
8127.49 22.10213231833555
8245.71 22.172877965542824
8365.65 22.166242917400723
8487.33 22.141276958945227
8610.78 22.044938554949468
8736.03 21.95601132986718
8863.09 21.887773807193796
8992.01 21.87108561323916
9122.8 21.92032592072968
9255.5 22.09524609166691
9390.12 22.236280957072807
9526.7 22.431446289363137
9665.27 22.59700713477507
9805.86 22.80372898760166
9948.49 22.989577689831293
10093.2 23.159500770798843
10240.0 23.257773052894066
10388.9 23.28595306660702
10540.1 23.233322554991545
10693.4 23.113952648005267
10848.9 22.997387315088886
11006.7 22.95093672491504
11166.8 22.956372217701784
11329.2 23.01301876329194
11494.0 23.11634685266192
11661.2 23.254079504543512
11830.8 23.361035484046084
12002.9 23.4017339760763
12177.5 23.41677676156779
12354.6 23.472539714483773
12534.3 23.571706785870404
12716.6 23.696806991463262
12901.6 23.828470936203928
13089.2 23.917870134266522
13279.6 23.969732107995554
13472.8 24.03209135462528
13668.8 24.094006271785204
13867.6 24.112828326032485
14069.3 24.085536462088186
14273.9 24.032692105696185
14481.5 23.98536774937284
14692.2 23.961283532274635
14905.9 23.94415935048984
15122.7 23.88791027534755
15342.7 23.766839657022317
15565.8 23.637594479827285
15792.2 23.584314502091956
16021.9 23.627700001727547
16255.0 23.71712811235433
16491.4 23.76746394978501
16731.3 23.77490270736405
16974.7 23.72554152457373
17221.6 23.73870191120683
17472.1 23.851372512085547
17726.2 23.948217196807008
17984.0 24.016406176451213
18245.6 24.040203739572206
18511.0 24.025646827861138
18780.2 24.05457609099207
19053.4 24.141487921190333
19330.5 24.25745081427722
19611.7 24.393319270119463
19897.0 24.544849969269904
