Freq "Listening Window"
20.0 23.642733021658074
20.2909 23.818013514542685
20.586 24.15521356457154
20.8855 24.611685740657123
21.1893 25.046110266586965
21.4975 25.347794742441152
21.8102 25.501751613010327
22.1274 25.532867946601385
22.4492 25.510968086085654
22.7758 25.54422287283208
23.1071 25.741578652733892
23.4432 26.153000513933904
23.7841 26.742883689931404
24.1301 27.406505956140705
24.4811 28.08402420775053
24.8372 28.750190744025417
25.1984 29.40105745754377
25.5649 30.03464740802545
25.9368 30.651496486019624
26.3141 31.25017937080483
26.6968 31.837431865891176
27.0851 32.43290303825282
27.4791 33.05337526129884
27.8788 33.70436048031729
28.2843 34.3701335869886
28.6957 35.03465794286436
29.1131 35.68778584564012
29.5365 36.330807483336514
29.9661 36.967603592002945
30.402 37.59284740687369
30.8442 38.180280772752326
31.2929 38.71404910799046
31.748 39.195009885877454
32.2098 39.64668347159298
32.6783 40.11699150832359
33.1536 40.63902213855246
33.6359 41.21051632771841
34.1251 41.80645839152314
34.6215 42.400869793468814
35.125 42.99424982525301
35.6359 43.614553307600204
36.1543 44.27182350756786
36.6802 44.95652115542032
37.2137 45.64816264738536
37.755 46.3396376688124
38.3041 47.04226703787069
38.8613 47.75813774682305
39.4265 48.478256674947744
40.0 49.19100837540881
40.5818 49.90006349734662
41.1721 50.60925890347997
41.771 51.30392574003581
42.3785 51.95883877687278
42.9949 52.581504813757675
43.6203 53.19881318887434
44.2548 53.834579073290385
44.8985 54.47836310714206
45.5515 55.11607487466895
46.2141 55.74724854821268
46.8863 56.375091895690815
47.5683 56.99745830583852
48.2602 57.60535833894565
48.9621 58.20516473374981
49.6743 58.796971345233814
50.3968 59.368837770844834
51.1299 59.91568204540437
51.8736 60.447355083080595
52.6281 60.964363547751645
53.3936 61.455714189616444
54.1702 61.91193086977657
54.9581 62.333581794318874
55.7575 62.723096334151705
56.5685 63.080085790842034
57.3914 63.409492586140615
58.2261 63.71309136382433
59.073 63.9930426475636
59.9323 64.2687709855563
60.804 64.5497808586123
61.6884 64.83144452300138
62.5857 65.11403313995702
63.496 65.37999509600112
64.4196 65.6092155152694
65.3566 65.79775003467256
66.3073 65.95162603676732
67.2717 66.06586570994268
68.2502 66.15589391332273
69.2429 66.24034429153461
70.2501 66.33195605300574
71.2719 66.44254293996467
72.3086 66.5700041006412
73.3603 66.69783359317762
74.4274 66.82692343715617
75.5099 66.94788361848664
76.6083 67.04186490085775
77.7226 67.13525372453672
78.8531 67.24965816514798
80.0 67.3775187815626
81.1636 67.51780578238524
82.3442 67.6644424976422
83.5419 67.81825301214019
84.757 67.97726252537613
85.9899 68.14032735494516
87.2406 68.30752299391044
88.5096 68.49063866576995
89.797 68.6848180121153
91.1031 68.85899831612147
92.4282 68.99405713780708
93.7726 69.09568649273731
95.1366 69.18228022437715
96.5204 69.29187979134362
97.9243 69.43389758258546
99.3486 69.59630003529645
100.794 69.76287958044112
102.26 69.90681507572356
103.747 70.02731444956356
105.256 70.14095018771302
106.787 70.25828187623134
108.34 70.37728753517081
109.916 70.46349986154483
111.515 70.52592247109285
113.137 70.59399900574489
114.783 70.66275006269798
116.452 70.72895356479593
118.146 70.80406219084075
119.865 70.88317223483138
121.608 70.94613209623995
123.377 70.97983109136699
125.171 70.9994254877023
126.992 71.01618105795986
128.839 71.04642934827658
130.713 71.07949495820067
132.615 71.09543888790277
134.543 71.09132941883936
136.5 71.0840622136714
138.486 71.06768035292673
140.5 71.02788527075202
142.544 70.97511638729812
144.617 70.92102290697491
146.721 70.86747480396278
148.855 70.8570088406119
151.02 70.84108406722889
153.217 70.78006141248704
155.445 70.7418322514824
157.706 70.70206787830185
160.0 70.48652618306512
162.327 70.33741428167556
164.688 70.3134123343994
167.084 70.33552342676829
169.514 70.37019665880646
171.98 70.14565578086868
174.481 69.90865404262946
177.019 69.81906813700691
179.594 69.79082677241084
182.206 69.78360569098265
184.856 69.81872446083312
187.545 69.85094186588391
190.273 69.88548371059294
193.041 69.89537072497484
195.849 69.86049241819374
198.697 69.82892626491758
201.587 69.75022785851189
204.52 69.5479861476689
207.494 69.43279275684341
210.512 69.3187005761526
213.574 69.34613666224733
216.681 69.23501683186092
219.833 69.1311122975134
223.03 69.06364291044343
226.274 69.06344608201755
229.565 69.08380419162116
232.905 68.95887909848946
236.292 68.90942009010502
239.729 68.92953749877476
243.216 69.01419567864707
246.754 69.0021094501563
250.343 68.86020264546273
253.984 68.79608015619844
257.678 68.78631577301536
261.426 68.7915215412817
265.229 68.7478610092675
269.087 68.59207327351189
273.001 68.46975257888835
276.972 68.52518979517535
281.0 68.5185259881415
285.088 68.54864273019277
289.234 68.5887466183151
293.441 68.63598539193127
297.709 68.54392640433218
302.04 68.49119839281192
306.433 68.25109755808575
310.89 68.21438919206412
315.412 68.36052522295496
320.0 68.24216316898853
324.655 68.00129276740039
329.377 67.91650774595814
334.168 68.01795587809806
339.028 67.99333638947446
343.959 68.10417570015416
348.962 67.91060144253159
354.038 67.76080272300396
359.188 67.79328119070568
364.412 67.68394956489884
369.713 67.62298144364547
375.09 67.66454505153953
380.546 67.59917519103607
386.081 67.63906453471385
391.697 67.492923031662
397.394 67.41785539381405
403.175 67.31957051758013
409.039 67.34081256506373
414.989 67.38595603944013
421.025 67.43839668210045
427.149 67.4934056745619
433.362 67.5246415427248
439.665 67.62368522677443
446.06 67.6865283956634
452.548 67.75601392350269
459.131 67.8462514879766
465.809 67.93659964193496
472.584 68.02604168713528
479.458 68.10424522929728
486.432 68.18602261442904
493.507 68.25336790715832
500.686 68.33010385264473
507.968 68.40237365075777
515.357 68.45564574132709
522.853 68.51596471918675
530.458 68.57002213658646
538.174 68.62435514737496
546.002 68.67203753595882
553.943 68.71573032038397
562.001 68.76138309991094
570.175 68.80509590973092
578.469 68.85008938331153
586.883 68.88579223227595
595.419 68.91905633733133
604.08 68.94428523954672
612.866 68.96882616625766
621.78 68.98534025069137
630.824 68.9898261254317
640.0 68.98882577626814
649.309 68.97770699323797
658.753 68.9469422779598
668.335 68.91051172155912
678.056 68.8612489207014
687.919 68.79975041757929
697.925 68.72957963389257
708.077 68.65520997625245
718.376 68.57788395674264
728.825 68.49926306866969
739.426 68.43365928684308
750.181 68.37665376512962
761.093 68.33746771642161
772.163 68.32194098109503
783.394 68.33263476293956
794.789 68.37183512186841
806.349 68.43216217891437
818.078 68.51117689192532
829.977 68.61000965551695
842.05 68.71242398567844
854.298 68.82166372418857
866.724 68.91771225779974
879.33 69.00309070476507
892.12 69.07565523511984
905.097 69.12440370287797
918.262 69.155304724235
931.618 69.16868894201896
945.169 69.17206917779129
958.917 69.16672136960773
972.864 69.16575057211551
987.015 69.17718702881139
1001.37 69.19893377691031
1015.94 69.24362780371077
1030.71 69.31407912113143
1045.71 69.40771952078788
1060.92 69.5116692282391
1076.35 69.62161233666266
1092.0 69.72707443461688
1107.89 69.81821685702766
1124.0 69.8878678684032
1140.35 69.9320333226713
1156.94 69.94670603577947
1173.77 69.94046987420344
1190.84 69.9188500528274
1208.16 69.89157345397379
1225.73 69.8739229765462
1243.56 69.8802230540625
1261.65 69.92252185913333
1280.0 70.00586148490441
1298.62 70.12780723622798
1317.51 70.27831495404918
1336.67 70.44664410643702
1356.11 70.61265019563427
1375.84 70.76616911824645
1395.85 70.88536861075688
1416.15 70.96716806624718
1436.75 71.00810193265463
1457.65 71.01629404297316
1478.85 71.00611943322903
1500.36 71.00303017567424
1522.19 71.03132581138786
1544.33 71.11784242715379
1566.79 71.27732519450547
1589.58 71.50114427995703
1612.7 71.75784530392573
1636.16 72.01279584261815
1659.95 72.22326516565117
1684.1 72.35796484951214
1708.6 72.4005243782695
1733.45 72.35490421400236
1758.66 72.25458101060636
1784.24 72.1520630319553
1810.19 72.11573341066212
1836.52 72.19075988923905
1863.24 72.3743595823784
1890.34 72.61011670201016
1917.83 72.81040416692592
1945.73 72.8906546797634
1974.03 72.79517698112727
2002.74 72.50367308668287
2031.87 72.03730685573534
2061.43 71.4690460163493
2091.41 70.90981353118586
2121.83 70.4700626221724
2152.69 70.1868670786091
2184.01 69.97216528776866
2215.77 69.69407089578718
2248.0 69.25528390770717
2280.7 68.66388884661937
2313.87 68.06043426254676
2347.53 67.69669481184033
2381.68 67.74574205054272
2416.32 68.10554437460438
2451.46 68.50826265899539
2487.12 68.74244904455374
2523.3 68.7435513367659
2560.0 68.58389879225632
2597.24 68.44111857372431
2635.01 68.50298560120522
2673.34 68.8070900918704
2712.23 69.19988191987059
2751.68 69.47241191885651
2791.7 69.50950306581623
2832.31 69.36142422306247
2873.5 69.24875988646923
2915.3 69.40255264116901
2957.7 69.80384420368068
3000.72 70.1740849009441
3044.37 70.28331963705529
3088.65 70.12984510329935
3133.58 69.96425177520926
3179.16 70.06267948431137
3225.4 70.380525246853
3272.31 70.60535638151927
3319.91 70.54656333201402
3368.2 70.31105097264614
3417.19 70.18537833408254
3466.89 70.30051545750793
3517.32 70.48724408914454
3568.48 70.55793236878773
3620.39 70.51941541286016
3673.05 70.49472688443466
3726.47 70.54279808135924
3780.67 70.62763760982321
3835.67 70.7023139268218
3891.46 70.75759061592117
3948.06 70.83471090992155
4005.49 70.96629930692927
4063.75 71.01949958558558
4122.86 70.68609776856411
4182.82 69.73732744775091
4243.66 68.36825346542463
4305.39 67.42158927929596
4368.01 67.33700858761644
4431.55 67.48979709908548
4496.01 67.44117200648495
4561.4 67.4050984966847
4627.75 67.62886616994359
4695.06 67.90417997969827
4763.35 67.86904088171622
4832.64 67.66531429304695
4902.93 67.76151734848506
4974.24 67.95487245866326
5046.6 67.83820303761124
5120.0 67.75055101035612
5194.47 67.91159137976295
5270.03 67.9096045635961
5346.68 67.72992205230915
5424.45 67.70742123834827
5503.35 67.9195710484552
5583.4 68.1305482466493
5664.61 68.22257040179421
5747.01 68.50905186964678
5830.6 68.7186517234822
5915.41 68.60024343951739
6001.45 68.79753966376141
6088.74 68.9623780551534
6177.3 68.73819219736495
6267.15 68.82628909448133
6358.31 69.02865601527402
6450.8 68.98089811746976
6544.62 69.26341300643196
6639.82 69.60058185248941
6736.4 69.5702842899958
6834.38 69.93226401643993
6933.79 70.1282311503512
7034.64 70.30522208044529
7136.96 70.62092818156259
7240.77 70.6459139973231
7346.09 70.81325746261842
7452.94 70.91293329415043
7561.35 70.84143333148675
7671.33 70.9956130017248
7782.91 70.92687812629855
7896.12 70.94956645958307
8010.97 70.94108669872296
8127.49 70.83143403926724
8245.71 70.98376902467623
8365.65 70.90212538866881
8487.33 71.11666601691397
8610.78 71.08118574115922
8736.03 71.16162902485941
8863.09 71.15272831711886
8992.01 71.15939804668999
9122.8 71.37795701462166
9255.5 71.62488098706355
9390.12 72.15196838094559
9526.7 72.44460437388247
9665.27 72.90221920540878
9805.86 72.9957179026822
9948.49 73.33601734913327
10093.2 73.34846718461948
10240.0 73.57832200276476
10388.9 73.51311488432692
10540.1 73.43785870293499
10693.4 73.12658424759987
10848.9 72.77176182531798
11006.7 72.61999711176784
11166.8 72.6682785559172
11329.2 72.86102670868026
11494.0 72.81932513590675
11661.2 73.08588262293198
11830.8 73.13026626831342
12002.9 73.20102576366814
12177.5 73.33914718366682
12354.6 73.11852865402075
12534.3 72.95376059916634
12716.6 72.84310717014552
12901.6 72.68024900735362
13089.2 72.7228154292449
13279.6 72.69908426138046
13472.8 72.3493596889638
13668.8 71.96898786823986
13867.6 71.76815299392389
14069.3 71.67905078728565
14273.9 71.6550327431103
14481.5 71.6389874906123
14692.2 71.70051381141192
14905.9 71.86829456809804
15122.7 71.76939652887293
15342.7 71.34247779046706
15565.8 70.96629498387449
15792.2 70.6444105879736
16021.9 70.38758837213086
16255.0 70.32934752772087
16491.4 70.28051613394675
16731.3 70.28450685264255
16974.7 70.30453732439173
17221.6 70.594401606991
17472.1 71.19849687090947
17726.2 71.59020824465398
17984.0 71.82343843161219
18245.6 72.10649526383862
18511.0 72.36888141364857
18780.2 72.64482218966576
19053.4 72.690198435618
19330.5 72.64837474275532
19611.7 72.59811391110222
19897.0 72.41705025724445
