Freq "Sound Power"
20.0 24.982174042473446
20.2909 25.13277290070687
20.586 25.445428994740524
20.8855 25.87910132806502
21.1893 26.29310947513477
21.4975 26.577721627940633
21.8102 26.718783161443554
22.1274 26.741401386161584
22.4492 26.71715905504837
22.7758 26.75407384214813
23.1071 26.961054062562283
23.4432 27.389450581482123
23.7841 28.00322558823487
24.1301 28.696809314539564
24.4811 29.409778393929372
24.8372 30.115878191579554
25.1984 30.80940620923147
25.5649 31.487717585213886
25.9368 32.14797201571534
26.3141 32.78828908201473
26.6968 33.41288857630067
27.0851 34.03978731685251
27.4791 34.68396619735594
27.8788 35.34893412106803
28.2843 36.019202310005
28.6957 36.678337714852034
29.1131 37.31655482899973
29.5365 37.93608999185875
29.9661 38.54155199204766
30.402 39.12994565542658
30.8442 39.677099162070306
31.2929 40.16913640326672
31.748 40.60945412075924
32.2098 41.02459643342806
32.6783 41.463313052021675
33.1536 41.961122391515204
33.6359 42.5151592839064
34.1251 43.101916672273006
34.6215 43.69468271403204
35.125 44.291897847143986
35.6359 44.921001976033125
36.1543 45.589459451669626
36.6802 46.28557436692037
37.2137 46.98755632322897
37.755 47.68621927225607
38.3041 48.391782457656575
38.8613 49.10616393316141
39.4265 49.82024566367562
40.0 50.52314295513405
40.5818 51.22004481642507
41.1721 51.91586333733774
41.771 52.59739137701111
42.3785 53.24088295871475
42.9949 53.85380728930696
43.6203 54.46361627582317
44.2548 55.093979496459696
44.8985 55.73406763757809
45.5515 56.36866341803368
46.2141 56.996173819660584
46.8863 57.61964360696092
47.5683 58.236627962167105
48.2602 58.83778843514969
48.9621 59.4293143150513
49.6743 60.012040035412454
50.3968 60.57458134223299
51.1299 61.11246571507378
51.8736 61.63489943604833
52.6281 62.14342134060945
53.3936 62.626937338405625
54.1702 63.07698344598093
54.9581 63.49468960394029
55.7575 63.882824775085
56.5685 64.24114944905014
57.3914 64.57460027500532
58.2261 64.88322809500401
59.073 65.16717086125294
59.9323 65.44198119832686
60.804 65.71512464204929
61.6884 65.97843590587269
62.5857 66.23287415202954
63.496 66.46326397612239
64.4196 66.65284069633645
65.3566 66.80344829409475
66.3073 66.9270413513131
67.2717 67.02299962648951
68.2502 67.10673079862006
69.2429 67.1947929882586
70.2501 67.2947115222274
71.2719 67.41323054046342
72.3086 67.54267833677602
73.3603 67.66486864937605
74.4274 67.78273122299255
75.5099 67.89028690853729
76.6083 67.97300509043353
77.7226 68.06032249820814
78.8531 68.17343447007131
80.0 68.30211714524287
81.1636 68.4408342500864
82.3442 68.579477788223
83.5419 68.71894133652182
84.757 68.85709768566053
85.9899 68.99762967524269
87.2406 69.14241520894164
88.5096 69.30790443188633
89.797 69.48967818838035
91.1031 69.6569757928593
92.4282 69.78940299857118
93.7726 69.88902917100171
95.1366 69.97157672593231
96.5204 70.07123025046167
97.9243 70.1973278589014
99.3486 70.3399255319899
100.794 70.48681665754782
102.26 70.61566990263415
103.747 70.72658362466755
105.256 70.83285379254755
106.787 70.94172316572404
108.34 71.04954690261141
109.916 71.12417089254296
111.515 71.17678858248483
113.137 71.23807273222978
114.783 71.29947535579828
116.452 71.35396374178889
118.146 71.41200704543544
119.865 71.47438930016376
121.608 71.52713786692365
123.377 71.5570393607252
125.171 71.57241377596631
126.992 71.57847381402641
128.839 71.58876367327773
130.713 71.5980901789462
132.615 71.59323159704321
134.543 71.57355062153732
136.5 71.55557471953587
138.486 71.53072013787097
140.5 71.47966723228892
142.544 71.41052412424702
144.617 71.3407726100532
146.721 71.27518787326218
148.855 71.2560418030428
151.02 71.23103277035
153.217 71.15678320726252
155.445 71.10306211068928
157.706 71.05109102424768
160.0 70.82638535902554
162.327 70.6672601351758
164.688 70.63001437620329
167.084 70.6355842054013
169.514 70.65606566339609
171.98 70.42249131715036
174.481 70.17753556025099
177.019 70.07738374832786
179.594 70.0362298909043
182.206 70.0165051993925
184.856 70.0375722093851
187.545 70.05266573086138
190.273 70.07158675103568
193.041 70.07463513923055
195.849 70.03563302852422
198.697 69.99537048052088
201.587 69.90505354471003
204.52 69.69016841124598
207.494 69.5621855197824
210.512 69.43667614031538
213.574 69.45442674001319
216.681 69.33394871535349
219.833 69.22122178825587
223.03 69.14465605509582
226.274 69.13605305962363
229.565 69.14665238278678
232.905 69.0126268021193
236.292 68.96008490840245
239.729 68.97426702882511
243.216 69.04921283945698
246.754 69.02939772087775
250.343 68.87654036845333
253.984 68.8049372503948
257.678 68.78571254897246
261.426 68.78127236892625
265.229 68.7325908588828
269.087 68.56614704245533
273.001 68.4384601255816
276.972 68.48733842238818
281.0 68.47222283707589
285.088 68.49352692365017
289.234 68.52526308779296
293.441 68.56413843660607
297.709 68.4629970070445
302.04 68.3963132950332
306.433 68.13762346053038
310.89 68.09752181259314
315.412 68.23197507349039
320.0 68.09164984428574
324.655 67.83535848429695
329.377 67.72886680061079
334.168 67.80512386278167
339.028 67.7585180607417
343.959 67.83656828552296
348.962 67.61831174717598
354.038 67.42553976092691
359.188 67.42142779834978
364.412 67.27290885690653
369.713 67.16841607226245
375.09 67.16227788286396
380.546 67.04714932446751
386.081 67.02794504846068
391.697 66.83066314524366
397.394 66.6925834090547
403.175 66.54069512795338
409.039 66.50379209749593
414.989 66.4886938416963
421.025 66.48245301590586
427.149 66.48400963653543
433.362 66.45848779416355
439.665 66.49523994752167
446.06 66.50415611622451
452.548 66.52184040401684
459.131 66.55244017747115
465.809 66.59339182165692
472.584 66.6327301684121
479.458 66.66368057111414
486.432 66.6915561323494
493.507 66.71404085399845
500.686 66.7353697237154
507.968 66.75118507535778
515.357 66.7658495250665
522.853 66.77297309065537
530.458 66.78006284365429
538.174 66.78295328389584
546.002 66.78485073704746
553.943 66.78518351768929
562.001 66.7873422515649
570.175 66.78299278090324
578.469 66.7831581967074
586.883 66.78289148208955
595.419 66.77946964317273
604.08 66.77746058777936
612.866 66.76838733913928
621.78 66.75892699116304
630.824 66.74152904353583
640.0 66.71860765748404
649.309 66.69291990803885
658.753 66.65323238220364
668.335 66.60795229928313
678.056 66.55036690487515
687.919 66.48846881484474
697.925 66.41247474107075
708.077 66.33865543651687
718.376 66.25771146176312
728.825 66.17609699453129
739.426 66.10242809127698
750.181 66.03348689327505
761.093 65.9733027720671
772.163 65.9283707910415
783.394 65.90093330325261
794.789 65.88794029593376
806.349 65.88869257026964
818.078 65.9010685203898
829.977 65.9252942376622
842.05 65.9515472596186
854.298 65.98044082401599
866.724 66.0070222152531
879.33 66.02572575937926
892.12 66.03859354594496
905.097 66.04030249751482
918.262 66.03432217280672
931.618 66.02288216152921
945.169 66.00797325807703
958.917 65.99158438204773
972.864 65.97757621024826
987.015 65.97122622150712
1001.37 65.96314240110779
1015.94 65.9590310973912
1030.71 65.95891580837794
1045.71 65.95804238454603
1060.92 65.94992689587869
1076.35 65.93622794146799
1092.0 65.912286894935
1107.89 65.87973873854642
1124.0 65.8452994338689
1140.35 65.81370076796118
1156.94 65.79077862678838
1173.77 65.78843449803117
1190.84 65.80835664125851
1208.16 65.85458665465758
1225.73 65.92588562110335
1243.56 66.0158606048838
1261.65 66.1147071114915
1280.0 66.21054407785032
1298.62 66.29304019399541
1317.51 66.35658927346368
1336.67 66.39457264829193
1356.11 66.4043391394555
1375.84 66.38971018337199
1395.85 66.35020570046991
1416.15 66.29431798390017
1436.75 66.22641263583611
1457.65 66.15890499454979
1478.85 66.09904666780365
1500.36 66.06336209175143
1522.19 66.06338694005379
1544.33 66.10773423699824
1566.79 66.20024091054175
1589.58 66.32930521396972
1612.7 66.46942495499466
1636.16 66.59210028304227
1659.95 66.66929705562383
1684.1 66.67416656204597
1708.6 66.60006730341394
1733.45 66.45668956589586
1758.66 66.27820785086439
1784.24 66.12250116588355
1810.19 66.0514339425926
1836.52 66.0911689514289
1863.24 66.22558110877966
1890.34 66.38649174588558
1917.83 66.48276574805479
1945.73 66.43663665355318
1974.03 66.19731618663833
2002.74 65.75388384812601
2031.87 65.1434770255738
2061.43 64.46729954134747
2091.41 63.86921050202625
2121.83 63.47753153887359
2152.69 63.30244304137062
2184.01 63.20700775222136
2215.77 63.030471409554934
2248.0 62.67654308317756
2280.7 62.175943754880564
2313.87 61.698084469048226
2347.53 61.485247232113224
2381.68 61.66820339356134
2416.32 62.09821983422657
2451.46 62.5213616573823
2487.12 62.757110722746816
2523.3 62.764000618944365
2560.0 62.6265483707171
2597.24 62.517890565468974
2635.01 62.601425680096895
2673.34 62.896704837809125
2712.23 63.26200055494597
2751.68 63.51155889007339
2791.7 63.55195801391827
2832.31 63.44788076346123
2873.5 63.404209475148136
2915.3 63.61854823004093
2957.7 64.0517090311688
3000.72 64.45730878330473
3044.37 64.64434677623628
3088.65 64.63781493629324
3133.58 64.66082447792758
3179.16 64.91436614503905
3225.4 65.32163180127196
3272.31 65.63253484972384
3319.91 65.71708014416514
3368.2 65.67757846804312
3417.19 65.72419543572423
3466.89 65.934974969024
3517.32 66.17452177752475
3568.48 66.28365559935865
3620.39 66.25510197254482
3673.05 66.21771516218806
3726.47 66.29255337227222
3780.67 66.45718682554927
3835.67 66.58577747436253
3891.46 66.6252129383987
3948.06 66.68685123304203
4005.49 66.86157253950694
4063.75 66.98883752634194
4122.86 66.78133865402341
4182.82 66.16449085278839
4243.66 65.40877554755865
4305.39 64.91989528921079
4368.01 64.75049180439662
4431.55 64.66803809055295
4496.01 64.51149036298439
4561.4 64.36426284628237
4627.75 64.42778047456413
4695.06 64.60078209038466
4763.35 64.5434454993599
4832.64 64.34342092018974
4902.93 64.37961995017899
4974.24 64.51561349404166
5046.6 64.46430234922614
5120.0 64.42533844089299
5194.47 64.55882394832706
5270.03 64.67759250396841
5346.68 64.63946985393656
5424.45 64.59723107729218
5503.35 64.82406667172575
5583.4 65.01098868818212
5664.61 64.95423311791734
5747.01 65.14233684381024
5830.6 65.27783571931673
5915.41 64.99074673245046
6001.45 64.93318312410663
6088.74 64.94941609450012
6177.3 64.65500810427513
6267.15 64.67201593207318
6358.31 64.93072814212924
6450.8 64.96265156151452
6544.62 65.37395076239278
6639.82 65.85370779832084
6736.4 65.92597982754543
6834.38 66.26069605015843
6933.79 66.31958335883425
7034.64 66.32376108069954
7136.96 66.44171416831306
7240.77 66.32729822073757
7346.09 66.364876632624
7452.94 66.39111171445569
7561.35 66.247578863808
7671.33 66.37903638581321
7782.91 66.1994737406229
7896.12 66.16708806334158
8010.97 66.01245022678867
8127.49 65.84555903100457
8245.71 65.8884089963223
8365.65 65.8088839357279
8487.33 66.0640678371469
8610.78 66.1602616568294
8736.03 66.38830649985293
8863.09 66.50601409031754
8992.01 66.54479201672544
9122.8 66.67760864828224
9255.5 66.65147163575855
9390.12 66.87713134866942
9526.7 66.7820810042248
9665.27 66.89545778045425
9805.86 66.65190077936262
9948.49 66.7464798682473
10093.2 66.5827811098782
10240.0 66.7086606878122
10388.9 66.59195920451337
10540.1 66.51616357882341
10693.4 66.28670546571124
10848.9 66.0468771996106
11006.7 65.96003124665744
11166.8 66.00635150393457
11329.2 66.10247202026648
11494.0 65.91594245301677
11661.2 65.98247968128578
11830.8 65.8079134562007
12002.9 65.68628151184974
12177.5 65.64904256658055
12354.6 65.25036675120548
12534.3 64.92390470551058
12716.6 64.68241209701617
12901.6 64.44227314794462
13089.2 64.48756857960444
13279.6 64.52211272357658
13472.8 64.21060853636266
13668.8 63.88273498717186
13867.6 63.78482203770142
14069.3 63.78816899508108
14273.9 63.81268632480838
14481.5 63.7847109779444
14692.2 63.74401855870207
14905.9 63.77099967642471
15122.7 63.61387915730276
15342.7 63.24973206481543
15565.8 62.97351639725531
15792.2 62.701796684052326
16021.9 62.434248629971506
16255.0 62.32905355771746
16491.4 62.267913413665624
16731.3 62.29215765656747
16974.7 62.32945645378821
17221.6 62.443657803629065
17472.1 62.777699000099375
17726.2 63.01480943224803
17984.0 63.1971542840337
18245.6 63.437410431522096
18511.0 63.61356519721171
18780.2 63.74560341267012
19053.4 63.614575713867026
19330.5 63.40631921600266
19611.7 63.207896064121755
19897.0 62.87268996610726
