Freq "Listening Window"
20.5078 80.35580911528929
21.2402 81.37145405554259
21.9727 82.50221082839775
22.7051 83.50138625356364
23.4375 84.48228034454455
24.1699 85.27493015176483
25.6348 86.71954444148453
26.3672 87.34501146469827
27.0996 87.7500313308306
27.832 88.23952185359727
29.2969 89.20859149293194
30.0293 89.63356864212726
31.4941 90.38944036165258
32.2266 90.68644808377886
33.6914 91.06401023436754
34.4238 91.10773033668157
35.8887 90.97199305444116
37.3535 90.59538974882523
38.8184 90.00199573671101
39.5508 89.68074950025655
41.0156 89.17694606362988
42.4805 88.94069650943341
43.9453 88.98213663268078
45.4102 89.20176781190092
47.6074 89.590671451939
49.0723 89.86198076199922
50.5371 90.02586212400304
52.7344 90.1606384753829
54.1992 90.26350549535827
56.3965 90.38990345481066
58.5938 90.4369692572578
60.0586 90.51910873336799
62.2559 90.57967836998164
64.4531 90.4895242907804
66.6504 90.60655073352261
69.5801 90.72970343515524
71.7773 90.84790527204022
73.9746 90.98809894041445
76.9043 91.19575669993993
79.834 91.3184304117355
82.7637 91.42137565794884
85.6934 91.55531322332679
88.623 91.63039813367622
91.5527 91.7619101181167
94.4824 91.84143780587006
98.1445 91.89153362650106
101.807 91.93938125891744
105.469 92.02561752253196
109.131 92.11084240494854
112.793 92.1858382821763
116.455 92.25808449891926
120.85 92.4310769693915
125.244 92.69075526447558
129.639 92.88042533005702
134.033 92.91081959851208
138.428 92.83640369561876
143.555 92.9951449802525
148.682 93.3295242050796
153.809 93.521453749635
159.668 93.48769111771541
164.795 93.56531141413318
170.654 93.77839854719407
176.514 93.88991811245103
183.105 93.85553481619773
189.697 93.78619751758353
196.289 93.78334651969526
202.881 93.70482019117789
210.205 93.55977743616016
217.529 93.69928359689884
225.586 93.68531789775236
232.91 93.82783802327418
241.699 93.71749701216156
249.756 93.9828177937017
258.545 94.78534489381514
268.066 94.62635004313343
277.588 94.69215190140002
287.109 94.16717190135807
297.363 94.51840108136801
307.617 94.34693718169008
318.604 94.03804219427859
329.59 94.40129894353133
341.309 94.12685731806677
353.76 93.23576242672107
366.211 93.27465027988949
378.662 93.13097362193086
392.578 92.81829756970795
405.762 92.45492733001075
420.41 92.27376004306969
435.059 91.56481432160619
450.439 91.86721247850583
466.553 92.35303122473398
482.666 92.41480097915728
500.244 92.15689862942322
517.822 92.62069443313881
536.133 92.3742494771155
554.443 92.6243753666562
574.219 92.39670439268318
594.727 92.566860763603
615.234 92.29535276845988
637.207 92.48969453930006
659.912 93.0646673921296
683.35 93.53962029535165
706.787 93.25493197001653
731.689 93.02801802389024
758.057 92.48120022785247
784.424 92.8401239643241
812.256 92.9898297653995
840.82 92.27172299756919
870.85 92.80763160995275
901.611 93.21305936465205
933.105 93.23247045581381
966.064 94.30701031429284
999.756 93.95215139391266
1034.91 93.30439837379143
1071.53 92.68726981757362
1109.62 92.62546376188776
1148.44 91.27006896670231
1189.45 92.33682870605391
1231.2 91.49625402950686
1274.41 92.07616258049846
1319.82 91.98183044746413
1365.97 92.23624295245807
1414.31 92.1293204111245
1464.11 91.73566698211435
1515.38 91.51011330321715
1568.85 91.63132932624693
1624.51 92.34098548498093
1681.64 91.60074228461906
1740.97 91.96484865775709
1802.49 90.63308091525876
1866.21 91.48588569714023
1932.13 92.31241586277282
2000.24 91.95122211512525
2070.56 91.00285987121573
2143.8 90.78675167099193
2219.24 91.82661338051106
2297.61 92.05568209048985
2378.17 91.33743344686218
2462.4 91.35784799426189
2548.83 92.0354512221787
2638.92 91.72316681396417
2731.93 92.17233158784136
2828.61 93.03069249299087
2928.22 92.73405886471065
3031.49 92.16331032830807
3138.43 92.20230707380547
3249.02 92.66122482094256
3363.28 92.18345306287023
3481.93 92.15854955217789
3604.98 92.27421984595283
3732.42 92.1990634659094
3863.53 92.30165595666537
3999.76 91.75828466891514
4141.11 92.33718034614706
4286.87 91.78107261878516
4438.48 91.58813283465322
4594.48 91.49691031296278
4757.08 91.4082202826758
4924.8 90.98436969052473
5098.39 91.37078867726903
5277.83 91.40555078635764
5463.87 91.60366082048021
5656.49 92.34682850771098
5856.45 92.07845809103897
6062.99 92.57638083408953
6276.86 92.40740119197899
6498.05 92.75323902305483
6727.29 92.28266689568608
6964.6 92.65705113549517
7209.96 92.12834701314578
7464.11 92.46994364114184
7727.78 92.1829302422699
8000.24 92.35708842825122
8282.23 92.55160301626343
8574.46 92.2547864332134
8876.22 92.46593572613016
9189.7 92.56691395903385
9513.43 92.48231258778596
9848.88 92.48305937987399
10196.8 92.47743827491081
10556.4 92.13969630148947
10928.5 91.64604590321902
11313.7 91.29884690972824
11712.9 91.29355317638596
12126.0 91.33887432844146
12553.7 91.15265535018719
12996.1 91.05367972468554
13454.6 91.03587007111967
13928.5 91.14437833761018
14419.9 91.24426032775021
14928.2 91.30920088958455
15454.8 91.46551548952951
15999.8 91.7139717225284
16564.5 91.56600637734856
17148.2 90.91826004421574
17753.2 91.55664770505605
18379.4 91.50546597199038
19027.6 91.21319800315486
19698.5 90.9387367133075
19999.5 90.63551900711008
