Freq "On Axis"
20.5078 80.3001
21.2402 81.3171
21.9727 82.4532
22.7051 83.454
23.4375 84.4354
24.1699 85.2273
25.6348 86.67399999999999
26.3672 87.3
27.0996 87.7052
27.832 88.195
29.2969 89.16589999999998
30.0293 89.59079999999999
31.4941 90.3472
32.2266 90.6446
33.6914 91.0225
34.4238 91.0665
35.8887 90.9312
37.3535 90.5549
38.8184 89.962
39.5508 89.6409
41.0156 89.1375
42.4805 88.9018
43.9453 88.9438
45.4102 89.1639
47.6074 89.5534
49.0723 89.8251
50.5371 89.98969999999998
52.7344 90.126
54.1992 90.2302
56.3965 90.3587
58.5938 90.4088
60.0586 90.4936
62.2559 90.5587
64.4531 90.4729
66.6504 90.59350000000002
69.5801 90.7254
71.7773 90.8496
73.9746 90.9956
76.9043 91.2111
79.834 91.3404
82.7637 91.4507
85.6934 91.59410000000001
88.623 91.67889999999998
91.5527 91.8192
94.4824 91.90859999999999
98.1445 91.9725
101.807 92.0348
105.469 92.1355
109.131 92.23629999999999
112.793 92.32539999999999
116.455 92.41250000000001
120.85 92.6023
125.244 92.8718
129.639 93.0746
134.033 93.1206
138.428 93.0611
143.555 93.2286
148.682 93.5673
153.809 93.7659
159.668 93.7483
164.795 93.8363
170.654 94.0508
176.514 94.1633
183.105 94.1358
189.697 94.076
196.289 94.0799
202.881 94.0081
210.205 93.87489999999998
217.529 94.021
225.586 94.01980000000002
232.91 94.17
241.699 94.0611
249.756 94.34170000000002
258.545 95.1002
268.066 94.9504
277.588 95.0111
287.109 94.4901
297.363 94.8679
307.617 94.6641
318.604 94.41020000000002
329.59 94.7607
341.309 94.4624
353.76 93.5941
366.211 93.6279
378.662 93.4626
392.578 93.15390000000001
405.762 92.7887
420.41 92.5753
435.059 91.937
450.439 92.22959999999999
466.553 92.7066
482.666 92.7085
500.244 92.4738
517.822 92.9224
536.133 92.7372
554.443 92.9461
574.219 92.69699999999999
594.727 92.8006
615.234 92.5963
637.207 92.8641
659.912 93.3771
683.35 93.8741
706.787 93.61150000000002
731.689 93.4459
758.057 92.8762
784.424 93.2295
812.256 93.3867
840.82 92.7528
870.85 93.1801
901.611 93.4995
933.105 93.6995
966.064 94.6845
999.756 94.3936
1034.91 93.7459
1071.53 93.0522
1109.62 93.0042
1148.44 91.723
1189.45 92.76949999999998
1231.2 92.0834
1274.41 92.5791
1319.82 92.4869
1365.97 92.7714
1414.31 92.6588
1464.11 92.4797
1515.38 92.1959
1568.85 92.4764
1624.51 93.21750000000002
1681.64 92.23390000000002
1740.97 92.707
1802.49 91.51639999999999
1866.21 92.0714
1932.13 92.7745
2000.24 92.4527
2070.56 91.1629
2143.8 90.8737
2219.24 92.2319
2297.61 92.2258
2378.17 91.7897
2462.4 91.5117
2548.83 92.5899
2638.92 92.0648
2731.93 92.14719999999998
2828.61 93.2566
2928.22 92.4852
3031.49 91.8977
3138.43 91.75750000000001
3249.02 92.2523
3363.28 91.64399999999999
3481.93 92.3714
3604.98 92.5301
3732.42 92.574
3863.53 92.90069999999999
3999.76 92.4724
4141.11 93.373
4286.87 92.7584
4438.48 92.5715
4594.48 92.633
4757.08 92.535
4924.8 92.24420000000002
5098.39 92.4842
5277.83 92.308
5463.87 92.50430000000001
5656.49 93.2443
5856.45 93.0806
6062.99 93.2136
6276.86 93.009
6498.05 93.5168
6727.29 92.563
6964.6 92.9635
7209.96 92.64890000000001
7464.11 92.9766
7727.78 92.6439
8000.24 92.9268
8282.23 93.4031
8574.46 93.1728
8876.22 93.48390000000002
9189.7 93.7574
9513.43 93.855
9848.88 93.8892
10196.8 94.1153
10556.4 93.9224
10928.5 93.6202
11313.7 93.0476
11712.9 92.9347
12126.0 93.0347
12553.7 92.8305
12996.1 92.5709
13454.6 92.51950000000001
13928.5 92.7366
14419.9 93.0161
14928.2 93.2779
15454.8 93.6135
15999.8 93.7959
16564.5 93.6889
17148.2 93.14379999999998
17753.2 93.863
18379.4 94.2164
19027.6 94.2754
19698.5 94.1852
19999.5 93.8705
