Freq "Sound Power"
20.5078 81.60845697690574
21.2402 82.57728485269647
21.9727 83.55661117483002
22.7051 84.52636928848192
23.4375 85.48305564340403
24.1699 86.28704184861574
25.6348 87.67472799192954
26.3672 88.28693612346659
27.0996 88.69054516544436
27.832 89.16400841751224
29.2969 90.1019344696567
30.0293 90.52793037916229
31.4941 91.27769998707687
32.2266 91.569146731607
33.6914 91.9441766509909
34.4238 91.985556892506
35.8887 91.84602613653576
37.3535 91.46821061628701
38.8184 90.87401377636685
39.5508 90.55270168969665
41.0156 90.04861621697229
42.4805 89.80914314473581
43.9453 89.8513303674476
45.4102 90.06965026420387
47.6074 90.45952627555363
49.0723 90.73341293174789
50.5371 90.89009676494847
52.7344 91.00701517743504
54.1992 91.09128565480025
56.3965 91.18705005938332
58.5938 91.18934400166962
60.0586 91.22401006588655
62.2559 91.20967506081958
64.4531 91.06928441151165
66.6504 91.1389119913944
69.5801 91.11711031206018
71.7773 91.14840047226888
73.9746 91.20574203115171
76.9043 91.29633038436647
79.834 91.33546559171252
82.7637 91.33653119061925
85.6934 91.31220880999217
88.623 91.24581454380858
91.5527 91.23309911772611
94.4824 91.14761679433464
98.1445 90.97289802536056
101.807 90.7882066453366
105.469 90.64291369328315
109.131 90.47908176550008
112.793 90.31503252432238
116.455 90.14398121595865
120.85 90.09284777884186
125.244 90.1589444411643
129.639 90.1008526120408
134.033 89.92474467264232
138.428 89.61511461863289
143.555 89.65875221669403
148.682 89.92009270961258
153.809 89.95174115895169
159.668 89.65107171685284
164.795 89.55338507897065
170.654 89.73363581625068
176.514 89.81487605176187
183.105 89.71863949542121
189.697 89.56399346942406
196.289 89.46256275021558
202.881 89.34337439154201
210.205 89.1399480914985
217.529 89.31302474916077
225.586 89.20547312357108
232.91 89.15270221090007
241.699 89.09199222477118
249.756 89.00486451634731
258.545 90.27981193140563
268.066 90.0632649774639
277.588 90.15505717812009
287.109 89.77861590790656
297.363 89.96277244648492
307.617 90.08915911653772
318.604 89.66743631004134
329.59 89.78770917140027
341.309 89.87345720755664
353.76 89.0828174674676
366.211 88.56665472054362
378.662 88.45409937087432
392.578 88.28062953441656
405.762 87.75108441314822
420.41 87.80194299352746
435.059 87.22256649128306
450.439 87.51289325430567
466.553 87.46806890700678
482.666 87.91648087493047
500.244 87.8992904638856
517.822 88.13461349596602
536.133 87.9005066613988
554.443 88.00151075299631
574.219 87.83098894662652
594.727 88.29564662861704
615.234 87.97386758977338
637.207 88.04351175698326
659.912 88.30266539597154
683.35 88.40250875001401
706.787 88.2951838296939
731.689 87.97414837789266
758.057 87.27453559059087
784.424 87.63054854172873
812.256 87.71672551597122
840.82 87.29871554755884
870.85 87.56883159913876
901.611 87.69544614366058
933.105 87.83557535747333
966.064 88.32941690300989
999.756 88.1004756751969
1034.91 87.4297507454164
1071.53 86.82530201866557
1109.62 86.65663781527574
1148.44 85.84036899618707
1189.45 86.213268838087
1231.2 85.57993847606123
1274.41 85.5334064839892
1319.82 85.33895608318619
1365.97 85.34276425850234
1414.31 85.16119534987239
1464.11 84.86600834455119
1515.38 84.50665736758889
1568.85 84.49391279236235
1624.51 84.79347291317734
1681.64 84.63514195081585
1740.97 84.87532960834936
1802.49 84.10382020807018
1866.21 84.89438045754136
1932.13 85.54744731493376
2000.24 85.97264383879332
2070.56 85.42017771870523
2143.8 85.40465077614402
2219.24 85.48138427981502
2297.61 86.00537680708246
2378.17 85.90311321901068
2462.4 85.90967033914386
2548.83 86.02921528130317
2638.92 85.99680729181499
2731.93 86.35979515980361
2828.61 86.97535036502798
2928.22 86.97413213591376
3031.49 86.71389680363221
3138.43 86.71030517090972
3249.02 86.61887917505143
3363.28 86.37580193499802
3481.93 86.18859358334882
3604.98 85.92725646833499
3732.42 85.85091022182138
3863.53 85.6744667584159
3999.76 85.35551248483416
4141.11 85.44743695464136
4286.87 85.26160505195635
4438.48 84.87256863608604
4594.48 84.717527302303
4757.08 84.41777005970324
4924.8 83.9047951200703
5098.39 83.97338502627399
5277.83 84.16603546697478
5463.87 84.34369243456604
5656.49 84.73734075840912
5856.45 84.69561364823218
6062.99 84.97187595659632
6276.86 84.9051708379422
6498.05 84.97100918324182
6727.29 84.69114666884182
6964.6 84.64957197951914
7209.96 84.23516136896443
7464.11 84.28985788208003
7727.78 83.97230062161462
8000.24 83.87671497694814
8282.23 83.69178448805839
8574.46 83.31500767782013
8876.22 83.26382382425477
9189.7 83.11464443807374
9513.43 82.853506790647
9848.88 82.66579146364371
10196.8 82.45387026658985
10556.4 82.19299897901196
10928.5 81.99062043703849
11313.7 81.94748649569554
11712.9 81.91547097356845
12126.0 81.74656532841192
12553.7 81.46987519489977
12996.1 81.33068980486455
13454.6 81.14966142431444
13928.5 80.88254504219783
14419.9 80.54777468271963
14928.2 80.30137506603876
15454.8 80.37455461350758
15999.8 80.43331983747323
16564.5 80.01352785724806
17148.2 79.32955314326092
17753.2 79.75272756985726
18379.4 79.22234636958248
19027.6 78.67965041581651
19698.5 78.29490394622385
19999.5 78.07852023212274
