Freq "Estimated In-Room Response"
22.4 -17.867037546144417
23.0 -15.831408353476604
23.6 -13.285456325644788
24.0 -10.511836236437574
25.0 -8.38317339413581
25.8 -6.625994803379768
26.5 -4.968999008031915
27.2 -2.9087412307398495
28.0 -1.722268083785309
29.0 -1.2379788393798208
30.0 -0.19473953560910218
30.7 3.514290592095506
31.5 7.406820455698778
32.5 12.245296655240452
33.5 14.482286495976382
34.5 15.67495881296216
35.5 17.462019500146425
36.5 19.906574529514472
37.5 22.576866867033146
38.7 25.41417294572892
40.0 29.92851324212367
41.2 35.58924689551637
42.5 35.663207875661016
43.7 35.853808812704585
45.0 37.06773299322552
46.2 40.925888167501114
47.5 44.18756677898659
48.7 44.301884910127
50.0 45.59518527864651
51.5 49.349653140678356
53.0 53.45000597824489
54.5 55.41596365365669
56.0 57.53572884407083
58.0 59.97261845966172
60.0 61.904703075020706
61.5 63.512488141096554
63.0 65.3336990415911
65.0 67.23186426289658
67.0 69.05673261084128
69.0 70.77595970697021
71.0 72.34789438166725
73.0 73.56130916772074
75.0 74.79384881334114
77.5 75.99164176461989
80.0 77.11185174918054
82.5 78.28942627955294
85.0 79.38473410688125
87.5 80.35577459049627
90.0 81.2146994518228
92.5 82.0096420776941
95.0 82.63259245873715
97.5 83.19625270525313
100.0 83.66905735926127
103.0 83.87679938894146
106.0 83.83750482537829
109.0 83.79601952609472
112.0 83.53215891028816
115.0 83.33565527564411
118.0 83.04128912549498
122.0 82.67897142225452
125.0 82.41532319271076
128.0 82.25500854030778
132.0 82.26101395683435
136.0 82.36570749999454
140.0 82.52670599533296
145.0 82.90931014550576
150.0 83.20825578149126
155.0 83.6864771934168
160.0 84.22202869294796
165.0 84.50926346505275
170.0 84.70460596683942
175.0 84.78227235589993
180.0 84.71653436812778
185.0 84.42465908568363
190.0 83.94526798782218
195.0 83.3148454950479
200.0 82.6772274196769
206.0 82.0043409057064
212.0 81.37815318948009
218.0 80.81552689160677
224.0 80.37673875551687
230.0 80.38408755919133
236.0 80.62482019919672
240.0 80.87121061248232
250.0 80.95713085855766
258.0 80.89212008549868
265.0 80.75156078886381
272.0 80.656292598562
280.0 80.49673911959142
290.0 80.20164394602811
300.0 79.8331602149505
307.0 79.29391064742944
315.0 78.67599015769
325.0 78.1174559899967
335.0 77.69968503497549
345.0 77.58955402946063
355.0 77.79260251109886
365.0 78.17942541684033
375.0 78.40741874974572
387.0 78.41937655646511
400.0 78.64059436889728
412.0 78.8852056030117
425.0 79.18454329386019
437.0 79.31375279650817
450.0 79.1439928961639
462.0 78.79390972471572
475.0 78.5865824010254
487.0 78.70376509147252
500.0 78.96926972664934
515.0 79.17001989853078
530.0 79.30565364909081
545.0 79.42094589714117
560.0 79.7634931814289
580.0 80.27144121430389
600.0 80.53961323093235
615.0 80.39903188793716
630.0 80.12474903077899
650.0 79.3852177527893
670.0 78.16330183977212
690.0 78.03972868211409
710.0 78.74213455703472
730.0 78.54909750732617
750.0 77.89121562796544
775.0 78.24130896424873
800.0 78.99914730639188
825.0 78.98186028031253
850.0 78.61702173029373
875.0 78.50318795305338
900.0 78.37142747397283
925.0 77.91981240151156
950.0 77.60487169576545
975.0 77.33221309197785
1000.0 77.16625428880668
1030.0 77.0143235292604
1060.0 76.90580276846586
1090.0 76.98327840805881
1120.0 77.08680750936861
1150.0 77.20541203476012
1180.0 76.79803991558353
1220.0 76.59456460377899
1250.0 76.17984238132374
1280.0 76.38355688821474
1320.0 76.23064551293186
1360.0 76.27314058019047
1400.0 76.25720318107689
1450.0 76.17960457004553
1500.0 76.38022466884287
1550.0 76.32540000656364
1600.0 76.08065857850502
1650.0 75.74235201076755
1700.0 75.80352996422161
1750.0 75.83022019725009
1800.0 76.15139327881715
1850.0 76.47577980660863
1900.0 76.70938375015928
1950.0 76.84088731467207
2000.0 76.48899281868917
2060.0 75.98945534477653
2120.0 75.76176825923115
2180.0 75.83081289493849
2240.0 75.53893162348194
2300.0 75.19624775792063
2360.0 75.20461590201108
2400.0 75.11913958291302
2500.0 74.9317033565168
2580.0 74.34663757163436
2650.0 73.92718880659305
2720.0 73.34147414651866
2800.0 72.9446614178933
2900.0 72.88134449839433
3000.0 72.77076354091113
3070.0 72.38472892418517
3150.0 72.7982596080256
3250.0 73.1114015966157
3350.0 73.00478642950065
3450.0 73.12550912648298
3550.0 73.83862769980766
3650.0 74.59318418484048
3750.0 74.75911691699787
3870.0 74.7953200447605
4000.0 75.00312805869297
4120.0 74.93596980334476
4250.0 75.52822810421269
4370.0 75.55162940971428
4500.0 75.30592820069141
4620.0 75.18040116662641
4750.0 74.43204107940328
4870.0 74.38096831636383
5000.0 75.13541001848529
5150.0 74.80845704140044
5300.0 74.40424846492434
5450.0 74.11250617896712
5600.0 74.32635707828194
5800.0 74.27593545443553
6000.0 74.82954893914354
6150.0 74.9056228520416
6300.0 75.03089986806714
6500.0 74.7078729260666
6700.0 74.64343086252863
6900.0 74.8905229207683
7100.0 75.37732387360002
7300.0 75.47327269475797
7500.0 75.37160214876445
7750.0 75.28543115541518
8000.0 75.38438133437417
8250.0 75.22648538470725
8500.0 75.16602550240371
8750.0 73.92542298998261
9000.0 74.31451012156276
9250.0 75.50272508225842
9500.0 76.73708854546179
9750.0 77.46853635212538
10000.0 77.50631531636071
10300.0 76.89299045464075
10600.0 76.60610740345686
10900.0 76.07144667945718
11200.0 75.25435315894367
11500.0 74.89018462296428
11800.0 74.99480583308802
12200.0 74.71160845265508
12500.0 73.10426299224946
12800.0 71.20160642361901
13200.0 70.14507791911471
13600.0 68.79216283074551
14000.0 67.55968145038433
14500.0 67.10792877527311
15000.0 67.36603825699143
15500.0 70.04076493902014
16000.0 69.09794198782569
16500.0 67.19692128278771
17000.0 64.38654850756299
17500.0 60.190161192079856
18000.0 64.62456639810341
18500.0 65.05790112290664
19000.0 61.70833946612544
19500.0 61.97659462515206
