Freq,Floor Bounce,Ceiling Bounce,Front Wall Bounce,Side Wall Bounce,Rear Wall Bounce,Total Early Reflection
22.4,52.233589826879964,50.83821129888743,51.81442746339745,51.46574531555093,50.52035123348814,51.41931658487677
23.0,53.166921851160495,51.83821129888743,52.81442746339748,52.465745315550905,51.53662300031179,52.405986517407186
23.6,54.13358982688,52.80306957104251,53.74313939533782,53.38430355678365,52.48839826657694,53.35184832498889
24.0,55.233589826879964,53.90306957104251,54.81442746339745,54.484303556783644,53.60378700076673,54.44811095969895
25.0,56.233589826879964,54.90306957104251,55.843139395337815,55.484303556783644,54.63562735960444,55.459626348130016
25.8,57.366921851160484,56.103069571042525,57.014427463397496,56.68430355678363,55.84570176528318,56.63918204457333
26.5,58.46692185116051,57.20306957104252,58.11442746339749,57.765745315550916,56.93439649491286,57.733554951623134
27.2,59.733589826879964,58.40306957104251,59.343139395337815,58.984303556783644,58.224295799475684,58.974420844785826
28.0,60.866921851160484,59.603069571042525,60.51442746339747,60.18430355678363,59.38096717802536,60.14507727259628
29.0,62.166921851160495,60.80306957104253,61.8,61.424288587465966,60.68072926049149,61.41229721149888
30.0,63.366921851160484,62.00306957104253,63.0,62.62428858746597,61.91295738064507,62.61776041513005
30.7,64.5669218511605,63.30306957104253,64.21442746339747,63.884303556783635,63.14973780654874,63.85668866626769
31.5,65.83358982687999,64.50306957104253,65.44313939533782,65.10365179665253,64.41221530079179,65.09321259677914
32.5,67.0669218511605,65.73513059177982,66.67166275391891,66.32428858746597,65.63870047832422,66.32156689354817
33.5,68.26692185116049,67.00306957104253,67.91442746339747,67.58430355678365,66.91728265276262,67.56824262787741
34.5,69.4669218511605,68.20306957104252,69.14313939533781,68.78430355678364,68.11728265276261,68.77447761406874
35.5,70.6669218511605,69.40306957104252,70.3,69.98430355678363,69.30666353171505,69.96329411575105
36.5,71.86692185116051,70.60306957104252,71.51442746339747,71.16395064819496,70.50666353171503,71.16233654721772
37.5,73.0669218511605,71.70306957104253,72.64313939533781,72.28430355678364,71.64826603949435,72.30345548684845
38.7,74.16692185116051,72.80306957104253,73.7716627539189,73.40365179665251,72.7807292604915,73.41908200436212
40.0,75.2669218511605,73.90306957104252,74.8861845050195,74.50365179665252,73.86440857419056,74.5194245769589
41.2,76.3669218511605,75.00306957104252,75.97166275391892,75.56395064819495,74.95340851509762,75.60648531360282
42.5,77.43358982687998,76.00306957104253,77.04313939533783,76.64530504353961,76.01704122062598,76.66506857483509
43.7,78.4669218511605,77.00306957104253,78.04313939533782,77.64530504353961,77.01704122062598,77.67304874969606
45.0,79.4,78.00306957104252,78.9716627539189,78.56395064819496,77.9534085150976,78.61438981569233
46.2,80.33358982687997,78.90306957104252,79.91508314243883,79.46395064819495,78.86391408828705,79.53371067530419
47.5,81.2,79.80306957104251,80.7861845050195,80.36395064819496,79.74826603949435,80.41666510843095
48.7,82.0,80.53821129888743,81.5861845050195,81.16395064819496,80.52739417062135,81.20189083235401
50.0,82.7669218511605,81.30306957104251,82.37166275391893,81.86395064819496,81.2534085150976,81.95235274337041
51.5,83.4669218511605,81.93821129888744,83.01508314243884,82.56395064819496,81.92739417062135,82.62437715417715
53.0,84.0669218511605,82.53821129888743,83.64313939533781,83.16395064819497,82.53772249936866,83.23229075711659
54.5,84.6669218511605,83.10306957104252,84.1861845050195,83.68526041028544,83.05340851509762,83.78403334499735
56.0,85.13358982687998,83.53821129888742,84.68618450501948,84.16395064819496,83.54287746731619,84.25888209806295
58.0,85.53358982687998,83.93821129888744,85.0861845050195,84.58526041028544,83.93207461914125,84.66123160967938
60.0,85.86692185116051,84.20306957104253,85.3861845050195,84.86395064819497,84.23207461914126,84.95930772653473
61.5,86.06692185116049,84.43821129888744,85.61508314243883,85.08526041028544,84.4428774673162,85.17760552024045
63.0,86.2669218511605,84.57150800786937,85.81508314243885,85.24673677241469,84.61136636320286,85.35356149105804
65.0,86.3669218511605,84.63821129888744,85.91508314243885,85.3252366727071,84.67488760396927,85.4376827594118
67.0,86.39999999999999,84.63821129888744,85.91508314243885,85.36670626616767,84.71136636320286,85.46011695275875
69.0,86.3669218511605,84.6069050103546,85.91508314243885,85.36670626616767,84.68534140989614,85.44236717333816
71.0,86.3669218511605,84.53821129888742,85.8861845050195,85.30598456990742,84.63207461914125,85.40378194084902
73.0,86.3,84.43821129888744,85.81508314243885,85.22757995317387,84.55316350574068,85.32626676491739
75.0,86.2669218511605,84.40690501035459,85.7861845050195,85.1875189417038,84.51136636320287,85.29159108120926
77.5,86.2,84.30690501035458,85.71508314243883,85.1467367724147,84.45841976530093,85.22581564735269
80.0,86.2,84.23821129888744,85.71508314243883,85.12757995317388,84.42173283393358,85.2048568704669
82.5,86.23358982687998,84.2069050103546,85.71508314243883,85.12757995317388,84.43759675451271,85.21099356011726
85.0,86.2669218511605,84.2069050103546,85.75840584504061,85.1467367724147,84.45841976530093,85.23642770920486
87.5,86.3,84.2069050103546,85.81508314243885,85.1875189417038,84.4689132379038,85.26738723316677
90.0,86.33358982687997,84.2069050103546,85.81508314243885,85.20920611180408,84.50604717223443,85.28637491255284
92.5,86.39999999999999,84.2069050103546,85.8437907541973,85.20920611180408,84.50604717223443,85.30985141692747
95.0,86.39999999999999,84.14283030471974,85.8437907541973,85.20920611180408,84.50604717223443,85.29997234748629
97.5,86.43358982687997,84.14283030471974,85.91508314243885,85.22757995317387,84.60604717223443,85.34517639570508
100.0,86.46692185116049,84.10690501035458,85.91508314243885,85.24858052607877,84.6169148755312,85.35427341097159
103.0,86.53358982687998,84.14283030471974,85.9861845050195,85.30920611180409,84.66451394618826,85.41295640786335
106.0,86.6,84.07609175449221,86.01508314243884,85.30920611180409,84.71269875253181,85.43511084388936
109.0,86.6,84.04283030471974,86.01508314243884,85.35226959352626,84.74997178154722,85.44500092378293
112.0,86.6,84.01227178315618,86.01508314243884,85.30920611180409,84.7819354036761,85.43766326732957
115.0,86.5669218511605,83.87928732607432,85.95840584504062,85.25226959352626,84.76169763062084,85.38251783316484
118.0,86.43358982687997,83.67928732607432,85.81508314243885,85.10920611180407,84.64823965528947,85.23910143318463
122.0,86.2669218511605,83.41227178315619,85.61508314243883,84.90920611180408,84.51842483824672,85.05095986809118
125.0,86.06692185116049,83.11227178315617,85.41508314243883,84.65226959352627,84.3581469422835,84.8334776790468
128.0,85.86692185116051,82.81227178315619,85.21508314243884,84.45226959352627,84.22115224974625,84.631552199051
132.0,85.76692185116049,82.54898514879551,85.08748929892043,84.27464101495956,84.1516333595467,84.49482337434114
136.0,85.6669218511605,82.28623512455238,84.98748929892041,84.07464101495957,84.08414489739125,84.36152216465295
140.0,85.5669218511605,81.98623512455238,84.78748929892042,83.85688018620128,83.99213446269961,84.19366587129413
145.0,85.3669218511605,81.45667255930051,84.56035311823196,83.46516840337087,83.59162297591133,83.87556703255966
150.0,85.20076749445562,80.99471929119206,84.36035311823197,83.0885220413827,83.20063071982855,83.58864926371446
155.0,85.2669218511605,80.67662798253905,84.3048949937362,82.86648157916895,82.80765373158377,83.45160702867477
160.0,85.33435140868502,80.44898359150842,84.34865957364795,82.74187360004247,82.2936770451717,83.3533858725561
165.0,85.33435140868502,80.2026545034034,84.31998423401443,82.60909764670198,81.75317136664897,83.21719037315374
170.0,85.26845083805433,79.91792789764851,84.21998423401445,82.44207582704608,81.1949585447005,83.035865616314
175.0,85.16845083805433,79.67641629732152,84.11998423401444,82.36206671473363,80.74490683514175,82.88141503643453
180.0,85.16845083805433,79.5179278976485,84.11998423401444,82.32498802844181,80.45011439233305,82.82476145910837
185.0,85.16845083805433,79.33469773360899,84.10489499373621,82.31039079867914,80.25633157956722,82.7791685824061
190.0,85.13435140868503,79.13469773360899,84.04675150375353,82.31039079867914,80.0538597066538,82.71137213837827
195.0,85.26845083805433,79.03469773360898,84.14675150375353,82.36206671473363,80.02392434999418,82.78343936087752
200.0,85.5022846139602,79.10982855556756,84.40489499373622,82.61039079867912,80.1644371263297,83.00363128969965
206.0,85.8022846139602,79.15295536787778,84.61998423401444,82.81039079867912,80.2943555480881,83.2239225945586
212.0,85.8022846139602,78.97269145322595,84.61998423401444,82.81039079867912,80.2094736190897,83.20146994839543
218.0,85.7022846139602,78.64915203998831,84.51998423401444,82.61039079867912,80.01000927968322,83.0568395744714
224.0,85.6022846139602,78.2491520399883,84.31998423401443,82.35929007237313,79.73064895732155,82.86290439819334
230.0,85.47071732495408,77.87100612011483,84.15000634017072,82.12208770262139,79.47455757843856,82.67315880739235
236.0,85.47071732495408,77.63920982111144,84.09366590096782,81.97145342892549,79.33899471520427,82.60306300966161
240.0,85.73663575667186,77.61655819177172,84.35000634017071,82.12745355433876,79.37165603786944,82.8078601339239
250.0,85.97071732495407,77.54066681957173,84.5652871599955,82.27790048898339,79.40393984722182,82.9860860492726
258.0,86.03964531976001,77.14066681957172,84.53924275721991,82.20524571781294,79.13757036589654,82.94938486202248
265.0,86.03964531976001,76.66620989389217,84.49366590096783,82.17604918841144,78.82136793991396,82.88193054029671
272.0,86.53964531976003,76.66226370149553,84.93924275721992,82.63558189513117,78.99647116141215,83.31151337425499
280.0,87.37449351030438,76.89083949114904,85.69366590096782,83.44851891926838,79.54230972750375,84.07364686716868
290.0,87.9441577493485,76.85218761292407,86.19366590096782,84.02745355433875,79.94997527277096,84.59162034339971
300.0,88.00906430015982,76.2667207368606,86.23537086618988,84.12745355433874,79.99223189710342,84.63408344067678
307.0,87.91430637862281,75.45447715330634,86.03924275721991,83.94102466843934,79.88603774178668,84.47366553857607
315.0,88.04935766478273,74.68456243414705,86.06528715999552,83.9714534289255,80.15600787057149,84.54818663452801
325.0,88.1849349246085,73.65126502581491,86.03924275721991,83.76797653406331,80.28273447676416,84.5580527579465
335.0,87.98493492460848,72.11153589924147,85.6136394060688,83.02772497838043,79.75671405250289,84.16510701860214
345.0,87.6560388500297,70.54450134732097,85.16005936857911,82.06709652191365,78.70287288804447,83.64545636167793
355.0,87.32761355743555,69.28701308799668,84.65121482311349,81.20689477574108,77.20466983443147,83.1189784437546
365.0,86.92761355743555,67.96366955615359,84.1268345531296,80.44051509853554,75.41925702850352,82.56860025846197
375.0,86.82761355743554,66.85472836003827,83.958217088195,80.31628191430639,74.33712289639087,82.40556447243817
387.0,87.27215664893681,65.83543550538808,84.27455785944568,80.71944779865235,74.34834129066714,82.78866886523038
400.0,87.50920925226939,64.86948695166583,84.37455785944566,80.87776797377452,74.71708087392597,82.9773638929859
412.0,87.38239860760774,65.24044167945492,84.07455785944566,80.40094277961508,74.66957462636587,82.76542825180876
425.0,87.11852635130013,66.7053180676647,83.68279645161535,79.49387427927138,73.9366997064714,82.3904303684238
437.0,87.31852635130015,68.27150800786937,83.81106138014496,79.04520173446922,72.77520413154288,82.483407962515
450.0,87.7560373652456,69.43746771551314,84.12758020744901,79.0394686123974,70.94258014386001,82.81730818272409
462.0,87.69238414975146,70.00542400732662,83.9596855474149,78.76902951847573,68.38112287170962,82.68998580662969
475.0,88.16668408046665,71.27387961222819,84.17640057047572,78.95834795986552,67.22121501952154,83.07326152139147
487.0,88.90464358834795,72.94136150423587,84.67091054784844,79.45303169547493,67.3537813526318,83.74204498145959
500.0,89.15498857039961,73.87387961222818,84.7430337046988,79.56349333560675,67.49740563186901,83.95048446546181
515.0,88.85498857039961,74.34283030471973,84.39343859806336,79.35455039253372,68.38248231374173,83.66801123987905
530.0,88.23080066193494,74.2457671943847,83.59942293182198,78.81559736847458,69.77339094292299,83.03910975320983
545.0,87.8464069547552,74.12022310324254,83.13443179205895,78.59507854473347,70.85239273301508,82.67258963313319
560.0,87.76073506160972,74.13647412390415,82.98847217927515,78.91401321053307,70.88389698009574,82.61113942268305
580.0,87.67819637937426,74.41172846437378,82.69366590096783,79.4044014973725,70.28158612453599,82.53969319527069
600.0,87.83471536013376,75.05016923070222,82.46204375999245,80.0142006297939,71.032352396849,82.68894729946277
615.0,87.99278094266246,75.25866027600834,82.08086845464632,80.17436390364755,72.80479824466191,82.77890183399786
630.0,87.95235232565419,74.78343461029552,81.78086845464632,80.12232741418826,74.00478663777942,82.70842487992967
650.0,87.67461960007611,73.62790007353128,81.38748929892041,80.19386878149787,74.37736371083378,82.4456129359791
670.0,87.20025898090121,71.83697761853033,80.75905509047514,80.6554904870472,74.63804338502379,82.06603505887814
690.0,87.26512911208582,69.68821900646496,80.30198860092021,81.47221372104862,75.92151337857679,82.19425203875102
710.0,87.70869986544025,67.38682265141817,80.21739302852534,81.91993179732381,77.08329426929559,82.5879028688455
730.0,88.17522260446091,68.0487928557151,80.58618450501949,82.50373397542411,77.8866456448611,83.08443792700861
750.0,87.12736457783632,69.8079143723261,79.53801284372601,82.70092276122244,78.17672867538543,82.39321300970471
775.0,86.26775267851801,70.92508658750486,78.59382637508699,83.95849840238161,80.16205158951729,82.35901985556815
800.0,86.54586665361695,70.33833485078058,78.90635205384245,84.67207866253852,81.26982500431134,82.86531256355566
825.0,87.92071204440755,68.83840971239833,79.73372692077366,83.69050456766371,79.85413469436105,83.22986621913722
850.0,90.03237208274652,68.62046546025934,80.65381329193639,82.86358116780896,78.2572909213885,84.44453950835391
875.0,89.7265650180508,66.59733745170105,79.77397253892372,81.5744237800579,77.17403975853564,83.92464896466991
900.0,88.90650676335439,65.44010271092208,79.7884942642923,82.483327348186,78.72954281159596,83.53316262007944
925.0,88.62778235895512,66.96373727955805,80.53341526917744,83.69711658982214,80.23633066155026,83.75474708615947
950.0,88.60991493486364,71.54547317920927,80.89044363353322,83.51835735449917,79.63736025404013,83.72886860236247
975.0,88.73583338840238,74.77106951647687,81.53191816260322,83.10102598888732,79.48259862668932,83.84796807230654
1000.0,88.48821835163443,75.6631194824267,81.63156734312867,82.27535043198262,80.29941403974071,83.67156932324257
1030.0,89.31806369484939,74.24695174365172,81.33136795105645,81.54191142759616,79.70229203580993,83.99031840243056
1060.0,90.92037533737674,71.351233888164,81.96415820501389,80.01686694045888,78.55673713235878,84.99413590015786
1090.0,91.38689981222221,70.07711159109157,82.95346296636633,77.77435459006202,77.64013434955173,85.3193465901418
1120.0,91.43897036989243,69.19300137511779,83.50352002985206,78.48409478604307,77.11587278148247,85.43371160135614
1150.0,91.31586528159305,62.651475430728084,84.20815941071821,79.95876058934695,76.84495428074297,85.48187539331009
1180.0,91.45068007327056,54.79088642154666,85.40619289148778,82.0497066414035,78.30782416406954,85.95973013379545
1220.0,91.0029414492872,64.13550260909038,85.91524306835863,82.84600214366971,79.5748282185347,85.87942535145362
1250.0,90.74050140145677,67.82273719685485,86.14025497201727,83.58973153625867,80.16832831569702,85.87853347309243
1280.0,90.94339850407559,69.55334575272603,86.61537555101309,83.99580865272202,81.07479256643755,86.21047849822703
1320.0,91.28230649956843,74.92349685065979,87.11429702453239,83.88881252819594,81.44715741406775,86.57722324801861
1360.0,91.18759923684219,74.9946013003708,86.3424868299124,84.47112208476564,81.98673241587147,86.46370592125915
1400.0,90.54852142053365,75.86281601347629,86.44313939533782,85.58422161592924,82.8526975203137,86.37230344638584
1450.0,90.26893616304386,72.85794909963289,85.93739869599555,86.34142380028906,83.0150930716292,86.24589685219466
1500.0,89.71123284744552,72.23347561073636,86.27763823609729,86.63388969787685,82.44547377444992,86.04887248335605
1550.0,89.64412885328625,76.08095280813406,86.43701243869991,87.01238410412613,82.37221108974853,86.1855573144619
1600.0,89.58888377963457,76.28233923570636,86.20617671502801,87.5760603893961,82.51466787159214,86.27434106137156
1650.0,88.93452415393477,74.54412885328625,85.72438318845536,87.79441282966842,82.53587678829545,85.94531577362129
1700.0,89.21627940083641,72.67662798253905,86.03076591813402,88.23168197853302,82.71547573021263,86.24643021194375
1750.0,89.36073506160973,73.02457672584498,84.38337510861882,87.66832193379618,82.51229385437279,85.84434640477807
1800.0,89.67926068829236,72.4491520399883,84.31128367371561,87.49378959649833,82.12513944818997,85.89032716922881
1850.0,89.6595218266057,71.7135592994565,82.00029410813092,86.94593596553017,81.80891040313023,85.42722755088849
1900.0,88.67584607527145,69.7682062641115,81.54163366822542,86.31515199704101,81.8915880953712,84.68921815806783
1950.0,89.11152699540307,69.41558093738345,80.99808533749236,86.24218324274531,81.83918138143635,84.83796842483592
2000.0,88.73913490392556,71.39764339402714,81.16300480176736,85.0030371317858,81.40139402880042,84.30415665877341
2060.0,88.9766000873841,71.2079926521559,81.29607948410346,84.6735507980028,81.62169337834108,84.39849794717414
2120.0,89.11152699540307,70.77557346816394,81.99484246376979,85.29198596891337,82.28090663980271,84.74957739827121
2180.0,88.7078531952534,73.86180438676477,84.54819124040559,84.60789205816778,81.17960246698655,84.68968162289133
2240.0,88.87397365253003,74.99305892027786,85.2291106868653,85.01770587772192,82.19354638087162,85.10483737595248
2300.0,89.68057541006698,72.43445749706306,85.87823982872023,85.97664288308523,82.89740699911037,85.85358413705838
2360.0,89.83162277988926,70.70779977515015,85.27298421875723,86.26183963661704,83.16174402216991,85.88927888884638
2400.0,89.45666892806516,72.02924048470065,84.29841170811048,85.82397970594283,82.85775918265414,85.42278917574998
2500.0,90.33212030863072,71.34261421606281,83.64311143642756,86.39522333065646,82.80015475174365,85.91300017252131
2580.0,91.35927347220546,67.40756636534061,83.14367529889525,86.48266998375864,82.47260198572282,86.43621782835066
2650.0,91.31638770313008,68.49691915590438,82.05025043244171,85.7452074696555,82.1553462637357,86.15140617998195
2720.0,92.14302103107543,68.29238562216104,82.57749780036322,85.10185262269903,82.39049896971639,86.6705419558013
2800.0,92.94805664755616,71.50209054318675,82.53668434258768,85.36933984645258,82.84323101445024,87.32676568348417
2900.0,93.41192126753357,69.35207148990082,81.65123290971052,84.92225704550502,80.66647372024327,87.4442631927722
3000.0,92.6455101920858,67.75155888161575,82.35944075235844,84.21067114268926,79.73345572972133,86.76641386687614
3070.0,92.31003436195219,68.2033086555999,82.94855276884276,83.79935179573083,79.89856806762572,86.5195597264024
3150.0,91.85420299035381,70.64217793410488,83.71250892956391,83.20122903851349,79.85513971089867,86.20129973590971
3250.0,91.134650765162,70.76988350036804,83.71139494926592,82.53124991845405,79.15570400874603,85.57986205620114
3350.0,89.7755267619936,68.00035191281825,83.98641011311236,82.49581012843014,79.32208220115605,84.68212664741978
3450.0,88.26024287248465,67.06340256351434,83.79087437924562,81.8505476367471,79.31369411287103,83.62820910467816
3550.0,88.04983153732019,70.84142414074041,84.26585586931485,81.55472540387355,79.37800881189706,83.60640246675739
