Freq "Front Wall Bounce"
22.4 -12.967088607594903
23.0 -11.367088607594937
23.6 -9.767088607594914
24.0 -8.16708860759492
25.0 -6.5670886075949255
25.8 -5.0670886075949255
26.5 -3.495425853676025
27.2 -1.9670886075949312
28.0 -0.4670886075949312
29.0 1.0329113924050688
30.0 2.532911392405069
30.7 3.9329113924050745
31.5 5.4329113924050745
32.5 6.83291139240508
33.5 8.33291139240508
34.5 9.732911392405086
35.5 11.132911392405063
36.5 12.532911392405069
37.5 13.932911392405074
38.7 15.33291139240508
40.0 16.732911392405086
41.2 18.03291139240507
42.5 19.432911392405074
43.7 20.732911392405086
45.0 22.03291139240507
46.2 23.33291139240508
47.5 24.632911392405063
48.7 25.83291139240508
50.0 27.132911392405063
51.5 28.33291139240508
53.0 29.53291139240507
54.5 30.732911392405086
56.0 31.90457414632398
58.0 33.03291139240507
60.0 34.13291139240506
61.5 35.23291139240507
63.0 36.23291139240506
65.0 37.33291139240508
67.0 38.33291139240508
69.0 39.23291139240507
71.0 40.23291139240507
73.0 41.13291139240506
75.0 42.03291139240507
77.5 42.8760507877429
80.0 43.704574146323964
82.5 44.432911392405074
85.0 45.23291139240507
87.5 45.932911392405074
90.0 46.53291139240507
92.5 47.13291139240506
95.0 47.73291139240507
97.5 48.33291139240508
100.0 48.932911392405074
103.0 49.53291139240507
106.0 50.03291139240507
109.0 50.53291139240507
112.0 50.96171854915036
115.0 51.432911392405074
118.0 51.83291139240508
122.0 52.232911392405086
125.0 52.63291139240506
128.0 53.03291139240507
132.0 53.432911392405074
136.0 53.76171854915036
140.0 54.23291139240507
145.0 54.61876588150743
150.0 54.86171854915037
155.0 55.161718549150365
160.0 55.432911392405074
165.0 55.63291139240506
170.0 55.932911392405074
175.0 56.13291139240506
180.0 56.26171854915036
185.0 56.432911392405074
190.0 56.63291139240506
195.0 56.73291139240507
200.0 56.86171854915035
206.0 57.03291139240507
212.0 57.061718549150356
218.0 57.16171854915035
224.0 57.232911392405086
230.0 57.232911392405086
236.0 57.232911392405086
240.0 57.232911392405086
250.0 57.232911392405086
258.0 57.13291139240506
265.0 57.03291139240507
272.0 56.932911392405074
280.0 56.804574146323986
290.0 56.63291139240506
300.0 56.47605078774289
307.0 56.27605078774289
315.0 56.076050787742886
325.0 55.8760507877429
335.0 55.74799453484391
345.0 55.61909589742457
355.0 55.52040069132548
365.0 55.462706389964126
375.0 55.435206159342
387.0 55.435206159342
400.0 55.435206159342
412.0 55.36466653102413
425.0 55.26466653102413
437.0 55.17966289615863
450.0 55.064666531024145
462.0 54.93780638614129
475.0 54.80816261882963
487.0 54.65289562641952
500.0 54.5528956264195
515.0 54.51139617387523
530.0 54.452895626419505
545.0 54.437806386141276
560.0 54.452895626419505
580.0 54.452895626419505
600.0 54.61139617387525
615.0 54.752895626419516
630.0 54.95289562641952
650.0 55.15289562641951
670.0 55.33780638614128
690.0 55.452895626419505
710.0 55.53780638614127
730.0 55.63780638614129
750.0 55.73780638614129
775.0 55.86466653102414
800.0 56.00816261882963
825.0 56.09326451063703
850.0 56.00816261882963
875.0 55.70816261882965
900.0 55.26466653102413
925.0 54.83520615934199
950.0 54.63520615934199
975.0 54.77966289615861
1000.0 54.93780638614129
1030.0 54.67966289615862
1060.0 54.15289562641952
1090.0 54.026577293372895
1120.0 54.2265772933729
1150.0 54.27215414962498
1180.0 53.94655079847389
1220.0 53.91830269804632
1250.0 54.82138357168023
1280.0 55.69297076098418
1320.0 55.73724240203174
1360.0 55.36807187236329
1400.0 55.16807187236327
1450.0 54.88412621551856
1500.0 54.71259675932485
1550.0 54.768071872363265
1600.0 54.56807187236326
1650.0 54.26807187236328
1700.0 54.16807187236326
1750.0 54.34360105543138
1800.0 54.243601055431384
1850.0 53.459745945534664
1900.0 52.69112848060006
1950.0 52.267343184464025
2000.0 51.13233432422706
2060.0 49.8093119628808
2120.0 48.90931196288081
2180.0 48.28669512715055
2240.0 47.58669512715055
2300.0 47.18669512715054
2360.0 47.08669512715055
2400.0 47.18669512715054
2500.0 46.90931196288081
2580.0 46.78669512715055
2650.0 46.70931196288079
2720.0 46.68669512715053
2800.0 47.15870777629229
2900.0 47.636347382313545
3000.0 48.53634738231354
3070.0 49.78669512715054
3150.0 51.058707776292295
3250.0 52.20931196288079
3350.0 52.93233432422706
3450.0 53.83233432422706
3550.0 54.555767280488666
3650.0 54.983773526286924
3750.0 55.10746925185073
3870.0 55.431583819368555
4000.0 55.15974594553467
4120.0 55.28412621551854
4250.0 54.939963859451126
4370.0 54.892970760984184
4500.0 55.09297076098417
4620.0 55.76231815932134
4750.0 56.46231815932134
4870.0 57.087828996257954
5000.0 57.44655079847388
5150.0 57.272154149624996
5300.0 57.28782899625796
5450.0 56.68782899625795
5600.0 57.51830269804633
5800.0 57.98782899625796
6000.0 59.07215414962498
6150.0 59.98782899625796
6300.0 60.84407263080648
6500.0 61.7137798470514
6700.0 61.09819855240059
6900.0 60.81377984705139
7100.0 59.27028547369591
7300.0 58.940175611708014
7500.0 58.567021152638446
7750.0 58.067021152638446
8000.0 57.86702115263844
8250.0 58.65163004391057
8500.0 59.60688393132878
8750.0 58.822080804358194
9000.0 58.749664008799584
9250.0 59.07770951339276
9500.0 59.162706389964114
9750.0 58.86270638996412
10000.0 59.66270638996413
10300.0 60.63390580668579
10600.0 61.319095897424575
10900.0 61.19131723744569
11200.0 61.17670214660235
11500.0 61.87670214660237
11800.0 62.97670214660236
12200.0 63.933569253099336
12500.0 64.8916493456824
12800.0 66.27769416927751
13200.0 66.97769416927751
13600.0 68.35060186374021
14000.0 64.60780951203279
14500.0 58.61127980390944
15000.0 60.5903358837632
15500.0 62.76205292846406
16000.0 64.69235971967184
16500.0 67.92077651520843
17000.0 68.06440896714166
17500.0 57.649008581778745
18000.0 55.077058305612894
18500.0 57.10557506951476
19000.0 60.69066806705037
19500.0 63.99066806705039
