Freq "Side Wall Bounce"
22.4 -13.122696142793885
23.0 -11.52269614279389
23.6 -9.903613178150792
24.0 -8.343237399083861
25.0 -6.7638762732843105
25.8 -5.2049751979879915
26.5 -3.684613697643684
27.2 -2.1446119045752283
28.0 -0.6254326112233599
29.0 0.8745673887766401
30.0 2.35401315477624
30.7 3.85401315477624
31.5 5.333832369477179
32.5 6.754013154776246
33.5 8.21355737019097
34.5 9.633832369477162
35.5 11.053554825485875
36.5 12.493187273114117
37.5 13.873188121375549
38.7 15.273188121375554
40.0 16.633371905354224
41.2 17.993187273114117
42.5 19.353096447820988
43.7 20.65309644782097
45.0 21.993187273114117
46.2 23.273188121375554
47.5 24.573188121375537
48.7 25.83291139240508
50.0 27.073188121375537
51.5 28.31309475125495
53.0 29.53291139240507
54.5 30.693187273114134
56.0 31.83291139240508
58.0 33.01309475125494
60.0 34.09318727311411
61.5 35.21309475125494
63.0 36.23291139240506
65.0 37.253096447820965
67.0 38.23291139240507
69.0 39.23291139240507
71.0 40.23291139240507
73.0 41.13291139240506
75.0 42.03291139240507
77.5 42.83291139240508
80.0 43.63291139240506
82.5 44.432911392405074
85.0 45.23291139240507
87.5 45.932911392405074
90.0 46.53291139240507
92.5 47.13291139240506
95.0 47.77318812137554
97.5 48.413094751254945
100.0 48.97318812137554
103.0 49.53291139240507
106.0 50.05309644782096
109.0 50.57318812137554
112.0 51.03291139240507
115.0 51.45309644782097
118.0 51.89318727311412
122.0 52.35309644782096
125.0 52.753096447820965
128.0 53.13337190535424
132.0 53.51355737019098
136.0 53.87318812137555
140.0 54.31355737019099
145.0 54.71355737019098
150.0 55.01355737019098
155.0 55.29365201738743
160.0 55.55355482548586
165.0 55.81355737019098
170.0 56.05355482548586
175.0 56.274111223649925
180.0 56.413557370190986
185.0 56.613557370190975
190.0 56.77411122364991
195.0 56.93383236947717
200.0 57.05448210986003
206.0 57.15448210986004
212.0 57.25448210986005
218.0 57.354482109860044
224.0 57.37411122364992
230.0 57.37411122364992
236.0 57.37411122364992
240.0 57.354482109860044
250.0 57.31449323314915
258.0 57.23430350865269
265.0 57.09365201738743
272.0 56.99365201738742
280.0 56.79365201738743
290.0 56.59365201738744
300.0 56.373655010604466
307.0 56.13337190535425
315.0 55.87318812137555
325.0 55.613557370190975
335.0 55.413557370190986
345.0 55.17411122364993
355.0 54.99504619820574
365.0 54.817278821611126
375.0 54.71727882161113
387.0 54.60110649537343
400.0 54.46288789991681
412.0 54.30755240736464
425.0 54.133060722151626
437.0 53.93866503046114
450.0 53.70331615636556
462.0 53.4863396757908
475.0 53.23991147571401
487.0 53.00614254696194
500.0 52.837592121553826
515.0 52.7049369168588
530.0 52.55315092789438
545.0 52.48373678926957
560.0 52.41843147271521
580.0 52.424221245763434
600.0 52.537910843983624
615.0 52.660364946743826
630.0 52.8439925372783
650.0 53.05785998067667
670.0 53.217549475794314
690.0 53.36849328753624
710.0 53.51754947579431
730.0 53.61754947579432
750.0 53.754201594953855
775.0 53.934021687316616
800.0 54.14063886818404
825.0 54.28097761705769
850.0 54.25740482235706
875.0 54.00120027033286
900.0 53.62153290575493
925.0 53.18930548879135
950.0 53.02697190518528
975.0 53.220723993434774
1000.0 53.35523880659335
1030.0 53.07273452454123
1060.0 52.48723332706406
1090.0 52.22701636008297
1120.0 52.327016360082965
1150.0 52.307172740341656
1180.0 51.800723427644854
1220.0 51.564151230788625
1250.0 52.31739995740439
1280.0 52.953050656372184
1320.0 52.834511870254076
1360.0 52.33805188828721
1400.0 51.95538858679551
1450.0 51.542742152574675
1500.0 51.28617182913163
1550.0 51.20550331653932
1600.0 51.02438014289841
1650.0 50.635459231999846
1700.0 50.50193332447826
1750.0 50.66937119051404
1800.0 50.54117193307799
1850.0 49.659976916168134
1900.0 48.806380471537025
1950.0 48.231931858905
2000.0 46.96538706494867
2060.0 45.46538706494867
2120.0 44.412501127108484
2180.0 43.55588439004502
2240.0 42.777808731119435
2300.0 42.29914806918789
2360.0 42.11872775646215
2400.0 42.11924868347478
2500.0 41.84931963233636
2580.0 41.61641660096217
2650.0 41.5225739988976
2720.0 41.47266953747763
2800.0 41.85397160414456
2900.0 42.26652016147314
3000.0 43.23105508915697
3070.0 44.46905787254117
3150.0 45.767427505297164
3250.0 46.95046361552809
3350.0 47.8029492616234
3450.0 48.75330767289677
3550.0 49.614943928219404
3650.0 50.113045615380614
3750.0 50.32536204774924
3870.0 50.84047500516061
4000.0 50.663870451140454
4120.0 50.91503089612813
4250.0 50.670966913844666
4370.0 50.768261434718895
4500.0 51.07740168439372
4620.0 51.836420169578545
4750.0 52.643065614528766
4870.0 53.30087749023244
5000.0 53.71070826989806
5150.0 53.558914484702726
5300.0 53.6546598161588
5450.0 53.05406880227184
5600.0 53.95009570463341
5800.0 54.43703228247752
6000.0 55.56473778269361
6150.0 56.52091244912367
6300.0 57.417262851963244
6500.0 58.315098318749435
6700.0 57.702624196111216
6900.0 57.452648711908054
7100.0 55.901001843117456
7300.0 55.58912389036368
7500.0 55.23917976987478
7750.0 54.740981993548644
8000.0 54.56180374929694
8250.0 55.344250205185915
8500.0 56.28572335326798
8750.0 55.54715983011529
9000.0 55.469298941483856
9250.0 55.79557457107573
9500.0 55.89384834828391
9750.0 55.62307109111835
10000.0 56.42281965831124
10300.0 57.419727646264576
10600.0 58.128552172422616
10900.0 57.96743573269363
11200.0 57.95839366186361
11500.0 58.697683325796035
11800.0 59.78760112899464
12200.0 60.75957333291892
12500.0 61.731229454050705
12800.0 63.04278075503534
13200.0 63.70169974495086
13600.0 64.998612270188
14000.0 61.24586086271296
14500.0 55.22746674019163
15000.0 57.658001273823146
15500.0 59.99927048687593
16000.0 61.96909616262552
16500.0 65.22511809634032
17000.0 65.3535181443899
17500.0 54.80556155134984
18000.0 52.274101100718624
18500.0 54.27404475078086
19000.0 57.86309432804681
19500.0 61.17224669873606
