Freq "Total Early Reflection"
22.4 -13.071551081396038
23.0 -11.460785844299053
23.6 -9.857016629959148
24.0 -8.277828587862942
25.0 -6.69284438032706
25.8 -5.1598124647372146
26.5 -3.6027410889831373
27.2 -2.0890472518454004
28.0 -0.5768513814552279
29.0 0.9250948520574838
30.0 2.4189518533767256
30.7 3.883041269495621
31.5 5.354078444475121
32.5 6.793810263049167
33.5 8.241250470521138
34.5 9.662214825673274
35.5 11.068205615244509
36.5 12.499353790969778
37.5 13.87865249141332
38.7 15.274531725995828
40.0 16.64920356068241
41.2 17.984664868427544
42.5 19.35762728391437
43.7 20.665849988547407
45.0 21.98054980655634
46.2 23.269863966765072
47.5 24.56573485001978
48.7 25.835452396656095
50.0 27.071927053888956
51.5 28.295846881851574
53.0 29.5064690592843
54.5 30.69185685771926
56.0 31.856086282383032
58.0 33.002488786682676
60.0 34.085198660488246
61.5 35.18919480362865
63.0 36.23703201423082
65.0 37.27719532615663
67.0 38.273188121375554
69.0 39.23291139240507
71.0 40.23291139240507
73.0 41.15309644782096
75.0 42.03291139240507
77.5 42.87122836713799
80.0 43.68748262108363
82.5 44.45132957791654
85.0 45.21309475125494
87.5 45.944608908914944
90.0 46.54885475179705
92.5 47.15097611765994
95.0 47.782072499777186
97.5 48.394366334723216
100.0 48.97755681590739
103.0 49.54756521111689
106.0 50.07118609639565
109.0 50.59173005631938
112.0 51.04111262659532
115.0 51.48107172395622
118.0 51.91444223255243
122.0 52.35280174526518
125.0 52.74964757702884
128.0 53.134826146991585
132.0 53.53538362453783
136.0 53.895882136139605
140.0 54.34136678200629
145.0 54.74316790489705
150.0 55.04044169753047
155.0 55.33877197578447
160.0 55.60186171638992
165.0 55.839730072516986
170.0 56.11276351156897
175.0 56.3230438371631
180.0 56.491061688488
185.0 56.659936122110565
190.0 56.841872025991606
195.0 56.99590347532347
200.0 57.14097021720727
206.0 57.26835905817727
212.0 57.35762788653909
218.0 57.460015681887
224.0 57.50056832950543
230.0 57.52103914846863
236.0 57.53197422895279
240.0 57.52601620753987
250.0 57.50655030499259
258.0 57.43176921749425
265.0 57.32152165355936
272.0 57.21639146132597
280.0 57.05682218166078
290.0 56.88499036984973
300.0 56.67808132802857
307.0 56.463704051054165
315.0 56.2285877392421
325.0 56.003567144857215
335.0 55.80973691968313
345.0 55.64703707583156
355.0 55.48755023088805
365.0 55.35627127020835
375.0 55.28132893453454
387.0 55.20328639893546
400.0 55.11315911213386
412.0 54.98046736339853
425.0 54.84048099347885
437.0 54.66073503480551
450.0 54.4749473708592
462.0 54.2850975862966
475.0 54.076778072382
487.0 53.87582504543185
500.0 53.703832757167135
515.0 53.591867853895934
530.0 53.45972236837821
545.0 53.39297276452962
560.0 53.35107812531099
580.0 53.34234808417743
600.0 53.44235855996695
615.0 53.573005899334106
630.0 53.739306609879335
650.0 53.92328794773857
670.0 54.07106977032082
690.0 54.18215723351037
710.0 54.27229376957432
730.0 54.344288695963485
750.0 54.47025367116137
775.0 54.60646337235974
800.0 54.770144571718774
825.0 54.86905927773617
850.0 54.806549437578155
875.0 54.51631471017764
900.0 54.09270976501473
925.0 53.655219953245506
950.0 53.449170974293565
975.0 53.609024897370176
1000.0 53.77679811825469
1030.0 53.48754709214896
1060.0 52.924857232805564
1090.0 52.727733523955905
1120.0 52.878423262409
1150.0 52.89005662022497
1180.0 52.47663955012756
1220.0 52.351132265058396
1250.0 53.195798604728935
1280.0 53.97610288975035
1320.0 53.97116240033665
1360.0 53.564003804107514
1400.0 53.3195104356398
1450.0 53.0369347705069
1500.0 52.86215131447277
1550.0 52.91381482483456
1600.0 52.779564060893776
1650.0 52.517058441788095
1700.0 52.44592813536859
1750.0 52.692927131892944
1800.0 52.67358005727297
1850.0 51.928233930541936
1900.0 51.20532400297374
1950.0 50.81098237132582
2000.0 49.711342430233216
2060.0 48.43627572154334
2120.0 47.56245194803104
2180.0 46.92866544069604
2240.0 46.28364579806235
2300.0 45.88196086913355
2360.0 45.7428424785095
2400.0 45.774162410027074
2500.0 45.39532671343612
2580.0 45.12241064743024
2650.0 44.89540103529582
2720.0 44.690487596487415
2800.0 44.94131349716302
2900.0 45.1908863429919
3000.0 45.92636189355187
3070.0 46.99547717155774
3150.0 48.08952417361148
3250.0 49.08782627183511
3350.0 49.71305094008882
3450.0 50.53038317094422
3550.0 51.20450751219225
3650.0 51.610279154274195
3750.0 51.731494738201064
3870.0 52.09549783019874
4000.0 51.873613029698404
4120.0 52.03750719993808
4250.0 51.76548759035977
4370.0 51.797548022252684
4500.0 52.090401629398116
4620.0 52.83647318717877
4750.0 53.601606176389495
4870.0 54.279787561997736
5000.0 54.68815560850503
5150.0 54.54483629694573
5300.0 54.60678966714762
5450.0 54.03981899350974
5600.0 54.90025971908261
5800.0 55.38578139169316
6000.0 56.510950196682074
6150.0 57.454803987431575
6300.0 58.3392499934054
6500.0 59.246420469765624
6700.0 58.63117552046255
6900.0 58.37239293768967
7100.0 56.85879437792967
7300.0 56.534969966753735
7500.0 56.191727077924895
7750.0 55.71298708921387
8000.0 55.54411572791419
8250.0 56.33802975824861
8500.0 57.31351545755449
8750.0 56.56871749325573
9000.0 56.52952868484083
9250.0 56.851733821223476
9500.0 56.95447636416203
9750.0 56.68539321367243
10000.0 57.48535412549201
10300.0 58.466569849670904
10600.0 59.15262446266124
10900.0 59.03719930412878
11200.0 59.001693993486285
11500.0 59.72600378755048
11800.0 60.804109378793314
12200.0 61.768545481330946
12500.0 62.70098399708222
12800.0 64.01604559864961
13200.0 64.66434038657464
13600.0 65.9748161624422
14000.0 62.209095907739126
14500.0 56.21531888225091
15000.0 58.57170858110767
15500.0 60.90819609522454
16000.0 62.905320955049476
16500.0 66.10967690482987
17000.0 66.21306466489601
17500.0 55.72090202009787
18000.0 53.173960947368386
18500.0 55.182338828786655
19000.0 58.75652627718705
19500.0 62.05801577451186
