Freq,Floor Bounce,Ceiling Bounce,Front Wall Bounce,Side Wall Bounce,Rear Wall Bounce,Total Early Reflection
20.5078,48.09859914987821,47.908671018516216,47.82051408860336,48.0122096093496,48.27929514844429,48.02676183743027
21.9727,45.624419386835584,46.088448231447344,45.61740155529536,45.746305615921344,45.88843846472078,45.79666520777123
23.4375,48.47057101758152,47.488753269914994,47.80911097560677,48.04528953109933,48.638349538708965,48.1108005456109
24.9023,50.55376013016807,48.363973263901656,49.45479882861723,49.5401082312856,49.956306749652256,49.631871631247506
26.3672,52.85379813257741,50.931647534203435,51.87191799946508,52.01544797083726,52.54312975620677,52.091867730971344
27.832,56.255436385592176,54.57271300817429,55.43232276080845,55.4720461878875,55.79937454361986,55.54081968977202
29.2969,58.3438142180854,56.35126125965529,57.505273294372,57.29549095541496,56.6914285516943,57.29309736951565
30.7617,61.049931188466545,59.05784910075384,60.21390045446471,60.0329058999193,59.56270799857792,60.03526600167176
32.2266,63.329146616204596,61.40981988604615,62.525222769508915,62.36204322486179,61.955619333629755,62.363338453607994
33.6914,65.78693279718611,63.88325869884294,64.99716479369512,64.82990553920695,64.42145271644895,64.83006042343983
35.1563,68.09694460995928,66.20557217459648,67.30791064282552,67.1716719832245,66.84646853277654,67.1696938421283
36.6211,70.53565030662534,68.73202668042346,69.81593561076711,69.61084249670336,69.10227022164723,69.60386407689418
38.0859,72.697816610938,70.97107617226915,72.0118503322853,71.80094754613508,71.24781404956417,71.78843803181516
39.5508,74.97881129607202,73.27270484716321,74.29540356949742,74.11761374234918,73.69859565526833,74.11096030083336
41.0156,76.91653509898417,75.2336019038337,76.25220105437913,76.05361686011159,75.57596694129766,76.0452572727921
42.4805,78.73576334855784,77.09405016361934,78.0945019667352,77.88933442061521,77.40447737891076,77.88115591894943
43.9453,80.24878073291228,78.64266720232392,79.63233946923931,79.40483379954144,78.86810973296,79.39706267578055
45.4102,81.42361358373711,79.86784021691425,80.82984954315008,80.60737666906287,80.07605566430867,80.59659276242284
46.875,82.25785984962148,80.71359914946227,81.6771689705594,81.43555771361578,80.84249368839039,81.42239170666865
48.3398,82.72170046959941,81.23037166918003,82.15438022612048,81.9428142005804,81.44115143596872,81.93060851731678
51.2695,83.11153060325233,81.70181505469698,82.57106662408351,82.37036727888731,81.9407959092127,82.36735152704024
52.7344,83.22999726025463,81.81279221039661,82.69815952262631,82.47938328949131,82.02149227875323,82.47762931751618
54.1992,83.26652568899887,81.84359234711566,82.74431616227035,82.49656365238833,81.9617866124069,82.49415770182203
55.6641,83.20063372473626,81.82903287809651,82.7000766735731,82.4545130137058,81.92210261831245,82.45112977159891
58.5938,83.18184084525228,81.81876502199495,82.68810858016934,82.44028409396087,81.91418070684912,82.43809983857561
60.0586,83.17059891947855,81.81692931129854,82.68271006944464,82.43356907766241,81.91217273571624,82.4322712536077
62.9883,83.14672334374956,81.82089296067797,82.6744271332566,82.42283006479538,81.93070569345427,82.42670777197522
64.4531,83.18571104935573,81.8752780342955,82.72999326480392,82.4521285356952,81.90832435247998,82.45908465817148
67.3828,83.14988496160785,81.86858880091195,82.70540093969818,82.44027355006854,81.87072249178023,82.4352350105452
68.8477,83.03680734959362,81.77045295369437,82.59617666332447,82.34092236089589,81.82199038274716,82.33970714695421
71.7773,82.81674161245586,81.55105176875205,82.38622286099704,82.10764377755702,81.55042992154586,82.11016870735122
74.707,82.48494914234011,81.23825952747615,82.06896491637578,81.77384474002143,81.18372290896424,81.77831254642341
77.6367,82.10765670312507,80.88790851329564,81.70919020572072,81.40087505747296,80.77856894740866,81.40556467860286
79.1016,82.12905464184013,80.92812731075459,81.7397669405428,81.42660930662117,80.76992270783832,81.42796539916004
82.0313,82.44285123160445,81.24422157786962,82.0294258056304,81.76595759380432,81.23119407927011,81.76782787697844
84.9609,82.86234905970333,81.57015724752084,82.41631141297394,82.15414283232761,81.7048462361921,82.16736332607273
87.8906,83.34549246472987,82.04114128639931,82.90871176572547,82.62086271548272,82.2115224005942,82.65132691584989
90.8203,83.72915634949744,82.44289622695993,83.31898964913363,82.99301453169035,82.56131722697025,83.03542550410333
95.2148,84.0930748477009,82.77740959151791,83.68800165870533,83.31617620629235,82.7541570298127,83.3569974631467
98.1445,84.19757359260787,82.90797724362639,83.80782512771708,83.42175838908092,82.82656455581643,83.46403398807519
101.074,84.27205960522258,83.02798568787505,83.91254883132318,83.49176198778336,82.8178338097287,83.53801922739144
105.469,84.32692252248945,83.16966101574972,84.001522392983,83.57329712655182,82.76935880318199,83.60391936073705
108.398,84.3077913991008,83.12984341073658,83.95934953691722,83.5649215184805,82.90090643036335,83.6034189169883
112.793,84.2591133001646,83.06335285518246,83.91606577610547,83.4886764781469,82.8496439163888,83.54683047030692
117.188,84.16077765676897,82.97090776497797,83.82860594733657,83.37427851980247,82.65634830509077,83.43272849838665
120.117,84.19234980169769,82.98111868806458,83.85489477075411,83.39710239919741,82.71583591020908,83.46227118296872
124.512,84.1284251522588,82.92487465131894,83.80983420938252,83.36648483142089,82.82162794552674,83.43940335352367
128.906,83.93030745490996,82.90365096984274,83.7083816057435,83.22803804166445,82.63789706919539,83.30844546975263
133.301,83.72125442817718,82.90124976143522,83.58543252226929,83.04176954945213,82.24045788750857,83.12980697012468
139.16,83.19841296312741,82.41400517847973,83.02618996262241,82.60919601313473,81.88962823390371,82.65193325855044
143.555,82.89380549731,82.12117550077103,82.72773050340622,82.26999032150887,81.62436762477748,82.35070654671773
147.949,82.69985165554652,82.01498676472389,82.5721119563861,82.15894264883823,81.66878985022643,82.23907818133114
153.809,81.6841081912916,81.8239513324216,81.84477357958122,81.55807892424015,81.35266326729003,81.65651311340527
159.668,81.77249194722496,81.13179043482391,81.59712840245452,80.72049728726007,81.63513472190657,81.3886075783092
165.527,83.28424571816198,81.64759229554777,82.90663393988459,81.74644881041621,81.36569954461918,82.2577178156981
171.387,83.30022991261949,81.52213416718108,82.93862517446361,81.92344480779404,81.0986194232418,82.23762413420695
177.246,83.16058403678844,81.75841318812232,82.95401712763734,81.9072712409971,81.0958197587253,82.24389405924133
183.105,83.22093120452999,81.86839096820435,83.0274282829771,82.02783984079558,81.08239249296493,82.31622539023604
188.965,82.83353179417831,81.34850828363481,82.64564083908974,81.64066209328472,80.80699953865197,81.92372832788861
196.289,82.71282712017451,81.41885654028164,82.56298251674943,81.5457988720011,80.5170099727826,81.82538830869537
203.613,82.18123251770022,80.72655242882377,82.06854702581562,80.80210935173467,80.0008435257979,81.23700304244656
210.938,82.41309177866809,80.9984638107796,82.35133680963558,81.01520318885174,79.33200257473042,81.36132959253716
218.262,82.48865212708176,81.2143175298297,82.36691104532626,81.51834211947042,79.50706745633482,81.54246079534298
225.586,81.7297959041589,80.81896433822664,81.81081053511183,80.898989649906,79.89536038473318,81.08587132394977
232.91,81.63520925529305,80.73495833754494,81.87343440529128,80.51810152674749,79.67349406328589,80.95883938451804
241.699,82.03252545628477,81.04262107511113,82.21226219407028,80.82423306231112,78.90931729634092,81.15233216571639
250.488,81.70752524613407,80.5659053196705,81.94218455411077,80.65507051595146,78.77801946303939,80.8652613190256
259.277,82.59330698174836,81.59942270855275,82.86884817753815,81.52274086732612,78.91217028665353,81.70052357115254
268.066,82.9279653116177,82.16495092329943,83.21110180391352,82.23545844335754,80.0495318484523,82.24688131537116
276.855,82.13501285996585,81.46689335961582,82.49804436645327,81.27973109756404,79.63334505379176,81.50814715910052
287.109,82.4427968030056,81.86560297606098,82.89808449588926,81.54385275878833,79.14518205264926,81.75442059054346
297.363,82.7310676774144,82.20338371368507,83.25394052579576,82.14015575301828,79.2668737526357,82.11296218234624
307.617,82.62644918873083,81.80423357508694,83.01532128398767,82.00704959732442,80.02771476072766,82.00961954990758
319.336,82.24704151173151,81.57246670552114,82.67052908120174,81.63048074902345,79.35502914581544,81.63225277171368
329.59,82.0503532359415,81.65373330377524,82.69634795008263,81.49522173742199,79.49997107895925,81.60141961222475
341.309,82.3821379322565,81.65710140500592,82.8619377632793,81.7599900184222,79.1241716982568,81.72901533727453
353.027,82.28310665814553,81.62495853590168,83.00298492102273,81.57057920189408,79.21483909841365,81.70985723445276
366.211,82.41106619534504,81.619701677451,82.95512353791956,81.96348794409057,79.13801292123688,81.79586157969312
379.395,82.7769650776933,82.00480187530735,83.30116508542231,82.14189716193671,78.66013604742948,82.03719800479661
392.578,82.43009105614897,81.57657192099228,82.99995144755776,81.82088220465198,78.86700946340214,81.74584016153554
405.762,83.10899679576731,82.26892104871702,83.74294201438799,82.48943708896458,79.06628854554926,82.39556426134506
420.41,83.21458196924746,82.02005717947286,83.59425067665619,82.52093540624601,78.78287077463175,82.3141114742911
435.059,83.34805901461986,82.12821140314082,83.88623534848918,82.40166954078683,79.03672513503567,82.44554964778636
451.172,83.55150214409575,82.51647887946027,83.98215149018445,82.843785523311,78.55159730055969,82.64497997718875
465.82,83.63427499551291,81.93182999189939,83.71912575629425,83.11034022175612,79.23555499746229,82.60501184442832
483.398,83.82083186715438,82.20372688477273,84.3321192588967,83.0144942620502,79.62561874642962,82.87901666359541
499.512,83.40125566485152,81.54401083866495,83.70451700041342,82.31108749625457,79.21492258900875,82.30407982175065
517.09,83.33948048216521,81.69873834857712,84.02666958040646,82.400192804164,78.04455730188177,82.32430207906849
536.133,83.66472169889433,81.77543923238412,84.05521759225952,82.87004048384085,78.38947439686423,82.55316547089627
555.176,83.3859649312379,81.33343872638078,83.55767452010595,82.17755452826887,78.41077951300343,82.12364703263177
574.219,83.3964218487903,81.26336039843261,83.63651247830408,82.15280886589235,77.81185588520525,82.08422910929806
594.727,82.99717844117205,80.57230645841624,82.82245712005316,81.66956743679437,78.18640375520532,81.5700740072631
615.234,83.00988145163053,80.59451209416869,82.86447753045684,80.23502228809485,77.8848605432773,81.30367762675188
637.207,82.6734785370527,80.8980781582821,82.44455283639162,79.60963347814955,74.8658802690848,80.8327626167487
659.18,82.09130397651734,81.26468779179963,83.11775659595212,81.03691898103767,77.07279630463526,81.32646399611204
682.617,82.6463345928037,80.58025201955388,83.83775875717187,80.86244115821208,77.5285291366273,81.57617896246526
707.52,83.3405734082882,80.47351672978893,83.66910803035667,80.6848470209331,76.01195591130491,81.56600614988919
732.422,83.3583985168592,79.74889271661581,83.55086958211055,80.56443306452677,76.05089372192609,81.40973634689118
757.324,83.38036010395543,78.8316018703398,83.70785221290754,80.4494986964889,77.13804000520335,81.40941436395147
785.156,83.99267608143509,79.60045508633883,83.84466537598963,80.78634010601449,75.14979182838361,81.68450662489761
811.523,83.62301404382208,79.66515738408076,83.43020237484534,80.53755919036375,74.98808852183964,81.38554761578041
840.82,84.08288823565408,80.19685381914817,83.7576087602769,80.34599670901379,76.358037456938,81.75942812618997
870.117,84.15524815107092,80.49368189242945,83.13399978804803,80.66388165309492,74.31200859646115,81.59359111152592
900.879,84.03367107800109,80.49202044379784,82.8960214569998,80.81514501000699,74.81341612327667,81.52829271802105
933.105,84.15090445296835,80.96659652780237,82.59895514395667,79.73339083077495,75.2618956853103,81.42738848060681
965.332,83.84298525017192,79.14439292731564,82.60651282541565,80.27100451336501,73.60994247878205,81.04508165570684
1000.49,83.9617410638595,79.96072001697094,82.16536693841674,79.2633656754342,74.77042769139749,80.98380020153515
1035.64,83.64570756055848,80.38084619781293,82.2062609245358,79.63788331487105,72.62629400457405,80.91442945827986
1072.27,83.90445739363649,81.16393499355841,81.90087154501295,78.7305904082607,74.00135453831064,81.01164592648821
1108.89,84.15928536566385,80.50409073329821,82.5075424197404,78.84891755808931,73.31372118593045,81.13396063704863
1148.44,84.01489007776699,79.70298022438978,82.38384209512292,78.49042846352667,73.57917999790152,80.87790932588594
1189.45,84.51446477433856,79.95285323983751,83.64898093377282,79.39427886089669,72.62150230495004,81.57549212086386
1230.47,84.5079616481602,81.34699565011715,83.61170665238573,79.85242847058667,73.62402914194847,81.86458733871825
1274.41,84.70004000825121,82.73627516129126,83.30534796598647,79.14099884233819,72.71751825478694,82.02871770472582
1319.82,85.00890644969938,83.50968907165712,82.98797058887224,78.74655637011743,72.31760876600892,82.21260225042327
1366.7,84.73234671636793,82.42185893494792,83.53378962899056,79.35446119058378,72.13774418676957,82.04202718774117
1413.57,84.47312414954774,81.6849740446627,83.87316072573226,79.58982787044657,72.31761966705217,81.92844604515015
1463.38,84.0977404956475,81.9961274867256,83.98877773766651,79.46669379806208,71.58176585799303,81.86748676973325
1516.11,83.4612830127851,81.81432560910476,83.68706417300052,79.26974270771261,71.2480158792774,81.49415619726534
1568.85,83.3015735086124,81.41950809969244,83.30781810269305,78.98841438647324,70.77017917259899,81.19174413134871
1624.51,83.00781597530131,81.01205859381353,83.6754701009662,79.18794627530085,70.66732742275538,81.16499837114267
1681.64,81.97676261050718,79.89035635614576,83.74645972309243,79.09209129633338,69.89430847762021,80.66690664470272
1741.7,81.90879527373643,78.6287904280592,82.71162308147098,78.0775113323152,69.57065525766212,79.89556119589342
1803.22,82.69815959986515,77.66367040547662,83.27281876927235,78.74671615953166,70.36286898730283,80.35661943237601
1866.21,83.22671671883826,79.28379212597487,84.24690356044471,79.55308873670556,70.89516160335242,81.22811173766345
1932.13,82.3893185416437,79.1351220180495,84.07385305271556,79.22705115812873,69.7506190695316,80.82017319202744
1999.51,81.86632765115155,79.20405369391128,83.6754758269448,78.75165292475415,68.99437355106853,80.43749880362837
2069.82,81.15485136174836,78.69808354101579,83.48543546476837,78.43795514426552,68.7928106032728,80.04361656484485
2143.07,80.5971290382766,78.39097530358877,83.54117956463243,78.6244429340422,68.56994809252149,79.91076084016996
2219.24,80.62145629236018,78.20294913955554,82.30380045727537,77.72971572252929,66.97510003596112,79.19855095822548
2296.88,79.94733551961936,77.72118344721002,81.87909770424461,77.09539851531825,66.90135612476888,78.67156390754877
2378.91,79.39776921445029,77.61004470474924,82.19077512032068,77.42670031523902,66.64057343562858,78.69515905354092
2462.4,79.39453008756696,77.1606778159004,82.3263785388879,77.27119139355801,66.60568307769778,78.66616254742222
2548.83,79.31618632526359,77.04015261758391,81.91210526003918,76.92434121689737,66.27785216113303,78.38631375946767
2639.65,79.42530343449452,77.34586099417099,82.30152708452997,77.26492571493253,66.57993684053125,78.68742795215395
2731.93,80.13959384366528,77.33152012877264,82.5364982528688,77.49288493021872,66.17028643278913,78.9978976730403
2828.61,80.50924916514784,77.68225654748329,82.74446547942105,77.577660569168,66.35310175810659,79.25082381867286
2928.22,80.68793018755983,77.45342449313411,82.80022139719527,77.54264523716301,65.68832496392407,79.28240302176542
3030.76,80.80748884160131,78.07804769092009,83.05133615446498,78.19451815282464,65.93730123496907,79.60454204081948
3137.7,81.05722108443516,77.38519468213121,82.70253559650409,77.72695450871234,65.68845014745017,79.36114663205663
3249.02,81.05027309509694,77.24392063138765,83.09419244390023,77.40953072859028,64.23218000839904,79.46450392439482
3363.28,81.30220999421913,77.04815845141498,82.986876210734,77.2714779560411,64.3691177293718,79.45126809564998
3481.93,81.29690803920381,76.63167433206624,83.59263980641367,76.63639755702859,63.87853726647073,79.61970049280795
3604.98,81.35513496903783,76.16807772155487,83.16772257784385,76.40206634415817,63.20114702460462,79.3565453657455
3732.42,81.07562904034134,75.81515655413313,83.99500095835826,76.256252383117,63.67175428844821,79.65404005035367
3864.26,81.38842507162322,75.95231702072927,83.829123797653,76.14878402013828,64.27884797366353,79.66067592076705
4000.49,81.39357834428148,75.64740448149125,84.38069451738106,76.60859691120103,65.08964862141852,79.98058400723322
4141.11,81.57287508906596,76.11018975569714,84.22954896938998,77.04410694644031,66.00269646115748,80.03386510835584
4287.6,81.13409519646518,76.70087132065039,83.30298170226718,77.23490550638608,65.59444156495837,79.51431392968864
4438.48,81.02445425455437,77.09622812047238,82.5981440252729,77.00225280287717,65.08021216031851,79.17088683929563
4595.21,81.82855225417688,77.44293651805597,82.922590530449,76.50943112089688,63.74468274180302,79.5519676159104
4756.35,82.20222110428189,77.38438095321636,83.38317800396864,76.6578702801879,64.79954142954668,79.89514235006571
4924.8,82.29014799494009,77.17788310955778,82.9099354746172,76.90725201417159,64.12164700608557,79.71950645445729
5097.66,82.05211494944963,76.50892354042222,82.76540961896903,76.52274930007364,64.18583355710089,79.46179003903788
5277.83,81.08064103381996,76.30233218630998,81.21180331285139,75.9822013786153,64.0781180426714,78.392550787054
5463.87,80.30448781915587,77.59285972271074,80.74186274560077,76.49134968011177,63.58629093037564,78.19811071289864
5657.23,80.74952668345095,79.24691509847833,81.45883473146368,77.13797420679677,63.797915473064776,78.9979036400051
5856.45,81.18376018273636,79.6577205378859,81.99067658690008,77.58262056936573,63.78683672611771,79.46069029477256
6062.99,81.99043788042344,78.79384981571441,82.85878900299413,77.22917889969055,61.99415084436727,79.83582467223466
6276.86,82.32852170970584,77.4149807275269,83.04961251762897,76.65213653027844,61.51142350036409,79.7825636496539
6498.05,80.86131739205078,77.76605172222479,82.62367353883471,76.22625999588395,60.871657221638586,79.11529902835387
6726.56,80.74899701579314,77.62586266192068,82.41488955026915,76.17113064790523,60.65823411319187,78.96153241938303
6963.87,80.6125713744953,77.42158266593634,82.13435686519757,76.15170510638444,60.81840839078551,78.76539369565118
7209.96,80.89976284304338,77.42422470547368,82.59759085193018,75.89117111059367,60.311520660479474,79.03145002449087
7464.84,81.40571317389724,77.59705563614014,83.32406877897952,75.73233197802816,60.557821355902334,79.5354486374003
7727.05,81.92099882354762,77.4510974565038,83.34920683644528,75.83364435707126,61.620410502266395,79.70566336244481
7999.51,81.84395844453358,77.35243542318963,83.08015118996076,76.57854634333926,62.5066551209386,79.61666669070519
8282.23,81.37249005450762,77.33893355604671,82.40255881083222,76.81384584259588,62.70995246487327,79.19201862555862
8573.73,80.83201321988895,76.84484129786492,82.2066016769041,76.75216730448264,62.05538895933225,78.86074098186256
8876.95,80.86444988071825,76.48521232039151,82.65105042306153,76.53217848532763,61.04391596736859,78.99748786587905
9188.96,81.16011283927368,76.7426814954751,83.21890235626365,76.61733248050474,60.0906178282777,79.39129289377419
9514.16,81.28846120508278,77.2324070674329,83.27046102488936,76.89832411825904,59.44192861519669,79.53853945957623
