Freq "Ceiling Bounce"
20.5078 47.908671018516216
21.9727 46.088448231447344
23.4375 47.488753269914994
24.9023 48.363973263901656
26.3672 50.931647534203435
27.832 54.57271300817429
29.2969 56.35126125965529
30.7617 59.05784910075384
32.2266 61.40981988604615
33.6914 63.88325869884294
35.1563 66.20557217459648
36.6211 68.73202668042346
38.0859 70.97107617226915
39.5508 73.27270484716321
41.0156 75.2336019038337
42.4805 77.09405016361934
43.9453 78.64266720232392
45.4102 79.86784021691425
46.875 80.71359914946227
48.3398 81.23037166918003
51.2695 81.70181505469698
52.7344 81.81279221039661
54.1992 81.84359234711566
55.6641 81.82903287809651
58.5938 81.81876502199495
60.0586 81.81692931129854
62.9883 81.82089296067797
64.4531 81.8752780342955
67.3828 81.86858880091195
68.8477 81.77045295369437
71.7773 81.55105176875205
74.707 81.23825952747615
77.6367 80.88790851329564
79.1016 80.92812731075459
82.0313 81.24422157786962
84.9609 81.57015724752084
87.8906 82.04114128639931
90.8203 82.44289622695993
95.2148 82.77740959151791
98.1445 82.90797724362639
101.074 83.02798568787505
105.469 83.16966101574972
108.398 83.12984341073658
112.793 83.06335285518246
117.188 82.97090776497797
120.117 82.98111868806458
124.512 82.92487465131894
128.906 82.90365096984274
133.301 82.90124976143522
139.16 82.41400517847973
143.555 82.12117550077103
147.949 82.01498676472389
153.809 81.8239513324216
159.668 81.13179043482391
165.527 81.64759229554777
171.387 81.52213416718108
177.246 81.75841318812232
183.105 81.86839096820435
188.965 81.34850828363481
196.289 81.41885654028164
203.613 80.72655242882377
210.938 80.9984638107796
218.262 81.2143175298297
225.586 80.81896433822664
232.91 80.73495833754494
241.699 81.04262107511113
250.488 80.5659053196705
259.277 81.59942270855275
268.066 82.16495092329943
276.855 81.46689335961582
287.109 81.86560297606098
297.363 82.20338371368507
307.617 81.80423357508694
319.336 81.57246670552114
329.59 81.65373330377524
341.309 81.65710140500592
353.027 81.62495853590168
366.211 81.619701677451
379.395 82.00480187530735
392.578 81.57657192099228
405.762 82.26892104871702
420.41 82.02005717947286
435.059 82.12821140314082
451.172 82.51647887946027
465.82 81.93182999189939
483.398 82.20372688477273
499.512 81.54401083866495
517.09 81.69873834857712
536.133 81.77543923238412
555.176 81.33343872638078
574.219 81.26336039843261
594.727 80.57230645841624
615.234 80.59451209416869
637.207 80.8980781582821
659.18 81.26468779179963
682.617 80.58025201955388
707.52 80.47351672978893
732.422 79.74889271661581
757.324 78.8316018703398
785.156 79.60045508633883
811.523 79.66515738408076
840.82 80.19685381914817
870.117 80.49368189242945
900.879 80.49202044379784
933.105 80.96659652780237
965.332 79.14439292731564
1000.49 79.96072001697094
1035.64 80.38084619781293
1072.27 81.16393499355841
1108.89 80.50409073329821
1148.44 79.70298022438978
1189.45 79.95285323983751
1230.47 81.34699565011715
1274.41 82.73627516129126
1319.82 83.50968907165712
1366.7 82.42185893494792
1413.57 81.6849740446627
1463.38 81.9961274867256
1516.11 81.81432560910476
1568.85 81.41950809969244
1624.51 81.01205859381353
1681.64 79.89035635614576
1741.7 78.6287904280592
1803.22 77.66367040547662
1866.21 79.28379212597487
1932.13 79.1351220180495
1999.51 79.20405369391128
2069.82 78.69808354101579
2143.07 78.39097530358877
2219.24 78.20294913955554
2296.88 77.72118344721002
2378.91 77.61004470474924
2462.4 77.1606778159004
2548.83 77.04015261758391
2639.65 77.34586099417099
2731.93 77.33152012877264
2828.61 77.68225654748329
2928.22 77.45342449313411
3030.76 78.07804769092009
3137.7 77.38519468213121
3249.02 77.24392063138765
3363.28 77.04815845141498
3481.93 76.63167433206624
3604.98 76.16807772155487
3732.42 75.81515655413313
3864.26 75.95231702072927
4000.49 75.64740448149125
4141.11 76.11018975569714
4287.6 76.70087132065039
4438.48 77.09622812047238
4595.21 77.44293651805597
4756.35 77.38438095321636
4924.8 77.17788310955778
5097.66 76.50892354042222
5277.83 76.30233218630998
5463.87 77.59285972271074
5657.23 79.24691509847833
5856.45 79.6577205378859
6062.99 78.79384981571441
6276.86 77.4149807275269
6498.05 77.76605172222479
6726.56 77.62586266192068
6963.87 77.42158266593634
7209.96 77.42422470547368
7464.84 77.59705563614014
7727.05 77.4510974565038
7999.51 77.35243542318963
8282.23 77.33893355604671
8573.73 76.84484129786492
8876.95 76.48521232039151
9188.96 76.7426814954751
9514.16 77.2324070674329
9849.61 77.81560998763544
10196.8 77.90008044390305
10555.7 77.79862423775141
10927.7 77.580658189565
11313.0 76.74464354761805
11712.9 74.95043470391006
12126.0 73.75172688280387
12553.7 72.26021141446164
12996.1 70.47137961154087
13454.6 69.51162965454765
13929.2 70.41877458469293
14419.9 71.47047987221775
14928.2 71.65127210222384
15455.6 72.15639870349966
16000.5 72.92619631680017
16564.5 73.12727776469183
17148.9 72.51507675606798
17752.4 71.68181848545116
18379.4 70.04977796120407
19026.9 66.93818360550476
19697.8 63.90242130720064
19999.5 62.53944873825169
