Freq "Front Wall Bounce"
20.5078 48.12301711890636
21.9727 45.91990458559839
23.4375 48.11161400590977
24.9023 49.75730185892023
26.3672 52.17442102976811
27.832 55.73482579111145
29.2969 57.807776324675004
30.7617 60.516403484767736
32.2266 62.82772579981193
33.6914 65.29966782399815
35.1563 67.61041367312855
36.6211 70.11843864107013
38.0859 72.31435336258832
39.5508 74.59790659980044
41.0156 76.55470408468214
42.4805 78.3970049970382
43.9453 79.93484249954231
45.4102 81.13235257345309
46.875 81.97967200086244
48.3398 82.4568832564235
51.2695 82.87356965438653
52.7344 83.00066255292933
54.1992 83.04681919257338
55.6641 83.00257970387611
58.5938 82.99061161047236
60.0586 82.98521309974765
62.9883 82.97693016355963
64.4531 83.03249629510694
67.3828 83.0079039700012
68.8477 82.8986796936275
71.7773 82.68872589130005
74.707 82.37146794667879
77.6367 82.01169323602372
79.1016 82.0422699708458
82.0313 82.33192883593341
84.9609 82.71881444327695
87.8906 83.2112147960285
90.8203 83.62149267943664
95.2148 83.99050468900835
98.1445 84.1103281580201
101.074 84.21505186162618
105.469 84.30402542328602
108.398 84.26185256722023
112.793 84.2185688064085
117.188 84.13110897763958
120.117 84.15739780105714
124.512 84.11233723968554
128.906 84.01088463604651
133.301 83.8879355525723
139.16 83.32869299292544
143.555 83.03023353370924
147.949 82.87461498668911
153.809 82.14727660988422
159.668 81.89963143275753
165.527 83.20913697018759
171.387 83.24112820476661
177.246 83.25652015794036
183.105 83.32993131328011
188.965 82.94814386939275
196.289 82.86548554705244
203.613 82.37105005611862
210.938 82.65383983993861
218.262 82.66941407562929
225.586 82.11331356541484
232.91 82.17593743559429
241.699 82.51476522437329
250.488 82.24468758441377
259.277 83.17135120784117
268.066 83.51360483421654
276.855 82.80054739675629
287.109 83.20058752619228
297.363 83.55644355609876
307.617 83.31782431429069
319.336 82.97303211150476
329.59 82.99885098038563
341.309 83.16444079358233
353.027 83.30548795132576
366.211 83.25762656822258
379.395 83.60366811572531
392.578 83.30245447786076
405.762 84.04544504469101
420.41 83.8967537069592
435.059 84.1887383787922
451.172 84.28465452048746
465.82 84.02162878659728
483.398 84.63462228919971
499.512 84.00702003071643
517.09 84.32917261070948
536.133 84.35772062256254
555.176 83.86017755040896
574.219 83.9390155086071
594.727 83.12496015035619
615.234 83.16698056075985
637.207 82.74705586669464
659.18 83.42025962625513
682.617 84.1402617874749
707.52 83.9716110606597
732.422 83.85337261241355
757.324 84.01035524321055
785.156 84.14716840629266
811.523 83.73270540514837
840.82 84.06011179057991
870.117 83.43650281835104
900.879 83.1985244873028
933.105 82.9014581742597
965.332 82.90901585571866
1000.49 82.46786996871975
1035.64 82.50876395483881
1072.27 82.20337457531595
1108.89 82.81004545004342
1148.44 82.68634512542594
1189.45 83.95148396407583
1230.47 83.91420968268875
1274.41 83.60785099628949
1319.82 83.29047361917526
1366.7 83.83629265929356
1413.57 84.17566375603528
1463.38 84.29128076796952
1516.11 83.98956720330354
1568.85 83.61032113299606
1624.51 83.97797313126921
1681.64 84.04896275339543
1741.7 83.01412611177399
1803.22 83.57532179957536
1866.21 84.54940659074772
1932.13 84.37635608301859
1999.51 83.9779788572478
2069.82 83.78793849507137
2143.07 83.84368259493543
2219.24 82.60630348757839
2296.88 82.18160073454763
2378.91 82.49327815062368
2462.4 82.62888156919091
2548.83 82.2146082903422
2639.65 82.60403011483298
2731.93 82.83900128317181
2828.61 83.04696850972405
2928.22 83.10272442749829
3030.76 83.35383918476799
3137.7 83.00503862680712
3249.02 83.39669547420324
3363.28 83.289379241037
3481.93 83.89514283671669
3604.98 83.47022560814686
3732.42 84.29750398866128
3864.26 84.131626827956
4000.49 84.68319754768407
4141.11 84.532051999693
4287.6 83.60548473257018
4438.48 82.9006470555759
4595.21 83.22509356075201
4756.35 83.68568103427165
4924.8 83.21243850492023
5097.66 83.06791264927203
5277.83 81.5143063431544
5463.87 81.04436577590378
5657.23 81.7613377617667
5856.45 82.29317961720311
6062.99 83.16129203329714
6276.86 83.35211554793197
6498.05 82.92617656913771
6726.56 82.71739258057217
6963.87 82.43685989550059
7209.96 82.9000938822332
7464.84 83.62657180928254
7727.05 83.6517098667483
7999.51 83.38265422026376
8282.23 82.70506184113523
8573.73 82.50910470720711
8876.95 82.95355345336455
9188.96 83.52140538656668
9514.16 83.57296405519237
9849.61 83.34336172511834
10196.8 82.82440026598614
10555.7 81.69478537045588
10927.7 80.61957326531649
11313.0 80.64648647133964
11712.9 80.89539204624639
12126.0 80.08602082945343
12553.7 79.26805804180057
12996.1 79.04090778553557
13454.6 79.11200848176416
13929.2 80.782070615551
14419.9 83.13661233767688
14928.2 84.84157966952671
15455.6 85.52693712089065
16000.5 85.86733399540536
16564.5 86.15011295365566
17148.9 86.41287375240461
17752.4 86.46106124595838
18379.4 86.46816343950776
19026.9 86.0308757251507
19697.8 85.31387564797102
19999.5 85.0089025592994
