Freq "Rear Wall Bounce"
20.5078 48.27929514844429
21.9727 45.88843846472078
23.4375 48.638349538708965
24.9023 49.956306749652256
26.3672 52.54312975620677
27.832 55.79937454361986
29.2969 56.6914285516943
30.7617 59.56270799857792
32.2266 61.955619333629755
33.6914 64.42145271644895
35.1563 66.84646853277654
36.6211 69.10227022164723
38.0859 71.24781404956417
39.5508 73.69859565526833
41.0156 75.57596694129766
42.4805 77.40447737891076
43.9453 78.86810973296
45.4102 80.07605566430867
46.875 80.84249368839039
48.3398 81.44115143596872
51.2695 81.9407959092127
52.7344 82.02149227875323
54.1992 81.9617866124069
55.6641 81.92210261831245
58.5938 81.91418070684912
60.0586 81.91217273571624
62.9883 81.93070569345427
64.4531 81.90832435247998
67.3828 81.87072249178023
68.8477 81.82199038274716
71.7773 81.55042992154586
74.707 81.18372290896424
77.6367 80.77856894740866
79.1016 80.76992270783832
82.0313 81.23119407927011
84.9609 81.7048462361921
87.8906 82.2115224005942
90.8203 82.56131722697025
95.2148 82.7541570298127
98.1445 82.82656455581643
101.074 82.8178338097287
105.469 82.76935880318199
108.398 82.90090643036335
112.793 82.8496439163888
117.188 82.65634830509077
120.117 82.71583591020908
124.512 82.82162794552674
128.906 82.63789706919539
133.301 82.24045788750857
139.16 81.88962823390371
143.555 81.62436762477748
147.949 81.66878985022643
153.809 81.35266326729003
159.668 81.63513472190657
165.527 81.36569954461918
171.387 81.0986194232418
177.246 81.0958197587253
183.105 81.08239249296493
188.965 80.80699953865197
196.289 80.5170099727826
203.613 80.0008435257979
210.938 79.33200257473042
218.262 79.50706745633482
225.586 79.89536038473318
232.91 79.67349406328589
241.699 78.90931729634092
250.488 78.77801946303939
259.277 78.91217028665353
268.066 80.0495318484523
276.855 79.63334505379176
287.109 79.14518205264926
297.363 79.2668737526357
307.617 80.02771476072766
319.336 79.35502914581544
329.59 79.49997107895925
341.309 79.1241716982568
353.027 79.21483909841365
366.211 79.13801292123688
379.395 78.66013604742948
392.578 78.86700946340214
405.762 79.06628854554926
420.41 78.78287077463175
435.059 79.03672513503567
451.172 78.55159730055969
465.82 79.23555499746229
483.398 79.62561874642962
499.512 79.21492258900875
517.09 78.04455730188177
536.133 78.38947439686423
555.176 78.41077951300343
574.219 77.81185588520525
594.727 78.18640375520532
615.234 77.8848605432773
637.207 74.8658802690848
659.18 77.07279630463526
682.617 77.5285291366273
707.52 76.01195591130491
732.422 76.05089372192609
757.324 77.13804000520335
785.156 75.14979182838361
811.523 74.98808852183964
840.82 76.358037456938
870.117 74.31200859646115
900.879 74.81341612327667
933.105 75.2618956853103
965.332 73.60994247878205
1000.49 74.77042769139749
1035.64 72.62629400457405
1072.27 74.00135453831064
1108.89 73.31372118593045
1148.44 73.57917999790152
1189.45 72.62150230495004
1230.47 73.62402914194847
1274.41 72.71751825478694
1319.82 72.31760876600892
1366.7 72.13774418676957
1413.57 72.31761966705217
1463.38 71.58176585799303
1516.11 71.2480158792774
1568.85 70.77017917259899
1624.51 70.66732742275538
1681.64 69.89430847762021
1741.7 69.57065525766212
1803.22 70.36286898730283
1866.21 70.89516160335242
1932.13 69.7506190695316
1999.51 68.99437355106853
2069.82 68.7928106032728
2143.07 68.56994809252149
2219.24 66.97510003596112
2296.88 66.90135612476888
2378.91 66.64057343562858
2462.4 66.60568307769778
2548.83 66.27785216113303
2639.65 66.57993684053125
2731.93 66.17028643278913
2828.61 66.35310175810659
2928.22 65.68832496392407
3030.76 65.93730123496907
3137.7 65.68845014745017
3249.02 64.23218000839904
3363.28 64.3691177293718
3481.93 63.87853726647073
3604.98 63.20114702460462
3732.42 63.67175428844821
3864.26 64.27884797366353
4000.49 65.08964862141852
4141.11 66.00269646115748
4287.6 65.59444156495837
4438.48 65.08021216031851
4595.21 63.74468274180302
4756.35 64.79954142954668
4924.8 64.12164700608557
5097.66 64.18583355710089
5277.83 64.0781180426714
5463.87 63.58629093037564
5657.23 63.797915473064776
5856.45 63.78683672611771
6062.99 61.99415084436727
6276.86 61.51142350036409
6498.05 60.871657221638586
6726.56 60.65823411319187
6963.87 60.81840839078551
7209.96 60.311520660479474
7464.84 60.557821355902334
7727.05 61.620410502266395
7999.51 62.5066551209386
8282.23 62.70995246487327
8573.73 62.05538895933225
8876.95 61.04391596736859
9188.96 60.0906178282777
9514.16 59.44192861519669
9849.61 59.131649813819806
10196.8 59.20054792617994
10555.7 59.70838756605066
10927.7 60.703771338163605
11313.0 60.59752541536683
11712.9 59.2919257006957
12126.0 57.07898393000359
12553.7 54.0911878205617
12996.1 50.24842184232442
13454.6 48.1566482703919
13929.2 49.10103704170784
14419.9 51.13548886093788
14928.2 51.55333278990413
15455.6 49.382233799693026
16000.5 47.38364729051405
16564.5 46.20604497157625
17148.9 48.45580969079175
17752.4 50.961587107344016
18379.4 51.12577834619795
19026.9 50.92978651571245
19697.8 49.68731553651959
19999.5 49.716373256024454
