Freq,Floor Bounce,Ceiling Bounce,Front Wall Bounce,Side Wall Bounce,Rear Wall Bounce,Total Early Reflection
22.4,0.9904953408228607,-1.119278270873508,4.350305043977187,6.893833607332681,1.786009760084596,3.4835966525476465
23.0,1.474119096004614,-0.4861716580063842,5.3597865922690175,7.773034923677386,2.838862837524374,4.359887753769584
23.6,1.9142749198445301,0.10333440072406574,6.235080661338429,8.496435130603544,3.83040370884882,5.124130804351182
24.0,2.397629625109232,0.6096491076946222,6.973409022239707,9.088882675927692,4.617134158255169,5.768432330655116
25.0,2.7985676190347135,1.1218952186123943,7.478499124928561,9.481469265566716,5.239900541613906,6.234905842277527
25.8,3.2192679474384818,1.682766515105783,7.798017519787834,9.695225249874568,5.734411895289327,6.563259161921991
26.5,3.5892051087081427,2.125251189657149,7.994245606236518,9.80638836784783,6.189453636615269,6.8015837551808715
27.2,3.94427764194009,2.6010738905343374,8.142285951853466,9.930661812093945,6.660187334626585,7.040820003062578
28.0,4.328967782556646,3.042005304460389,8.302960209279291,10.080436102895362,7.134895741005153,7.2991874847360805
29.0,4.656057819495629,3.5196328902907226,8.561094088734421,10.194800226585073,7.755843025551258,7.600228678596437
30.0,4.991094168497,3.9459107496514605,8.919598482730777,10.366796060337407,8.535131445871684,7.98683847104823
30.7,5.3730730645958715,4.370146346098181,9.20926448316905,10.627476124253121,9.428983870947093,8.43096423728997
31.5,5.735409592196817,4.853562272409079,8.672966735811343,10.952310757814104,10.299646528339537,8.731623090519804
32.5,6.165275068569656,5.288717881347509,7.881976640767846,11.410261181098008,11.286287551464568,9.131689158131621
33.5,6.661242864750761,5.874834929088877,7.191549261506367,11.909453846266274,12.494918139314564,9.733639497365346
34.5,7.184197836995224,6.489485510945542,6.714229645753676,12.62408217630761,13.967146333117626,10.614939831975278
35.5,7.8836948213298115,7.353480375887642,6.706571007218287,13.576140097060119,15.672708609253448,11.816611363464318
36.5,8.663818752175558,8.422010322180569,7.558186155616113,15.115925812617547,17.686201922997157,13.470572500287375
37.5,9.610768924708907,9.81937204961855,9.873595523018281,17.35496601548141,20.147016240943174,15.711934709508341
38.7,10.936949784835122,11.68143123505638,14.075356928031766,20.520574875016052,23.342941029877238,18.823532708611623
40.0,12.657154353993235,14.16842947293074,19.964494744169826,25.29583762331282,27.79386436268709,23.36045050542876
41.2,15.139878318368801,17.429037259767,25.618421414603517,31.504232094290444,33.094897096039915,28.92746339106327
42.5,18.709049942634152,21.513034286891582,24.08983230946572,28.504877530843686,29.657316221194776,26.24337948976813
43.7,22.499498720188484,25.516946417321464,21.612765421332483,24.622972922724017,25.41789824182024,24.206418274950437
45.0,22.786073078627453,25.49354317058888,20.26223632162788,22.45544666194843,22.67329386290814,23.06007326571367
46.2,20.956230597686442,23.295421127120136,19.473870322287382,21.146998889593135,20.74933279263439,21.30880408359326
47.5,19.604294197676126,21.53946557908992,19.027105185957566,20.324117594801322,19.43041170424462,20.07936881378052
48.7,18.816887134590587,20.47378119228034,18.830635466157503,19.796770012722618,18.477111483348722,19.344229756130915
50.0,18.44920783571706,19.834453399887735,18.73156639185939,19.460441343435747,17.883397823676574,18.92811517850126
51.5,18.318405553823652,19.518016227039197,18.752128764765473,19.29127808247364,17.52268325332659,18.737725219260852
53.0,18.439277393783215,19.436030221173553,18.91070758455143,19.26565498084929,17.379756429660063,18.745882414506497
54.5,18.689040010546677,19.489700144068905,19.12642590646942,19.332651294819243,17.47141448701251,18.87908197982847
56.0,18.968689964246977,19.655202187069392,19.38497662963414,19.500920018708285,17.722824873542265,19.09945392874303
58.0,19.419935798127227,19.94688789977431,19.739495871373293,19.785022664132384,18.162583326341235,19.455992060016683
60.0,19.846483510393597,20.245224013024966,20.189196791015604,20.17657714794919,18.77793947924434,19.880339024057662
61.5,20.376704297142,20.65477887252254,20.685865726743316,20.664353375063342,19.525850318282437,20.403083612827885
63.0,20.942217433185476,21.09237009913025,21.24787936618634,21.252635056787113,20.42877185748472,21.003183149559874
65.0,21.512835208849253,21.569180650190248,21.899405554176212,21.963430719195372,21.389212684849156,21.672644633001198
67.0,22.154992104513354,22.074262073931123,22.642500708704347,22.67044161052138,22.445582842299928,22.404440620237608
69.0,22.795738850955388,22.674262073931118,23.399199079867117,23.49987275317102,23.544612864306174,23.198356048026227
71.0,23.445224013024955,23.31434996022108,24.199199079867128,24.329241263733962,24.64763178478853,24.017808311431736
73.0,24.166611283240655,24.014349960221068,25.047411671431348,25.17976373452089,25.692717710910387,24.866389592186266
75.0,25.00224217955366,24.800789313336963,25.90890446059143,26.013764723221527,26.64429395422428,25.72739118013166
77.5,25.905101280294957,25.655202187069392,26.727867347749992,26.81048161620376,27.467771717826196,26.562786676380597
80.0,26.80580780138382,26.544544071562427,27.572277988763915,27.569879791076147,28.131660821409383,27.36265618150918
82.5,27.74028891144522,27.464736675280705,28.355180647939477,28.20952026844813,28.637092040398954,28.101849832560674
85.0,28.70224217955368,28.35247463060776,29.09364705542683,28.89043939640274,29.028788942742153,28.8215876664203
87.5,29.59817915227535,29.214020458307488,29.817463629548058,29.52987317703679,29.44652519565281,29.525666830007992
90.0,30.489727369601695,30.012491471413682,30.554363758671286,30.168046323272847,29.939282174061958,30.23990240527695
92.5,31.320063130557543,30.77915944713314,31.324054401723316,30.868046323272864,30.55529018081458,30.980077424903953
95.0,32.182205376925026,31.5799210289382,32.14919462601591,31.60860198977477,31.362242187372033,31.788963838970403
97.5,33.08070021203298,32.379921028938185,33.03473903220629,32.44741162321327,32.23381824960899,32.64968507593369
100.0,34.013264833306124,33.21249147141367,34.062322236647674,33.328496865436364,33.20440011956373,33.581834546952564
103.0,35.04633711470879,34.07915944713315,35.16166680962684,34.25017401748056,34.13651679288725,34.56044980990035
106.0,36.21628694520726,35.0799210289382,36.41823329736286,35.27813669261516,35.00606179109573,35.64121639818893
109.0,37.48220537692501,36.25088768791787,37.71823329736287,36.44909923051853,35.81668597810784,36.80567098963027
112.0,38.882205376925015,37.655435906976436,39.132414081883724,37.84083427897883,36.580887970684756,38.113280486958615
115.0,40.414020458307476,39.25543590697646,40.6462274809474,39.406559481834734,37.50413054486327,39.579011187064026
118.0,41.97992102893818,40.95543590697645,42.14622748094743,41.06248290026761,38.72171260764193,41.12941024170212
122.0,43.612491471413676,42.68601129970807,43.63208411611413,42.811216360857316,40.29292679338104,42.760748342193324
125.0,45.179159447133145,44.41707762812254,45.13142410935555,44.44663185352542,42.02940531384098,44.37737792627314
128.0,46.71249147141367,46.017077628122536,46.63142410935558,46.04166649913148,43.816879583510826,45.95921075727432
132.0,48.145569620253184,47.54863919129568,48.03142410935553,47.556970733161336,45.62089201691708,47.468324992015226
136.0,49.54556962025316,48.94863919129568,49.43142410935556,48.99320714404388,47.43865615446663,48.93259050693911
140.0,50.84556962025317,50.31402045830748,50.77437677699845,50.409520268448134,49.36096315110095,50.372014414541695
145.0,52.11249147141366,51.54633711470878,52.060652762692,51.726215598039076,51.38707081281771,51.77576806269096
150.0,53.246337114708794,52.646337114708786,53.275364617812215,52.84603013320233,53.39442927940249,53.09098348284596
155.0,54.34863919129569,53.58070021203301,54.43734712699943,53.74696173650079,55.153223701861194,54.28980741487331
160.0,55.35247463060776,54.18839992497291,55.554715513311436,54.23561367221764,56.32810920551094,55.20913615438664
165.0,56.39133681463787,54.80224217955367,56.67497638716944,54.57902340265525,56.62033755936045,55.90862365995207
170.0,57.52776929357621,55.822197602792215,57.78481237747309,55.377744735117574,56.205904872918325,56.64819285241988
175.0,58.69133681463785,57.05520218706937,58.8655538542676,56.581151515384335,55.54214473651729,57.52958824144564
180.0,59.652474630607756,58.14454407156242,59.80592273848514,57.87302317459192,55.32285143145461,58.4324676546656
185.0,60.41707762812254,59.006534762624995,60.57732475887222,58.93047603696064,55.77151354389501,59.240635853081486
190.0,60.98601129970808,59.635398186987885,61.1478643871901,59.68282666459636,56.792596807152606,59.898291174111634
195.0,61.42166137474538,60.0647366752807,61.650464613989385,60.20801927356442,58.0396303819752,60.45357646471939
200.0,61.821661374745375,60.36473667528071,62.08094048644304,60.582343495029164,59.37166642834529,60.95674429250235
206.0,62.29133681463786,60.67315681308909,62.60048722410603,60.80639592869201,60.70032945143922,61.499236082602664
212.0,63.02776929357621,61.19455321176159,63.300487224106035,61.19167470569553,61.66349843687341,62.1723795986798
218.0,64.19133681463785,62.340634200611476,64.32405440172333,62.02161880866463,61.55706307610342,63.04048250087436
224.0,65.28601129970808,63.72776774815371,65.3356680228272,63.24476147954526,60.29273657483495,63.92129190120242
230.0,66.21707762812255,64.84454407156242,66.20592273848513,64.44164790445268,59.73892384222553,64.80955357679636
236.0,66.88601129970807,65.5647366752807,66.92405440172334,65.31205119942213,61.24130422049687,65.5959925676483
240.0,67.25784140340934,65.7647366752807,67.44683098991223,65.57499771197007,63.64197402398108,66.14214228025995
250.0,67.51639932309615,65.30751829589082,67.93678546990333,64.91020355764157,65.34892390209087,66.39123602563403
258.0,68.406534762625,65.98815235688332,68.73404179952831,65.07289874889801,65.1041390186837,66.95923092236686
265.0,69.32166137474537,67.54063420061145,69.43566802282723,66.7241033974617,63.65184570859276,67.78635043422211
272.0,69.51707762812255,68.14454407156242,69.5913142102634,67.56847163256346,62.84922560275078,68.09055421751195
280.0,69.2216613747454,67.77315681308909,69.36555385426759,67.40485969262629,62.88048303172502,67.84348879361809
290.0,68.7353981869879,66.88309739325345,69.12159172133983,66.63738538724803,63.04936912820136,67.34797019329326
300.0,68.71639932309614,66.4219859175747,69.23678546990332,65.96435102527509,63.34479963721384,67.21406732159966
307.0,69.3887178813475,66.76389506210288,69.84844590325719,65.9389666627201,63.68888944703454,67.68704999029892
315.0,70.40653476262499,68.06389506210289,70.73404179952831,66.99193238906096,63.52431651734781,68.63080944713482
325.0,71.12776929357621,69.15499210451335,71.35920902632199,68.18572674849102,62.95108935543375,69.38819686983399
335.0,71.10653476262499,69.00751829589083,71.37240417338278,68.10051528167726,62.937437266092104,69.34492209319644
345.0,70.71639932309616,68.3219859175747,71.19643175413502,67.43183398948807,63.04591193542876,68.95561916325545
355.0,70.606534762625,68.35499210451337,70.95625928327948,67.33982779279872,62.46915409565443,68.80749485855331
365.0,70.36906647091297,68.3344550918032,70.66498365267515,67.47323743442644,61.66450198973993,68.62276941855356
375.0,69.81639932309614,67.72219760279222,70.17240417338277,66.97185298647453,61.62677159768927,68.10816989132475
387.0,69.46736700714212,66.9344550918032,70.04499255207514,66.28328837987559,61.45044722642376,67.71332459560693
400.0,69.61434996022106,66.70556923770307,70.24499255207516,65.9511011626243,60.84841245114697,67.71825762914207
412.0,69.81434996022108,66.84820312564086,70.37314982770219,66.06190287757025,60.36698902641419,67.845438856803
425.0,69.45499210451337,66.63130877674286,70.13900821831652,65.94284328392342,60.09807672475131,67.58937488167832
437.0,69.07083415954163,65.8422174331855,69.89923349805463,65.00187618933037,60.2485969738798,67.14432641670172
450.0,69.24591074965144,65.54337946407173,70.0663317318764,64.55218705148923,59.53872912453406,67.14252288379572
462.0,69.8042298962615,66.2754791941046,70.54900561016163,65.32274254755424,58.54101053765365,67.6744402418298
475.0,70.62939296192911,67.15478102745719,71.32197019072889,66.1221772108556,58.59244488536534,68.46697024471783
487.0,71.31434996022108,67.8819505006446,71.87314982770219,66.75200099770178,59.353629504182976,69.1022690440237
500.0,71.54063420061146,68.2547810274572,72.09643175413503,67.16170185002011,59.3826897736773,69.36747285156677
515.0,71.54818117920682,68.01049997366411,72.20525516766807,66.9476516553836,59.311869145853365,69.34791826363562
530.0,71.3631076526525,67.33627740091933,72.08860332495198,66.16399215789768,59.68084550063659,69.06781631157742
545.0,71.30422989626152,67.33594846073035,72.04900561016163,66.19477135532753,59.19380914400611,69.02446418058751
560.0,70.87949794839885,66.99006621445025,71.64445619823894,65.84160992686954,58.61449628526758,68.62294090487876
580.0,70.08167670002666,65.78728914356293,71.08457009079015,64.75166943106782,58.61648428684502,67.8577327678039
600.0,70.06195732338324,64.99442097942622,71.11703455493036,63.758764281594836,58.258889425357424,67.67614480474921
615.0,70.48310155602222,65.49442097942624,71.57085401480145,64.26301157192788,56.58963294442168,68.08921132036741
630.0,71.0930086111205,66.12962423600258,72.06470757525331,64.88114326478177,55.47244388125412,68.63082161084235
650.0,70.68310155602221,66.11834636514003,71.71703455493034,64.76541916808928,55.557919008352954,68.32498552629168
670.0,70.68310155602221,66.11834636514003,71.69825420241855,64.89545252866037,55.557134805022145,68.32842300158079
690.0,71.20463225682825,66.97547919410461,72.30606283558372,65.78683703028004,55.87764609154323,68.96127972642955
710.0,71.78310155602222,67.05880536428451,72.879347399872,65.84216130805218,56.41245320539798,69.42897818636371
730.0,71.53445825563969,66.37313596171009,72.76952214430844,65.10169758898618,56.14418796618649,69.15360137434982
750.0,71.63445825563969,66.51688713459059,72.96952214430844,65.38425409609877,56.71360918900491,69.32381327667672
775.0,71.96221552355779,66.56796119457778,73.38886625359751,65.34476865079752,57.10214231996217,69.63855746516509
800.0,71.93445825563968,66.64905543516377,73.40688442302884,65.37983500237391,56.24106432328065,69.63965357230398
825.0,71.6051634763725,65.74967878663914,73.25351717145077,64.6320068646404,55.82030301962192,69.31142854996729
850.0,71.91049997366412,66.59109295193844,73.60688442302884,65.7657011487481,55.401034950421206,69.74520906174966
875.0,71.77168571192325,65.99442097942622,73.52977248643666,65.20393432059407,56.14456700811817,69.56939501573521
900.0,71.69006621445024,66.26638856579373,73.36990083714797,65.49271782488462,55.745974181681376,69.50699627622834
925.0,70.67346969378445,64.3825942017034,72.6118930854029,63.35489310070814,55.28866380630383,68.47210522216236
950.0,69.89407550143986,63.34905543516378,71.84606041755464,62.27043358351813,54.41190318366522,67.66133003391552
975.0,70.09407550143985,63.38850454595473,71.98339369490779,62.27152184046368,53.299092107377376,67.79456506161237
1000.0,70.05551569732489,63.91748764931876,71.89071452543565,62.98458920293713,52.84719172653196,67.81456259919258
1030.0,70.4428055645686,64.27183449775404,72.35406549602158,63.39407436246093,53.280035288750796,68.23999394708544
1060.0,71.51000642528405,65.31801955254652,73.48339369490779,64.5508115924391,54.50875388950732,69.34460258311105
1090.0,72.6784505468184,66.23243389983165,74.6988447923973,65.35089891403402,56.29257169949548,70.49893201893498
1120.0,72.39407550143987,66.08722250189811,74.51911027264353,65.0029751529989,54.801409906317076,70.26866604631054
1150.0,71.24280556456858,65.19109295193843,73.30965753410996,64.09997567941609,53.22023908598295,69.11958017807339
1180.0,70.34198005081942,63.43244624850192,72.65548421734245,62.256219813347286,52.99000486289944,68.2392649669062
1220.0,69.54967878663915,63.163896723123514,71.69600493904565,62.0524047957731,51.75610024415471,67.42230010181977
1250.0,69.16355702974334,62.47102382395191,71.21911027264352,61.579646489060565,51.849734021014285,66.96305204190062
1280.0,68.78689948232943,61.84308711866514,70.84287813203315,61.2133733191785,51.2477596492276,66.56847612443181
1320.0,68.74782168986997,61.86221829010607,70.73203696651024,61.05743189140718,50.7829425582466,66.48593937274441
1360.0,67.46355702974334,60.85539459979698,69.63203696651024,59.83431112051093,49.61977403309996,65.32396081196735
1400.0,66.83352460799618,60.41395711152015,69.11911027264352,59.57261256962178,49.87887231402004,64.79750220394214
1450.0,66.62508440309168,60.29688721606142,68.68060579055938,59.062119783934165,48.90606638785795,64.45033714587545
1500.0,66.2095708130873,60.049898742751736,68.30518951102327,58.69514010438343,48.88474884889263,64.07431482639865
1550.0,66.45729937435475,60.32655452575996,68.34496844199661,59.070544244018464,48.30641079456632,64.21849476177417
1600.0,66.89762962510923,60.74337946407172,68.78601934760846,59.78141120596631,47.23193359456249,64.66778217009882
1650.0,66.81154363886235,60.07865899702395,68.91154659253036,59.09660602278494,47.124497778876304,64.61325175559114
1700.0,67.01062973351276,60.30879466810917,69.31270291408205,59.20706439211301,46.84107341419488,64.91798392012862
1750.0,67.31062973351274,60.3768870358107,69.74172826852222,59.30110744253605,47.654433901725525,65.26504859395338
1800.0,68.22684831353232,61.9247240869651,70.619214360163,60.53769510894418,47.62572262433966,66.21751413934808
1850.0,68.90358258578095,62.85279668930889,71.3964090161003,61.4298938529423,49.41190586735499,66.98402123324209
1900.0,69.51695442911219,64.28550872155652,72.34848434834221,62.74026301457735,50.58353914263961,67.89536165986127
1950.0,70.33244415720748,64.93378593744525,72.71388040741809,63.51764597282329,51.444564186826526,68.44821861277559
2000.0,70.40684442573236,64.87102382395192,72.47574255475283,63.84541987011134,52.09880716193257,68.36599492332859
2060.0,71.05494791090372,65.1768611006417,72.62795288752586,64.3327525182619,53.16677573788934,68.72471186855778
2120.0,71.06212781202487,64.65896993889147,72.54282975542864,63.62033137419729,52.8214907319022,68.59093186702749
2180.0,70.15494791090374,63.79377035808382,72.12184893962457,62.83518708337412,51.54415737997597,67.94099914541411
2240.0,69.21858171269727,62.50195461422217,71.85068944414868,61.69975476732438,50.4900762153969,67.32982999120047
2300.0,69.20474835881845,62.46447942167012,71.93997709905281,61.66611988281866,48.28017106078869,67.36505498916185
2360.0,68.39937881652588,61.70325089847269,71.73486772569076,60.90107203965799,47.70224351921095,66.9191808568471
2400.0,68.11154363886233,62.10079297013927,71.4056553634269,60.9792314963573,44.75246801650155,66.66526458405144
2500.0,67.61767987824653,61.815232953821564,70.89531339021407,60.44270063635673,43.71559218569334,66.17357066254496
2580.0,68.00357766794659,62.2743075271934,70.8818954888427,60.57564440116337,43.66559990058391,66.31839285094598
2650.0,67.86760871932395,61.384783274850875,70.55473449832374,59.4586057437585,45.76754041592994,65.97227957035904
2720.0,68.43679152467801,61.134377887736434,70.52647360227887,59.52764034077401,47.34954741791552,66.13116439502365
2800.0,67.92261153652177,59.81170579417615,70.07475274403981,58.989245689460446,48.13401497700238,65.60785285555228
2900.0,68.72954911727902,59.992625922350825,70.74317395336055,59.944572278078965,48.79873700270366,66.31271779804348
3000.0,69.26408512225264,61.16178943608031,71.29846845767324,60.62057172554111,48.62865624558924,66.89475688970367
3070.0,69.68155634362466,61.815826406010856,71.8385929902276,61.35023998560567,48.8693888610627,67.40749922935008
3150.0,70.51695442911222,63.46261308583708,72.66491174143438,62.81589960598453,48.95257745553056,68.31814205484626
