Freq "Floor Bounce"
22.4 9.044925720569694
23.0 9.528549475751447
23.6 9.968705299591363
24.0 10.452060004856065
25.0 10.852997998781547
25.8 11.273698327185315
26.5 11.643635488454976
27.2 11.998708021686923
28.0 12.383398162303479
29.0 12.710488199242462
30.0 13.045524548243833
30.7 13.427503444342705
31.5 13.78983997194365
32.5 14.219705448316489
33.5 14.715673244497594
34.5 15.238628216742057
35.5 15.938125201076645
36.5 16.71824913192239
37.5 17.66519930445574
38.7 18.991380164581955
40.0 20.711584733740068
41.2 23.194308698115634
42.5 26.763480322380985
43.7 30.553929099935317
45.0 30.840503458374286
46.2 29.010660977433275
47.5 27.65872457742296
48.7 26.87131751433742
50.0 26.503638215463894
51.5 26.372835933570485
53.0 26.493707773530048
54.5 26.74347039029351
56.0 27.02312034399381
58.0 27.47436617787406
60.0 27.90091389014043
61.5 28.43113467688883
63.0 28.99664781293231
65.0 29.567265588596086
67.0 30.209422484260188
69.0 30.85016923070222
71.0 31.499654392771788
73.0 32.22104166298749
75.0 33.056672559300495
77.5 33.95953166004179
80.0 34.860238181130654
82.5 35.79471929119205
85.0 36.75667255930051
87.5 37.65260953202218
90.0 38.54415774934853
92.5 39.374493510304376
95.0 40.23663575667186
97.5 41.13513059177981
100.0 42.06769521305296
103.0 43.100767494455624
106.0 44.27071732495409
109.0 45.53663575667184
112.0 46.93663575667185
115.0 48.46845083805431
118.0 50.03435140868501
122.0 51.66692185116051
125.0 53.23358982687998
128.0 54.766921851160504
132.0 56.20000000000002
136.0 57.599999999999994
140.0 58.900000000000006
145.0 60.166921851160495
150.0 61.30076749445563
155.0 62.40306957104252
160.0 63.40690501035459
165.0 64.4457671943847
170.0 65.58219967332305
175.0 66.74576719438468
180.0 67.70690501035459
185.0 68.47150800786937
190.0 69.04044167945491
195.0 69.47609175449222
200.0 69.87609175449221
206.0 70.34576719438469
212.0 71.08219967332305
218.0 72.24576719438468
224.0 73.34044167945491
230.0 74.27150800786939
236.0 74.9404416794549
240.0 75.31227178315618
250.0 75.57082970284299
258.0 76.46096514237183
265.0 77.37609175449221
272.0 77.57150800786938
280.0 77.27609175449223
290.0 76.78982856673473
300.0 76.77082970284297
307.0 77.44314826109434
315.0 78.46096514237182
325.0 79.18219967332304
335.0 79.16096514237182
345.0 78.77082970284299
355.0 78.66096514237184
365.0 78.4234968506598
375.0 77.87082970284297
387.0 77.52179738688895
400.0 77.6687803399679
412.0 77.86878033996791
425.0 77.5094224842602
437.0 77.12526453928847
450.0 77.30034112939828
462.0 77.85866027600834
475.0 78.68382334167595
487.0 79.36878033996791
500.0 79.5950645803583
515.0 79.60261155895365
530.0 79.41753803239934
545.0 79.35866027600835
560.0 78.93392832814568
580.0 78.1361070797735
600.0 78.11638770313007
615.0 78.53753193576905
630.0 79.14743899086733
650.0 78.73753193576904
670.0 78.73753193576904
690.0 79.25906263657508
710.0 79.83753193576905
730.0 79.58888863538652
750.0 79.68888863538652
775.0 80.01664590330462
800.0 79.98888863538652
825.0 79.65959385611933
850.0 79.96493035341095
875.0 79.82611609167009
900.0 79.74449659419707
925.0 78.72790007353129
950.0 77.94850588118669
975.0 78.14850588118668
1000.0 78.10994607707173
1030.0 78.49723594431543
1060.0 79.56443680503088
1090.0 80.73288092656523
1120.0 80.4485058811867
1150.0 79.29723594431542
1180.0 78.39641043056625
1220.0 77.60410916638598
1250.0 77.21798740949018
1280.0 76.84132986207626
1320.0 76.8022520696168
1360.0 75.51798740949017
1400.0 74.88795498774302
1450.0 74.67951478283851
1500.0 74.26400119283413
1550.0 74.51172975410158
1600.0 74.95206000485607
1650.0 74.86597401860918
1700.0 75.06506011325959
1750.0 75.36506011325957
1800.0 76.28127869327915
1850.0 76.95801296552779
1900.0 77.57138480885902
1950.0 78.38687453695431
2000.0 78.46127480547919
2060.0 79.10937829065055
2120.0 79.1165581917717
2180.0 78.20937829065058
2240.0 77.2730120924441
2300.0 77.25917873856528
2360.0 76.45380919627272
2400.0 76.16597401860916
2500.0 75.67211025799337
2580.0 76.05800804769342
2650.0 75.92203909907079
2720.0 76.49122190442485
2800.0 75.9770419162686
2900.0 76.78397949702585
3000.0 77.31851550199947
3070.0 77.7359867233715
3150.0 78.57138480885905
3250.0 79.41903234364801
3350.0 80.20704003632973
3450.0 80.53673636169648
3550.0 80.37065144323962
3650.0 78.7546341424601
3750.0 77.8026382005589
3870.0 78.25860961172029
4000.0 78.8600462300634
4120.0 79.40015663892764
4250.0 77.92831837467519
4370.0 77.21556468974543
4500.0 78.2257667435364
4620.0 80.73790067592333
4750.0 80.90949301215736
4870.0 80.7370488542527
5000.0 80.7145765983916
5150.0 80.07780895720774
5300.0 76.49636248642422
5450.0 78.83690963714626
5600.0 78.54066805894
5800.0 77.63088119339842
6000.0 77.51224384837074
6150.0 79.37731026743901
6300.0 78.49898396407431
6500.0 77.14482181533936
6700.0 77.85597503611525
6900.0 80.54724754949477
7100.0 80.03645271781909
7300.0 77.29652510672202
7500.0 79.17404084094025
7750.0 81.60350981815938
8000.0 80.81028772419103
8250.0 81.73638088039144
8500.0 79.3001832490481
8750.0 78.62294362715998
9000.0 78.72812420384774
9250.0 77.87095906309065
9500.0 75.38126600255526
9750.0 75.97158989436596
10000.0 76.86111575043927
10300.0 75.0496220274544
10600.0 73.63249027941693
10900.0 73.18228831072346
11200.0 70.62718439639859
11500.0 73.46455411461896
11800.0 71.97133782108855
12200.0 73.60539742857684
12500.0 72.30967606994312
12800.0 72.72100182927416
13200.0 68.6860702606402
13600.0 69.21937281261575
14000.0 67.00807851055698
14500.0 72.19355526342689
15000.0 69.01936857456974
15500.0 71.73638088039144
16000.0 69.7261160916701
16500.0 67.84915539895499
17000.0 63.97054430894828
17500.0 67.58574913891937
18000.0 64.60316376986722
18500.0 66.32673328105511
19000.0 66.00263820055889
19500.0 68.35374816470485
