Freq,Floor Bounce,Ceiling Bounce,Front Wall Bounce,Side Wall Bounce,Rear Wall Bounce,Total Early Reflection
22.4,11.318767143091534,7.007301173995117,11.670896135171617,9.677690726906789,8.0844633268933,9.910386511737684
23.0,14.135909968207628,10.398633360475529,15.102537925835819,11.312596420217844,9.169777016220664,12.60289693922742
23.6,17.02734000258006,14.49595481075771,17.640836234022927,14.224280519487124,11.593351033672903,15.5038216328971
24.0,20.514680774860025,18.540697685138795,22.306494541643914,19.42132806205926,19.02169895824578,20.182653443245968
25.0,22.802323975605802,20.90621909456722,25.403953468806506,23.19534502926153,22.740641545668367,23.253387546614974
25.8,24.339271128791736,22.447474079626616,27.61810162888331,26.73519193856687,25.09469295817634,25.61070618487112
26.5,25.559148063657844,23.51382503276143,32.12823102956615,31.215234416009892,29.738673002316816,29.524187544423924
27.2,28.274328907220863,26.67842332646144,33.92858978011391,33.22363906745265,32.284192213848385,31.703327272162326
28.0,30.639094885220672,29.592374597451297,34.46892878742766,33.56786126875035,33.472476731473634,32.725745650798004
29.0,32.27919376898849,31.863074747126277,34.87005385416553,32.21777512302704,33.68219429577728,33.13695226961822
30.0,34.03647156711703,34.06885892756664,35.68277575744814,34.45420975827007,33.66986558484099,34.44125683606343
30.7,37.91030895997544,37.257743684506934,39.59325369269634,37.589376141818335,36.4975152128428,37.89714585530457
31.5,40.93645142703524,39.407550318442205,41.81819472796944,41.29099995765036,39.39000944153862,40.680496480279956
32.5,43.44816051387109,41.17668835407174,43.69586937355005,44.360752291763404,41.58836124227453,43.02607061718324
33.5,46.07280170940324,44.232457967942835,46.21635094144959,47.051760039523046,44.569002086289046,45.75609683250592
34.5,48.04267996118121,46.74456342770152,48.17794439277212,48.63270433642471,46.30686382119508,47.67046080380318
35.5,49.56670539949512,48.63886698263168,49.689179718965434,49.37596052336231,47.150373499814506,48.97838874446326
36.5,52.09596779479021,51.186650351137715,52.67919961095684,51.7798344406077,49.59013683089866,51.58615604005378
37.5,54.21616623018657,53.27660457717353,55.24110433688419,54.23733318060938,51.73101894604814,53.892383976679824
38.7,56.505260865270756,55.01056377144677,57.51195904912207,56.54909285859766,53.68262673029896,56.04952170827433
40.0,59.43738446539159,57.030210995840136,60.11141230768207,59.23030707592547,56.29256958801879,58.66004030547485
41.2,61.618152203477806,58.668914431988824,62.27515611863096,61.450345833857554,58.308943656435886,60.75549139173707
42.5,64.21905550537254,61.20665724562325,64.6039683361024,63.85374026220889,60.540328804800836,63.18479394821573
43.7,66.68710722832164,63.90913345208362,66.68430041631011,66.10838982166128,62.57528669442259,65.48386772589454
45.0,69.06422897207183,66.57542059315311,68.6178251460773,68.14424215421913,64.77446228467115,67.6946252741093
46.2,72.10085517512194,69.8786607259136,70.76941562355796,70.38963290902008,67.99523701321858,70.42381266973409
47.5,74.52641552204656,72.50264050980762,72.78266289893104,72.50623044330077,70.7191390519207,72.77550858585367
48.7,74.69596779479022,73.01808127212932,75.24759446676559,75.45509224329732,74.30653606477405,74.6260997299424
50.0,74.21808431472208,72.79206585135165,77.12027884436536,78.08619083580005,77.25391092158739,76.3236649610844
51.5,78.15266531161693,75.7778198055683,78.79214428742682,77.76498535123284,76.3252821479107,77.50629011453456
53.0,80.7542129620781,78.13296357972172,80.36085403154115,78.31219068384702,76.00386202569244,79.0344956983142
54.5,82.3204588132579,79.58883444530262,82.14815195466423,79.94249906245665,76.6430350461249,80.5723317635302
56.0,84.04932223762079,81.34357048387551,84.04074666322241,81.78794544603076,78.26150536942392,82.36445955823147
58.0,86.17542059315313,83.50847726239448,86.33307295657113,84.1994395743696,80.81782026173896,84.63110362420629
60.0,88.14169334420912,85.50847726239449,88.3916062319377,86.29180088017345,83.08700452960527,86.67867993759474
61.5,90.04932223762079,87.50847726239449,90.31441127473894,88.2570790522166,85.35918611435288,88.64851536834799
63.0,91.81210320290825,89.16912623770227,92.01441127473895,90.00913426211534,87.30781536785075,90.39328651607433
65.0,93.21210320290824,90.56912623770226,93.41441127473895,91.48387982806786,88.96405675967914,91.83285001065265
67.0,94.24932223762079,91.66912623770227,94.41441127473895,92.59226008766463,90.5504399341655,92.94197649060382
69.0,95.04169334420911,92.55846812219532,95.21441127473895,93.5421405183757,91.98894205243693,93.85924081609072
71.0,95.64169334420912,93.22538213148293,95.82478083088158,94.34801571226875,93.1948257879477,94.59370260902814
73.0,96.07176545404225,93.81616623018655,96.22153743087853,95.020663016011,94.38380453717868,95.20246011374455
75.0,96.43558542537828,94.21616623018657,96.50624517463962,95.53413468584563,95.16664343322559,95.65293286732823
77.5,96.59993535034098,94.41616623018656,96.66178843782299,95.81176326441233,95.62182718892545,95.8956922555082
80.0,96.76639868124064,94.61616623018658,96.86178843782298,96.04981714028797,96.01338739854661,96.13195637073385
82.5,96.99993535034098,94.88708086372198,97.14698296980647,96.36869978269014,96.52880366674817,96.45573212175104
85.0,97.39993535034097,95.12538213148294,97.51789951592669,96.71176326441234,96.98497120776908,96.8271290898558
87.5,97.66935995760936,95.32538213148294,97.81789951592668,96.93413468584562,97.22094190966327,97.0783751060956
90.0,97.83558542537827,95.43612165342512,98.01789951592669,97.08019555209847,97.26350107950937,97.21609250339817
92.5,97.83558542537827,95.30847726239448,98.0324655882631,96.98937832497329,97.03027952730497,97.13888841407596
95.0,97.60526086527075,94.94837914243611,97.80328442508336,96.69626754566205,96.48168416654657,96.8192493372182
97.5,97.46935995760937,94.78883444530263,97.68895433944198,96.54585436737598,96.08485409327842,96.63577008989424
100.0,97.80526086527077,95.05455825124437,98.01691816224422,96.86805131207934,96.08768739568377,96.90081092754868
103.0,98.06935995760935,95.29495630223289,98.25949367088606,97.1881967246318,95.96252016910908,97.1053060441328
106.0,98.10526086527075,95.36214817428946,98.31691816224422,97.30607292310519,95.75453481249453,97.13137571486108
109.0,97.96935995760936,95.19495630223288,98.24534815998842,97.3219433241973,95.5329186242373,97.02802945938114
112.0,97.70526086527077,94.83590996820759,98.07424898617818,97.1764069509005,95.25463106696965,96.80006121625878
115.0,97.41210320290823,94.5101149509897,97.8169181622442,96.86036896178477,94.55099964259327,96.45221511071726
118.0,97.18299052154588,94.11011495098971,97.63115642480497,96.71669735740822,94.2826495742102,96.22751679188438
122.0,96.9204588132579,93.75187265898407,97.43115642480497,96.51102998443679,94.2272586367106,96.01044950721156
125.0,96.69206585135164,93.32675925948217,97.31789951592668,96.31102998443679,94.13675438940355,95.81639592169067
128.0,96.60264193198041,92.91244903876385,97.261788437823,96.13812357914827,94.08032882623127,95.6869161939443
132.0,96.51471336396985,92.56447035765413,97.21984678911802,95.96194594752207,94.02036306874355,95.57001984096696
136.0,96.35455825124436,92.20864571087436,97.19124880950513,95.80818095273128,93.92654369230787,95.44041905626041
140.0,96.22827401085397,91.87605186265777,97.13474489731064,95.6766450345158,93.78031548335046,95.31209087318386
145.0,96.14331701256201,91.53194616296251,97.13474489731064,95.60136727092855,93.54323262672555,95.21150009075808
150.0,96.09342199903175,91.2046988318799,97.13474489731064,95.52860218963063,93.25487826614336,95.11738291084318
155.0,95.99342199903174,90.91224361302966,97.13474489731064,95.51122428765224,92.9687038880331,95.02887089574573
160.0,95.91126804623347,90.5418001704545,97.13474489731064,95.45359863856395,92.75361045435422,94.94123394605786
165.0,95.80755031844222,90.07272941491739,97.13608344410436,95.45359863856395,92.54849477701065,94.85876762653734
170.0,95.65129182766013,89.638648137598,97.09486453707592,95.36859131758806,92.39725262445407,94.74091381184658
175.0,95.55169414240179,89.00987976916865,96.99873642810599,95.06859131758806,92.04694950889719,94.53682425550805
180.0,95.37588137401612,88.47095265131155,96.88890043780232,94.421781809184,90.99801863796681,94.17076485836853
185.0,95.37588137401612,88.3677707774557,96.99873642810599,94.4872186492665,90.76791136292952,94.19916465234395
190.0,95.43473190883356,88.08280284907619,97.19873642810596,94.97057481575929,91.99754182832008,94.5055025718366
195.0,95.48961544310261,87.6204073129939,97.3531595718539,95.18694722522481,92.67471405258365,94.68551672619691
200.0,95.5190875270054,87.13619245963574,97.52478083088158,95.35722119663161,92.9648757534741,94.81416261216141
206.0,95.482796352287,86.54371247093873,97.56863956394434,95.29507556601723,92.78033729488511,94.76534853380119
212.0,95.34787626322509,85.86213388295018,97.59873642810598,95.33130203631157,92.22567232343316,94.6677196763493
218.0,95.0025147019615,84.68790179280256,97.49873642810597,95.29038515500595,91.54164328446957,94.43647246033875
224.0,94.46438715209463,83.15832197416648,97.21955303946518,94.79417267769564,90.4074119353326,93.94042054546583
230.0,94.10761464940504,81.65590812613058,96.90278727862206,94.0548777941461,89.21686987418438,93.42465517813697
236.0,93.82787046865094,80.3432054096142,96.77473202517166,93.53175988260843,88.15790887993751,93.09225837082208
240.0,93.86265744075328,79.69549015339975,96.85816609784953,93.448682315998,87.51056974444616,93.07662554186047
250.0,93.94104464589562,79.22296682456731,97.01070849399956,93.6921421081609,87.50555314884595,93.2176130170432
258.0,94.0891604715829,78.86352227109595,97.24796585016121,93.95562301867754,87.23327737704854,93.40940262505156
265.0,94.01895700802187,78.29042794678774,97.42728530633086,94.50707804037717,87.0423845504292,93.5981500105858
272.0,93.8431788694324,77.94181344005042,97.43797845235623,94.89053412833492,87.32927758488987,93.6746645369313
280.0,93.39668104330705,77.74397746822642,97.32309145150107,95.03554285929751,87.95005065799644,93.60083024114947
290.0,92.76963981781135,77.5723999459651,96.99316347797637,94.8005183393254,88.25572890199821,93.28089710494554
300.0,92.22305874546682,78.16075637541903,96.61201331156734,94.33094709981155,88.1981799809409,92.87292791067246
307.0,91.65723435785124,78.88283245820747,96.27313307695486,93.77169173470132,87.81648357907541,92.440057647307
315.0,91.09664315262553,79.41588384172421,95.91070849399954,93.17169173470133,87.4260304151671,91.98838036185319
325.0,90.65825962004165,80.01997543437847,95.65891660270805,92.45697825627425,86.70724785655655,91.56776780960938
335.0,90.48846928021196,80.51248206459152,95.73040421873452,91.73909539432526,86.15564147641449,91.38500941905839
345.0,90.76738973382223,80.69968722624516,96.3082754901765,91.73746412996462,86.25573082576433,91.76025226544613
355.0,91.36618129761851,81.41520948502983,97.04096645919338,91.99382103210486,85.96745819575877,92.32759705734802
365.0,91.5982295857482,82.36893320753835,97.5082754901765,92.17704713386978,85.48269810876282,92.67442670788976
375.0,91.13183858037044,82.87141493841962,97.26292966079453,91.81877242323141,84.66159382628278,92.36977756339617
387.0,89.85261702241598,82.37862297546967,96.34096645919338,90.72103783563357,83.07117613867742,91.3540047565674
400.0,88.39982932305627,80.74582607767775,95.19144752932918,89.34465534230236,81.49785482872127,90.09999187599315
412.0,87.86192949336542,81.0041361326988,94.93689567829742,88.90555585800564,80.2331157440225,89.76500573247505
425.0,88.11901786174042,79.41372034087894,95.41872570888906,88.5037863539393,78.01608814922794,89.99139602012869
437.0,88.43888522248844,79.61082463131338,95.98782590422492,89.05451034968326,77.98981639921742,90.51285186282642
450.0,88.29671642539024,80.31127112351714,96.05838024887186,89.4404947965411,77.3836745781038,90.6083541212585
462.0,87.69410811253856,80.67972043724355,95.70827549017649,89.43510815422368,76.74985928023328,90.29608817565754
475.0,87.02044892791962,80.31146684334155,95.25838024887186,89.23943576745343,76.4194938216094,89.86799579630467
487.0,86.79407655890718,80.59512604615959,95.08509789371746,89.05228085627549,76.51182457258007,89.69998435192379
500.0,87.06891514502867,81.38280284907617,95.41690570210856,88.92989625630432,76.98013391188017,89.96431797818359
515.0,87.55327505791749,82.47072651833159,95.9932714505049,88.82042680436236,77.57609283240951,90.4455590765274
530.0,87.74137796033963,83.68138050010818,96.44793866481446,88.33459993522526,77.9310400527395,90.78101581659364
545.0,87.33779197529897,84.63032750469958,96.61081005658154,87.81414891105256,78.03473858927606,90.85115781151983
560.0,85.9041017640214,86.41528314491923,96.09034388216725,86.32275809225573,76.58503524467652,90.30728810647265
580.0,84.1727869870709,84.66142879122324,95.33064407014552,83.4094726471099,76.91427957810919,89.27855052667964
600.0,83.8086870124378,77.73400281584442,94.34169011694036,81.1832551417234,80.10960498526153,88.1305787450524
615.0,81.48149303790716,73.75227645255174,91.84237204128937,80.36105259721033,81.58711366693171,85.90075630247921
630.0,83.21553252091577,81.12675925948218,92.60295330766017,83.95011119863855,84.07705690734907,87.26603829239723
650.0,82.79162189941363,84.56870692457552,94.32945530577672,87.20718307885564,85.00358849094634,89.06176432593541
670.0,80.88039282853983,82.87213878375515,94.04447801997837,87.8052948209895,83.6237530903337,88.67772865832804
690.0,79.8750746082695,79.6778242426381,93.2728313119909,84.94941325838768,80.71835387244047,87.39603470444906
710.0,80.49820878129526,78.09379117532377,93.17361845074662,82.40046674172221,78.82236779559183,86.99546364065453
730.0,83.29171401879837,78.3429402411342,94.27536274568678,82.2549128961476,79.01553327876616,88.06961780959132
750.0,84.80917973467778,76.78636379006512,94.67051996349946,82.41788854461949,80.1826910008709,88.52526960236989
775.0,88.41620002387243,78.02072250314124,93.9673833288014,87.69825453475357,83.62891993150537,89.10638333046735
800.0,88.61104606483,77.52925134215113,93.02205676912645,89.29659074461337,83.65294082467626,88.8881762059719
825.0,86.06110622692036,74.94492181923859,92.47684313211683,87.84587939646109,81.40216388209201,87.70978790506024
850.0,85.48406653357303,74.684674125242,92.24544289936311,86.51151695449823,78.54727893544673,87.1254948465237
875.0,84.59834845362668,74.73590996820758,92.21018260078374,84.43520282024667,74.9877780765402,86.61004197644556
900.0,84.73390031512027,73.92032228436588,92.28511324571068,81.88780247180377,72.22683053787546,86.40615419592841
925.0,84.10777827188357,75.10404791364738,92.52454721453728,75.91245345198713,71.51018018334906,86.29699790496895
950.0,84.06301144976415,71.34956763285655,93.61982632553799,82.22354389950435,74.81719977061769,87.43044511150318
975.0,83.84430069140232,72.94723308545815,92.50962295639962,80.76167307151766,71.77868440731207,86.39189568764246
1000.0,83.84812410918936,81.00879047066323,92.08759171733587,78.68229973115457,70.27108936962615,86.17075959901103
1030.0,84.94884126568098,84.48586885397847,92.53556239663514,79.56234052793674,70.1024930250348,86.96705860027032
1060.0,87.20158493936412,84.48188524521066,92.56759399297914,81.54028264754645,70.63279864758145,87.42878407678553
1090.0,89.12511839226731,83.73346732341606,91.30587600399055,82.02540267935693,69.5340809390417,87.1146518020136
1120.0,89.55911588624114,80.23122453584342,92.80272283429163,86.2415183449739,73.2390778245424,88.270518684396
1150.0,89.96681063656841,78.71653782232994,92.6109655684863,85.44574805192177,71.8963926675642,88.13845893537648
1180.0,90.75713639648623,79.63542397302605,92.83474070795168,83.28647753616566,69.69417976830287,88.35769270196674
1220.0,86.37189873246909,81.16971807116902,90.96919327806033,85.84309862555803,74.21005398867061,86.4835644074051
1250.0,88.93724425124147,83.93962488282126,90.95013803713827,84.53538339640187,72.89985624467458,87.1245597084108
1280.0,90.27614234073897,83.121081015485,90.4378343594992,83.42723573510266,73.11171826655759,87.18918930020646
1320.0,90.42082227234003,82.07799386803573,89.7872889525728,83.3264211565847,74.01599074630461,86.91191711476044
1360.0,90.75165231837362,81.65087358708452,90.94312553241218,84.9729770666061,75.42053958889818,87.6743077712977
1400.0,89.99733438714874,80.37419974704673,90.45796559812604,83.64424258360063,74.15688426026149,86.94968475184227
1450.0,89.57033598252359,77.24817474147848,89.93219681118094,83.06149531068148,72.46594614404135,86.36165470854804
1500.0,89.97330280090559,79.71218412195343,88.86797116480888,83.57981905103695,72.15228158955365,86.23753991806106
1550.0,91.52727230471466,79.553897846809,89.27598342123436,83.54681509227109,71.10110379205653,87.15552480058595
1600.0,92.22902315095827,80.44796920664271,90.15401717312828,83.8294489010974,69.32652796956057,87.87851302152133
1650.0,91.47841602612633,79.90225924459332,89.89096298853121,83.99091820035605,67.72174012315587,87.38002748930538
1700.0,92.08125418751908,78.56689075040205,90.09568927688021,84.41890191492479,67.66276686988247,87.76912965920964
1750.0,92.14461118941014,81.41104606483002,90.0838872531534,84.26310282675205,68.72843751896708,87.88279704378948
1800.0,92.32102960804723,83.93089892961002,89.79040763797978,83.45628445738278,68.9023269368845,87.97405034416559
1850.0,91.5409509859459,84.04822559110582,89.25572672028035,83.19333164610885,69.57038331192567,87.38794160103701
1900.0,90.74302953493411,84.70737635284966,88.7093588290177,81.74024105153937,69.05621327457622,86.7805611390945
1950.0,91.61900676326329,85.44512417190266,88.51944971938042,81.881756393871,67.47399541814325,87.28042523322593
2000.0,91.28294639868824,86.39171171667981,87.48735853528234,80.4967785908641,67.14183723085476,86.91499408370505
2060.0,90.22842983392992,85.33233266537333,86.96806628866875,79.6784696166088,65.63195107478576,85.99756255722487
2120.0,89.33558542537827,83.98150057831835,86.04503295708612,80.13648332581353,67.93730121856159,85.1052627604743
2180.0,88.38475821017455,83.71882032593733,84.79266721911574,78.89246134168478,66.82898954133397,84.17850956778051
2240.0,88.57705080677272,82.62791246008645,84.41084885630504,78.42353565144823,65.32795192420998,83.98926456910483
2300.0,89.03823937558928,85.39171171667982,84.62079305595165,77.94557182660762,65.09782916024837,84.77919735455707
2360.0,85.23625069848745,87.14511860483908,84.09419464267958,76.22381492253876,62.24051525842184,83.62637545883932
2400.0,80.6171457634595,87.24806267624754,83.63222381487351,74.80413674731759,61.85297534654764,82.59340835397391
2500.0,79.06985800550726,87.09675231719017,80.8466449595613,73.33742208112633,55.26337383151683,81.68275972840507
2580.0,83.69997794399859,85.12431453247602,77.68995023465959,72.38466063364467,55.11332542537296,81.04638471105424
2650.0,86.73081118522346,83.00696039407424,72.12083980331181,67.82527260092105,56.86192821763542,81.42235463950315
2720.0,89.01147570042154,81.57970803089928,72.70924529437984,65.9699247577801,54.25328398263595,82.84737693462725
2800.0,89.84838416141888,77.94988396284465,73.81726901108681,67.47811643855955,53.252300106628454,83.2549671814674
2900.0,90.46149270250763,77.67763271237764,76.55288037818887,71.19937170903181,57.609130575935055,83.9081810131201
3000.0,90.47223454362219,79.27794354536373,80.80621711846395,73.82989052105758,60.04558931918454,84.29789047375098
3070.0,90.80993375616684,82.00235842785703,83.25542275494477,75.3749124406962,60.99242499688599,85.08108453348028
3150.0,90.69790366785553,80.0747971539649,84.29719948468708,77.64829407592613,63.07607077670745,85.06576924587802
3250.0,90.89452098634102,79.29588926696991,86.13193687782622,80.45181205095955,63.97459638148153,85.65280748298726
3350.0,90.76749874236586,76.43561223620321,86.69020003822195,81.4879149256286,65.89476952392302,85.67905720774756
