Freq "Front Wall Bounce"
22.4 7.011402464285581
23.0 10.443044254949726
23.6 12.981342563136806
24.0 17.64700087075788
25.0 20.74445979792047
25.8 22.958607957997216
26.5 27.46873735868006
27.2 29.269096109227874
28.0 29.80943511654165
29.0 30.21056018327947
30.0 31.023282086562105
30.7 34.93376002181027
31.5 37.158701057083405
32.5 39.03637570266399
33.5 41.556857270563526
34.5 43.518450721886055
35.5 45.02968604807937
36.5 48.01970594007078
37.5 50.581610665998156
38.7 52.85246537823603
40.0 55.45191863679601
41.2 57.615662447744896
42.5 59.94447466521633
43.7 62.024806745424044
45.0 63.95833147519123
46.2 66.10992195267188
47.5 68.12316922804497
48.7 70.58810079587953
50.0 72.4607851734793
51.5 74.13265061654076
53.0 75.70136036065509
54.5 77.48865828377815
56.0 79.38125299233634
58.0 81.67357928568505
60.0 83.73211256105162
61.5 85.65491760385288
63.0 87.35491760385288
65.0 88.75491760385289
67.0 89.75491760385289
69.0 90.55491760385289
71.0 91.16528715999551
73.0 91.56204375999246
75.0 91.84675150375354
77.5 92.00229476693691
80.0 92.20229476693693
82.5 92.48748929892041
85.0 92.85840584504062
87.5 93.15840584504062
90.0 93.35840584504062
92.5 93.37297191737701
95.0 93.1437907541973
97.5 93.02946066855591
100.0 93.35742449135816
103.0 93.59999999999998
106.0 93.65742449135816
109.0 93.58585448910237
112.0 93.4147553152921
115.0 93.15742449135814
118.0 92.9716627539189
122.0 92.7716627539189
125.0 92.6584058450406
128.0 92.60229476693692
132.0 92.56035311823196
136.0 92.53175513861906
140.0 92.47525122642456
145.0 92.47525122642456
150.0 92.47525122642456
155.0 92.47525122642456
160.0 92.47525122642456
165.0 92.4765897732183
170.0 92.43537086618987
175.0 92.33924275721992
180.0 92.22940676691628
185.0 92.33924275721992
190.0 92.53924275721992
195.0 92.69366590096783
200.0 92.8652871599955
206.0 92.90914589305827
212.0 92.9392427572199
218.0 92.8392427572199
224.0 92.56005936857912
230.0 92.24329360773598
236.0 92.1152383542856
240.0 92.19867242696347
250.0 92.3512148231135
258.0 92.58847217927514
265.0 92.7677916354448
272.0 92.77848478147017
280.0 92.663597780615
290.0 92.3336698070903
300.0 91.95251964068127
307.0 91.6136394060688
315.0 91.25121482311347
325.0 90.99942293182198
335.0 91.07091054784844
345.0 91.64878181929043
355.0 92.38147278830732
365.0 92.84878181929044
375.0 92.60343598990846
387.0 91.68147278830732
400.0 90.53195385844312
412.0 90.27740200741134
425.0 90.75923203800298
437.0 91.32833223333886
450.0 91.39888657798578
462.0 91.04878181929045
475.0 90.59888657798578
487.0 90.42560422283141
500.0 90.7574120312225
515.0 91.33377777961884
530.0 91.7884449939284
545.0 91.95131638569546
560.0 91.43085021128118
580.0 90.67115039925946
600.0 89.6821964460543
615.0 87.1828783704033
630.0 87.94345963677412
650.0 89.66996163489065
670.0 89.3849843490923
690.0 88.61333764110482
710.0 88.51412477986055
730.0 89.61586907480071
750.0 90.01102629261338
775.0 89.30788965791533
800.0 88.36256309824039
825.0 87.81734946123076
850.0 87.58594922847703
875.0 87.55068892989766
900.0 87.6256195748246
925.0 87.86505354365121
950.0 88.9603326546519
975.0 87.85012928551356
1000.0 87.4280980464498
1030.0 87.87606872574908
1060.0 87.90810032209306
1090.0 86.64638233310448
1120.0 88.14322916340556
1150.0 87.95147189760023
1180.0 88.17524703706562
1220.0 86.30969960717427
1250.0 86.29064436625222
1280.0 85.77834068861314
1320.0 85.12779528168673
1360.0 86.2836318615261
1400.0 85.79847192723997
1450.0 85.27270314029488
1500.0 84.20847749392281
1550.0 84.6164897503483
1600.0 85.49452350224222
1650.0 85.23146931764514
1700.0 85.43619560599414
1750.0 85.42439358226734
1800.0 85.13091396709373
1850.0 84.5962330493943
1900.0 84.04986515813162
1950.0 83.85995604849435
2000.0 82.82786486439628
2060.0 82.3085726177827
2120.0 81.38553928620006
2180.0 80.13317354822968
2240.0 79.75135518541897
2300.0 79.96129938506559
2360.0 79.43470097179352
2400.0 78.97273014398745
2500.0 76.18715128867525
2580.0 73.03045656377353
2650.0 67.46134613242573
2720.0 68.04975162349378
2800.0 69.15777534020073
2900.0 71.89338670730281
3000.0 76.14672344757788
3070.0 78.5959290840587
3150.0 79.63770581380102
3250.0 81.47244320694016
3350.0 82.03070636733588
3450.0 84.10579874603552
3550.0 85.63618230150264
3650.0 86.7828102482319
3750.0 86.60705246704605
3870.0 86.1718927117243
4000.0 86.07703979548852
4120.0 87.0593840806936
4250.0 87.85814112972263
4370.0 89.77710911003489
4500.0 90.67569713721814
4620.0 91.69088607221877
4750.0 91.63768592144147
4870.0 91.10936066540378
5000.0 89.53717974597835
5150.0 89.72428791616458
5300.0 90.22364296406117
5450.0 92.24748195058855
5600.0 93.1745857987909
5800.0 93.66836179233376
6000.0 93.60748697027223
6150.0 92.11377154898345
6300.0 91.24834792030971
6500.0 91.41806786676592
6700.0 90.05038955700961
6900.0 88.34535671032373
7100.0 86.55005081653975
7300.0 84.17470137119109
7500.0 81.19577678862444
7750.0 77.50812557559861
8000.0 76.17046258554952
8250.0 70.57957185459986
8500.0 72.98204137592442
8750.0 79.66528715999551
9000.0 84.82771376734847
9250.0 88.36200928196867
9500.0 87.44975575897668
9750.0 87.549171460145
10000.0 87.87765837748802
10300.0 88.81934757493802
10600.0 89.594201399819
10900.0 88.45096466312874
11200.0 87.15040933626103
11500.0 91.03030828304485
11800.0 89.0995541887677
12200.0 88.63496442847632
12500.0 89.469874375422
12800.0 84.41441332990775
13200.0 70.88166132851028
13600.0 74.99331883715544
14000.0 77.92044232907996
14500.0 82.46984532952578
15000.0 85.6940922054886
15500.0 80.89032973822911
16000.0 88.11242704252771
16500.0 86.67911211329792
17000.0 84.92356303486028
17500.0 87.00645361017713
18000.0 81.17117333661388
18500.0 78.85205426039593
19000.0 67.34942361445268
19500.0 66.67794284353864
