Freq "Listening Window"
20.0 43.54757253084807
20.2909 44.47062392333439
20.586 45.275148755648104
20.8855 45.8809760022863
21.1893 46.21832199824314
21.4975 46.39022536601121
21.8102 46.515693964941704
22.1274 46.72896648518332
22.4492 47.14071035537518
22.7758 47.78033721845861
23.1071 48.55568197292857
23.4432 49.31938400682154
23.7841 49.956370204064825
24.1301 50.455917418971836
24.4811 50.87254865578126
24.8372 51.28795594524635
25.1984 51.77295258616002
25.5649 52.34342728142275
25.9368 52.952599987492675
26.3141 53.5376949904107
26.6968 54.05258392909869
27.0851 54.49714396913083
27.4791 54.90737572199984
27.8788 55.3387331815012
28.2843 55.81739943990439
28.6957 56.335275491340326
29.1131 56.86367736733533
29.5365 57.37737873201574
29.9661 57.870383931832436
30.402 58.35814725953884
30.8442 58.864677713845225
31.2929 59.391853700674545
31.748 59.93191733044013
32.2098 60.468883698692025
32.6783 60.995711225685696
33.1536 61.51958214507211
33.6359 62.05301824329317
34.1251 62.60271059616997
34.6215 63.158045412138875
35.125 63.7089970772017
35.6359 64.24862027377088
36.1543 64.78623866854495
36.6802 65.32487621957864
37.2137 65.86498557488798
37.755 66.40629628536728
38.3041 66.94918037733505
38.8613 67.49462553741787
39.4265 68.04150727760234
40.0 68.58462286034239
40.5818 69.12632400954251
41.1721 69.66850669585273
41.771 70.19836751618948
42.3785 70.69212769124874
42.9949 71.14834311173362
43.6203 71.5963149483346
44.2548 72.0664667586395
44.8985 72.5515508656002
45.5515 73.02181649458409
46.2141 73.4710915204976
46.8863 73.91570151303434
47.5683 74.36619287032786
48.2602 74.80422258097136
48.9621 75.21703964025704
49.6743 75.61354432374712
50.3968 75.99762426268387
51.1299 76.36485025636694
51.8736 76.7083368173703
52.6281 77.02949543260577
53.3936 77.33023629403971
54.1702 77.6111651179005
54.9581 77.87157309512989
55.7575 78.11186601648751
56.5685 78.32980896836936
57.3914 78.52279885021126
58.2261 78.68751813642271
59.073 78.81535663613244
59.9323 78.92129247511873
60.804 79.01875342067751
61.6884 79.112188325034
62.5857 79.20030906821933
63.496 79.26857232602796
64.4196 79.31695876483423
65.3566 79.36302106341437
66.3073 79.3987514329632
67.2717 79.41892189588337
68.2502 79.43052408726669
69.2429 79.4354219176697
70.2501 79.4431719943079
71.2719 79.45967803270602
72.3086 79.48015501518559
73.3603 79.4910119111436
74.4274 79.48788592759028
75.5099 79.4726866620113
76.6083 79.41866205663214
77.7226 79.36442720599894
78.8531 79.34667054577679
80.0 79.33478249116324
81.1636 79.35854429630261
82.3442 79.39158384789025
83.5419 79.41683189523485
84.757 79.43484693142503
85.9899 79.44273499730892
87.2406 79.44083336944438
88.5096 79.43441253838479
89.797 79.45544779894726
91.1031 79.47474950199084
92.4282 79.45716745599711
93.7726 79.39702217853352
95.1366 79.2977840987492
96.5204 79.22660832728361
97.9243 79.19062922272052
99.3486 79.1917476483814
100.794 79.21868461480116
102.26 79.26686504390051
103.747 79.31705496494143
105.256 79.3606806556185
106.787 79.39240649103915
108.34 79.4105357558517
109.916 79.38292422113385
111.515 79.35742793925142
113.137 79.3725212456079
114.783 79.41272381042091
116.452 79.4571333646388
118.146 79.50474019123602
119.865 79.54889415039924
121.608 79.6032913099856
123.377 79.66417573280776
125.171 79.72029092732026
126.992 79.77394503334608
128.839 79.82933604222318
130.713 79.8796269433289
132.615 79.89783562504654
134.543 79.89018013249196
136.5 79.8996359126175
138.486 79.92694834788016
140.5 79.9598115048944
142.544 79.99402043275774
144.617 79.9535813698671
146.721 79.88647752514353
148.855 79.93979296171567
151.02 80.06345016455867
153.217 80.07468625183049
155.445 79.91417042840351
157.706 79.82964937762397
160.0 79.6497595229041
162.327 79.53327382028432
164.688 79.57271899107104
167.084 79.67520952471244
169.514 79.92438917006154
171.98 79.64584039152228
174.481 79.28194137989735
177.019 79.1782954847497
179.594 79.15011665512887
182.206 79.10780758691882
184.856 79.1116915681214
187.545 79.23750041768321
190.273 79.43602212400666
193.041 79.63938804693493
195.849 79.6979058680322
198.697 79.73149775827011
201.587 79.76107683027092
204.52 79.67717890556048
207.494 79.58911908733404
210.512 79.51039442725728
213.574 79.55134030276864
216.681 79.22790323719127
219.833 79.1734792002199
223.03 79.10563445719248
226.274 78.97109825940942
229.565 78.8656097772324
232.905 78.70708923997178
236.292 78.60073107003875
239.729 78.61079888428449
243.216 78.71407383706745
246.754 78.85217085340722
250.343 78.9090672927805
253.984 78.94998026016488
257.678 79.1211472185303
261.426 79.19254412657081
265.229 79.32348402097104
269.087 79.1192507798057
273.001 78.8563973255784
276.972 78.84524465419891
281.0 78.87187204803202
285.088 79.02952056898067
289.234 79.13405831818761
293.441 79.10524653086284
297.709 79.27080160306767
302.04 79.24960672738564
306.433 79.09228764784487
310.89 78.80960942193614
315.412 78.9801781819495
320.0 78.96087959887716
324.655 78.76315891855694
329.377 78.3389873586604
334.168 78.38013915445518
339.028 78.28663242376933
343.959 78.36982554884557
348.962 78.3860478515507
354.038 78.40433282690624
359.188 78.45817361499292
364.412 78.51597142537531
369.713 78.16921122900519
375.09 78.027304882013
380.546 78.03684713006115
386.081 78.06571492285961
391.697 78.24182445672925
397.394 78.28237445407856
403.175 78.34104685742486
409.039 78.13779421934785
414.989 78.18893735671186
421.025 78.20163382995557
427.149 78.23784936131483
433.362 78.28563339982696
439.665 78.33224427150134
446.06 78.27859783415887
452.548 78.11024710020797
459.131 78.00531675394814
465.809 77.8271971769349
472.584 77.71047164646077
479.458 77.53280901073745
486.432 77.39537461681138
493.507 77.2513293385976
500.686 77.08299428787704
507.968 76.94224915608825
515.357 76.82413406406079
522.853 76.73053338013278
530.458 76.67871827864673
538.174 76.66965972706367
546.002 76.69637055500371
553.943 76.7766757904744
562.001 76.9017601448685
570.175 77.07113350225018
578.469 77.28523983177251
586.883 77.52981380258039
595.419 77.79570616589544
604.08 78.07618343055225
612.866 78.36737734591844
621.78 78.657036908754
630.824 78.93674498115509
640.0 79.19547373473453
649.309 79.42672361631044
658.753 79.6326958541182
668.335 79.80706337032841
678.056 79.94576708144535
687.919 80.04519785687172
697.925 80.10616666055604
708.077 80.12664469415924
718.376 80.10901275482912
728.825 80.05406669610207
739.426 79.96489828150094
750.181 79.84494527361716
761.093 79.69828650131937
772.163 79.53894502857769
783.394 79.37251367050557
794.789 79.20815527779494
806.349 79.06436988407958
818.078 78.95174797743545
829.977 78.87778088179797
842.05 78.85524105538117
854.298 78.87994496596139
866.724 78.94830072372933
879.33 79.05335340089046
892.12 79.18070563945182
905.097 79.31918348520682
918.262 79.45381969199325
931.618 79.57282841315234
945.169 79.6671213052587
958.917 79.73202115715253
972.864 79.76420363259197
987.015 79.76420733177609
1001.37 79.73182470254048
1015.94 79.67652115861728
1030.71 79.61034982741248
1045.71 79.54411453316699
1060.92 79.4832933821442
1076.35 79.44120405011508
1092.0 79.42148752946395
1107.89 79.42663094875805
1124.0 79.44899421917353
1140.35 79.48200610313769
1156.94 79.5140858159196
1173.77 79.52986693598508
1190.84 79.5154960871254
1208.16 79.45790725026588
1225.73 79.34917969879356
1243.56 79.17581959551089
1261.65 78.93720289725415
1280.0 78.62815822855237
1298.62 78.25374618394723
1317.51 77.81275987805093
1336.67 77.32176687143561
1356.11 76.80427205249865
1375.84 76.29445096659053
1395.85 75.84140416004068
1416.15 75.49691936403427
1436.75 75.30382312506754
1457.65 75.26821037810805
1478.85 75.36922281673489
1500.36 75.55716056218054
1522.19 75.77892296817672
1544.33 75.98507993948519
1566.79 76.14812621317083
1589.58 76.25564783924123
1612.7 76.31527748724758
1636.16 76.35495512312946
1659.95 76.4043907535282
1684.1 76.49938529410676
1708.6 76.66316335199392
1733.45 76.89654822605958
1758.66 77.18549779927896
1784.24 77.49620519142253
1810.19 77.79534945054883
1836.52 78.05983493963002
1863.24 78.26876214500967
1890.34 78.41335179397541
1917.83 78.48991901360793
1945.73 78.5051524405552
1974.03 78.47556408453403
2002.74 78.42793687897122
2031.87 78.40275245814627
2061.43 78.43588347182346
2091.41 78.54770218899074
2121.83 78.7152698966635
2152.69 78.88205358700212
2184.01 78.97162134174863
2215.77 78.91508674757894
2248.0 78.66972657708193
2280.7 78.23912129148394
2313.87 77.68267364504689
2347.53 77.13397158900477
2381.68 76.75856167840021
2416.32 76.639241882905
2451.46 76.719358265158
2487.12 76.85804326443969
2523.3 76.94339076896524
2560.0 76.95463503269832
2597.24 76.93975937525956
2635.01 76.95901260092545
2673.34 77.02545180761355
2712.23 77.10301038043944
2751.68 77.1450359876953
2791.7 77.13860914714334
2832.31 77.11642404560625
2873.5 77.12760015341964
2915.3 77.20162687572467
2957.7 77.32462578284454
3000.72 77.45467112329345
3044.37 77.5460185353648
3088.65 77.57374174426151
3133.58 77.54082797972393
3179.16 77.4797318370581
3225.4 77.43509999435736
3272.31 77.42786771529575
3319.91 77.43648648511763
3368.2 77.43335966680894
3417.19 77.42279916764903
3466.89 77.43901671926585
3517.32 77.5030393941877
3568.48 77.60056318633733
3620.39 77.70598146198233
3673.05 77.80257846251492
3726.47 77.88358131729039
3780.67 77.95752517112005
3835.67 78.04216878936087
3891.46 78.12955217114582
3948.06 78.15291612117524
4005.49 78.06402229372118
4063.75 77.90659480316191
4122.86 77.74658212445738
4182.82 77.54776801041615
4243.66 77.24573783076323
4305.39 76.92593754778677
4368.01 76.72623005106485
4431.55 76.6507618841564
4496.01 76.64112616586661
4561.4 76.68208325848366
4627.75 76.73299106456162
4695.06 76.7819936340748
4763.35 76.87236524572913
4832.64 76.97129854558808
4902.93 77.04102972891496
4974.24 77.12891664994876
5046.6 77.2309652142823
5120.0 77.30855935664904
5194.47 77.3531029194162
5270.03 77.33545189088505
5346.68 77.30213834424693
5424.45 77.29634752540953
5503.35 77.27163456394842
5583.4 77.27563658745197
5664.61 77.29958365055865
5747.01 77.3008901694615
5830.6 77.34280373271696
5915.41 77.37820049729368
6001.45 77.40205683854667
6088.74 77.3814555494708
6177.3 77.2501492436603
6267.15 77.07557361696908
6358.31 76.8494816361138
6450.8 76.61213179420707
6544.62 76.40895634153011
6639.82 76.32958356656812
6736.4 76.38102228031292
6834.38 76.46625717257824
6933.79 76.48636896750426
7034.64 76.50593542558477
7136.96 76.48166072427135
7240.77 76.39797697870324
7346.09 76.37453033505413
7452.94 76.40055787960908
7561.35 76.44295926702065
7671.33 76.59088594418
7782.91 76.6994791501277
7896.12 76.7768683695901
8010.97 76.88746347997949
8127.49 76.99715595794798
8245.71 77.14444470210583
8365.65 77.40496043424685
8487.33 77.56922884610407
8610.78 77.63799869450891
8736.03 77.60790157525044
8863.09 77.45712650568578
8992.01 77.36431755170418
9122.8 77.3755972674837
9255.5 77.54146217451088
9390.12 77.72868609575568
9526.7 77.82795866047384
9665.27 77.84298869866237
9805.86 77.73730621557016
9948.49 77.72964624813895
10093.2 77.81256010881043
10240.0 78.08908246367322
10388.9 78.38221796414399
10540.1 78.64707845735778
10693.4 78.79549599149506
10848.9 78.88204236506138
11006.7 78.92311212248704
11166.8 78.97725254905393
11329.2 79.01883861746448
11494.0 79.05607778838636
11661.2 79.10802439691047
11830.8 79.25602266223072
12002.9 79.44622409516145
12177.5 79.60877312603606
12354.6 79.5319820707775
12534.3 79.23130371111719
12716.6 78.84273134337636
12901.6 78.75285377403898
13089.2 78.81367925532007
13279.6 78.98257494681083
13472.8 79.22247252295767
13668.8 79.36687525040739
13867.6 79.36567769325983
14069.3 79.19577626765651
14273.9 78.9570437744693
14481.5 78.89155322521478
14692.2 79.0058376718066
14905.9 79.06795649037483
15122.7 78.9301015975578
15342.7 78.58138779141211
15565.8 78.16577352064752
15792.2 77.8692607766954
16021.9 77.6456366986189
16255.0 77.3812181704879
16491.4 76.96052655134147
16731.3 76.44919114606715
16974.7 75.96496673847523
17221.6 75.58855251609025
17472.1 75.27449105768132
17726.2 74.7516420120795
17984.0 73.94568971597204
18245.6 73.2299038227038
18511.0 72.75017438022218
18780.2 72.31950475607901
19053.4 71.7665486259669
19330.5 71.20407825089433
19611.7 70.7355947687484
19897.0 70.31433990499994
