Freq "Sound Power DI"
20.0 29.645212351037657
20.2909 29.651526843414132
20.586 29.658589070386057
20.8855 29.665994326969354
21.1893 29.674434390502455
21.4975 29.68347946993157
21.8102 29.693670506562455
22.1274 29.704840617517334
22.4492 29.716328772664525
22.7758 29.729043849633598
23.1071 29.742607729121573
23.4432 29.756996941153176
23.7841 29.77125874175374
24.1301 29.785888007177704
24.4811 29.800481293930176
24.8372 29.815024090093374
25.1984 29.828839389526934
25.5649 29.84236199013401
25.9368 29.854986513258353
26.3141 29.866454828853307
26.6968 29.876704036848082
27.0851 29.885924106248524
27.4791 29.89392937190098
27.8788 29.90123517676969
28.2843 29.90752131549894
28.6957 29.91393207571808
29.1131 29.91996770974289
29.5365 29.92648512487368
29.9661 29.933443550175696
30.402 29.941386402857205
30.8442 29.950864109761994
31.2929 29.961339033008784
31.748 29.97311564290291
32.2098 29.9858766806217
32.6783 30.000240218224846
33.1536 30.01442164830773
33.6359 30.02957544136892
34.1251 30.044207061782203
34.6215 30.058348809567775
35.125 30.07118482403898
35.6359 30.082833790915217
36.1543 30.09380100765172
36.6802 30.10338799826029
37.2137 30.112293439308928
37.755 30.121381859981298
38.3041 30.131045061577794
38.8613 30.142358384119916
39.4265 30.155551591827262
40.0 30.171052696870206
40.5818 30.18972869338289
41.1721 30.210175935304036
41.771 30.233257334614052
42.3785 30.257651284791706
42.9949 30.282327344618594
43.6203 30.30610872179696
44.2548 30.32803824400264
44.8985 30.347203952057342
45.5515 30.36323814071112
46.2141 30.376156378418642
46.8863 30.386629993618712
47.5683 30.394550758367032
48.2602 30.402693239660465
48.9621 30.411006058435902
49.6743 30.421251422734116
50.3968 30.433342152968876
51.1299 30.44873805987649
51.8736 30.465585666238425
52.6281 30.483027544573616
53.3936 30.500956911005318
54.1702 30.518188532537337
54.9581 30.532854532361682
55.7575 30.54597390387218
56.5685 30.55744657813038
57.3914 30.567371840964114
58.2261 30.577424923619418
59.073 30.587944221725422
59.9323 30.599184844582325
60.804 30.61104557247802
61.6884 30.623749970321867
62.5857 30.635840803882658
63.496 30.646696174263127
64.4196 30.6560614842747
65.3566 30.664605664562274
66.3073 30.67268189569998
67.2717 30.680019693846248
68.2502 30.687930407584105
69.2429 30.69748005339008
70.2501 30.708241108842927
71.2719 30.719138641042377
72.3086 30.730409838423
73.3603 30.74088206821682
74.4274 30.750367919856245
75.5099 30.759192760808645
76.6083 30.768675711597368
77.7226 30.778341825697183
78.8531 30.78847791362554
80.0 30.799963727275937
81.1636 30.811577120030677
82.3442 30.822764808134323
83.5419 30.832145940643073
84.757 30.840155891288703
85.9899 30.84695194623353
87.2406 30.852761276107373
88.5096 30.858466563795105
89.797 30.864858882948823
91.1031 30.871900390135636
92.4282 30.87981047815802
93.7726 30.887618586209143
95.1366 30.89515863244469
96.5204 30.901523308571385
97.9243 30.907434834156575
99.3486 30.913191226408046
100.794 30.91856632186625
102.26 30.92406738097995
103.747 30.930327227033686
105.256 30.935668856322934
106.787 30.941249098195968
108.34 30.946337126225202
109.916 30.950589060876
111.515 30.954842568843873
113.137 30.95888308718054
114.783 30.963230626085334
116.452 30.96819384232866
118.146 30.97275437639911
119.865 30.976056367593515
121.608 30.978225381603693
123.377 30.980487749773147
125.171 30.98293274343348
126.992 30.986164871541817
128.839 30.988749271872123
130.713 30.990989864278973
132.615 30.992661868804745
134.543 30.99529321240574
136.5 30.99725531641579
138.486 30.999065649791845
140.5 30.99999768150107
142.544 31.000487892988403
144.617 31.001463097409854
146.721 31.0030151824855
148.855 31.00490385787232
151.02 31.00639139292126
153.217 31.00702858640122
155.445 31.00651328407413
157.706 31.00541753568845
160.0 31.004974970901046
162.327 31.006566841295054
164.688 31.009161433501845
167.084 31.011632233974098
169.514 31.011466019994046
171.98 31.011552995982413
174.481 31.013066089992776
177.019 31.014117675683693
179.594 31.012684913504472
182.206 31.01201734590437
184.856 31.01477313293819
187.545 31.017473498573437
190.273 31.018268693806903
193.041 31.019009112115597
195.849 31.022043795846244
198.697 31.024713113539562
201.587 31.026974710860983
204.52 31.030942648997296
207.494 31.035799519999472
210.512 31.0410794149045
213.574 31.0482810769534
216.681 31.055251119330336
219.833 31.062132357645908
223.03 31.071393710170412
226.274 31.08192198871484
229.565 31.092074707845484
232.905 31.102592985414333
236.292 31.113103718102778
239.729 31.12891761605529
243.216 31.1492801551655
246.754 31.166774236116325
250.343 31.189089246813566
253.984 31.217497155772378
257.678 31.24342990950784
261.426 31.272941385462886
265.229 31.3049021655697
269.087 31.338942554419432
273.001 31.37523969922944
276.972 31.41262622001956
281.0 31.45515707968667
285.088 31.50555368342303
289.234 31.56415453573669
293.441 31.622831009707326
297.709 31.68560800364496
302.04 31.756045274042606
306.433 31.828663431085857
310.89 31.909558628866506
315.412 31.996383336974034
320.0 32.082046674105726
324.655 32.17234589674217
329.377 32.26776232439528
334.168 32.37335935679825
339.028 32.46082240972393
343.959 32.55398513363407
348.962 32.64211544145117
354.038 32.73206106796977
359.188 32.81282554619422
364.412 32.89287728338279
369.713 32.96184012205431
375.09 33.02362833467713
380.546 33.076580240660235
386.081 33.11755184919721
391.697 33.150088785824295
397.394 33.172943492539176
403.175 33.183732137226045
409.039 33.18509570389105
414.989 33.17774996114731
421.025 33.164835739601486
427.149 33.1373537590715
433.362 33.10853918151457
439.665 33.06638928361947
446.06 33.0177515369036
452.548 32.96667958146922
459.131 32.90751135387961
465.809 32.84400077985484
472.584 32.77923335811741
479.458 32.711767278682885
486.432 32.64366801262604
493.507 32.57472345066613
500.686 32.511716467174566
507.968 32.45494297053368
515.357 32.40852882090222
522.853 32.37797928070786
530.458 32.364883219561904
538.174 32.37300526933018
546.002 32.40758954523308
553.943 32.467333818162274
562.001 32.55138657723205
570.175 32.6570976646985
578.469 32.78507791398458
586.883 32.92474715215519
595.419 33.06871953174162
604.08 33.21384317185125
612.866 33.36084257720714
621.78 33.50136909418211
630.824 33.6337234144558
640.0 33.755420318940935
649.309 33.863306789614455
658.753 33.96176919938016
668.335 34.04794328470419
678.056 34.12576810571139
687.919 34.194145679294394
697.925 34.2560848838026
708.077 34.31059285997651
718.376 34.35642459172547
728.825 34.3895556482846
739.426 34.40982014289524
750.181 34.416847421066024
761.093 34.410633621248905
772.163 34.39817078072315
783.394 34.38429418317466
794.789 34.37337017227223
806.349 34.36635859431384
818.078 34.36943500761498
829.977 34.38399999374194
842.05 34.418942215420444
854.298 34.470255931703306
866.724 34.5369400134296
879.33 34.61907417232308
892.12 34.71059543489669
905.097 34.810275926999395
918.262 34.91159600330529
931.618 35.01150283649413
945.169 35.104754632414824
958.917 35.19131107393932
972.864 35.267387014969344
987.015 35.332486018907005
1001.37 35.385244863973
1015.94 35.42365285285179
1030.71 35.44879160768885
1045.71 35.46540190891079
1060.92 35.471981686640646
1076.35 35.47651530025615
1092.0 35.482906481480086
1107.89 35.49901629488926
1124.0 35.525924972482116
1140.35 35.56979967291498
1156.94 35.631658677339175
1173.77 35.710773336550105
1190.84 35.80597160935859
1208.16 35.91322533138063
1225.73 36.03380901195278
1243.56 36.16129396930627
1261.65 36.29184197134539
1280.0 36.41825006417666
1298.62 36.53664766517875
1317.51 36.638966615982014
1336.67 36.71911411079786
1356.11 36.76575868059082
1375.84 36.77568507801135
1395.85 36.74712271463076
1416.15 36.68283814527284
1436.75 36.601808604850646
1457.65 36.51610702856415
1478.85 36.44433098588654
1500.36 36.39234823990152
1522.19 36.362729535166906
1544.33 36.35396865759266
1566.79 36.36452616896483
1589.58 36.39061514780093
1612.7 36.42816732401724
1636.16 36.47302753414044
1659.95 36.51389871186231
1684.1 36.5423849100749
1708.6 36.55878089411752
1733.45 36.565414825342444
1758.66 36.572775672566436
1784.24 36.58589586900344
1810.19 36.60922076573297
1836.52 36.63850458908328
1863.24 36.670547792070366
1890.34 36.700178746642436
1917.83 36.72685105083974
1945.73 36.75491480851231
1974.03 36.79105191914503
2002.74 36.83657042272161
2031.87 36.88339906661203
2061.43 36.909160541750936
2091.41 36.895978066306256
2121.83 36.83343684605765
2152.69 36.73751344711961
2184.01 36.62861133010573
2215.77 36.52432130027691
2248.0 36.4312644687044
2280.7 36.34700131960196
2313.87 36.26070909900422
2347.53 36.16752457968094
2381.68 36.07460038158628
2416.32 35.997552955468905
2451.46 35.94602171014269
2487.12 35.91406842503402
2523.3 35.88477237844077
2560.0 35.85208918539362
2597.24 35.8214171016636
2635.01 35.80722711675713
2673.34 35.81927756063726
2712.23 35.85704828033478
2751.68 35.912676707504986
2791.7 35.97358114804899
2832.31 36.0288564007943
2873.5 36.06827155585711
2915.3 36.092418736601644
2957.7 36.11506784764681
3000.72 36.15746251781074
3044.37 36.229728697582445
3088.65 36.32145247410298
3133.58 36.40135698477023
3179.16 36.43949564602558
3225.4 36.43527564763525
3272.31 36.417330931932455
3319.91 36.41228872053986
3368.2 36.4260752533728
3417.19 36.45378860432025
3466.89 36.49348312386037
3517.32 36.55239128443826
3568.48 36.638008396446835
3620.39 36.7464000999736
3673.05 36.85523112833431
3726.47 36.936865851154195
3780.67 36.993755848412434
3835.67 37.05696215722294
3891.46 37.13333116261009
3948.06 37.17993650609829
4005.49 37.170550180345145
4063.75 37.129190677655274
4122.86 37.05982907987716
4182.82 36.89593575090966
4243.66 36.59449284356552
4305.39 36.24201804446548
4368.01 35.966408373768914
4431.55 35.81965349401855
4496.01 35.78924038564098
4561.4 35.83555124835442
4627.75 35.900376362556415
4695.06 35.978355922660214
4763.35 36.066048769601466
4832.64 36.113075049193014
4902.93 36.144150751317184
4974.24 36.21041762113377
5046.6 36.265479584158044
5120.0 36.28553008005558
5194.47 36.280289844369335
5270.03 36.231021402816225
5346.68 36.17437368202479
5424.45 36.11876054793865
5503.35 36.03782831932561
5583.4 35.989812006533185
5664.61 35.95390384729565
5747.01 35.909932136658014
5830.6 35.916196846278666
5915.41 35.94748177258336
6001.45 36.00335140970586
6088.74 36.04009307161499
6177.3 36.054962317470284
6267.15 36.104847133803474
6358.31 36.11038615071516
6450.8 36.06192684057663
6544.62 35.98870985038312
6639.82 35.94281724483102
6736.4 35.910219047931804
6834.38 35.86737078158848
6933.79 35.82497693501999
7034.64 35.81587778511407
7136.96 35.840552759875806
7240.77 35.91702029888454
7346.09 36.054021002351476
7452.94 36.2250163842196
7561.35 36.39689553332205
7671.33 36.47861153262538
7782.91 36.46056546877253
7896.12 36.4362532218247
8010.97 36.426786623930866
8127.49 36.44318623162492
8245.71 36.52481641248225
8365.65 36.694116623828506
8487.33 36.85789815548452
8610.78 37.03395493749376
8736.03 37.2303392739249
8863.09 37.434463393439444
8992.01 37.63988195409654
9122.8 37.84061279864797
9255.5 38.0250839908675
9390.12 38.17939288615845
9526.7 38.32058085304264
9665.27 38.44335906095971
9805.86 38.554291162293666
9948.49 38.681017048055324
10093.2 38.823653582051065
10240.0 38.98851245607371
10388.9 39.145875218665665
10540.1 39.28489156214401
10693.4 39.41103782859251
10848.9 39.524469628421954
11006.7 39.61116405037171
11166.8 39.68626617290748
11329.2 39.74644932612627
11494.0 39.80111559431796
11661.2 39.84781844630773
11830.8 39.88492310776651
12002.9 39.88199549393356
12177.5 39.84565609500844
12354.6 39.7959189355407
12534.3 39.738727657582444
12716.6 39.753585160866166
12901.6 39.796178978202335
13089.2 39.81466781497747
13279.6 39.819168848040306
13472.8 39.81024118886528
13668.8 39.79121888339637
13867.6 39.774380717581636
14069.3 39.74548628578994
14273.9 39.74367443711718
14481.5 39.7705742762967
14692.2 39.828589395684986
14905.9 39.904969602643604
15122.7 39.99144719226621
15342.7 40.03078049200052
15565.8 40.00319317851539
15792.2 39.965786889090595
16021.9 39.974298459356206
16255.0 40.00861103023355
16491.4 40.03508995017296
16731.3 40.08144839495594
16974.7 40.131941874244376
17221.6 40.208131786855986
17472.1 40.35083029366672
17726.2 40.47035617140966
17984.0 40.52155174109268
18245.6 40.537127933638956
18511.0 40.51966109944544
18780.2 40.40105971000342
19053.4 40.20033307974907
19330.5 40.08317557075317
19611.7 39.96805060119064
19897.0 39.75210614018329
