Freq "Sound Power"
20.0 43.902360179810444
20.2909 44.819097079920255
20.586 45.61655968526205
20.8855 46.21498167531698
21.1893 46.543887607740686
21.4975 46.70674589607964
21.8102 46.82202345837925
22.1274 47.024125867666015
22.4492 47.42438158271062
22.7758 48.051293368824986
23.1071 48.813074243806994
23.4432 49.56238706566836
23.7841 50.185111462311085
24.1301 50.67002941179416
24.4811 51.07206736185108
24.8372 51.47293185515301
25.1984 51.94411319663308
25.5649 52.50106529128877
25.9368 53.097613474234294
26.3141 53.67124016155739
26.6968 54.175879892250606
27.0851 54.611219862882336
27.4791 55.01344635009886
27.8788 55.43749800473151
28.2843 55.90987812440545
28.6957 56.42134341562223
29.1131 56.943709657592436
29.5365 57.45089360714206
29.9661 57.93694038165674
30.402 58.416760856681634
30.8442 58.913813604083245
31.2929 59.43051466766576
31.748 59.9588016875372
32.2098 60.483007018070325
32.6783 60.99547100746085
33.1536 61.505160496764375
33.6359 62.02344280192426
34.1251 62.55850353438777
34.6215 63.0996966025711
35.125 63.637812253162735
35.6359 64.16578648285567
36.1543 64.69243766089322
36.6802 65.22148822131835
37.2137 65.75269213557904
37.755 66.28491442538599
38.3041 66.81813531575725
38.8613 67.35226715329796
39.4265 67.88595568577506
40.0 68.41357016347219
40.5818 68.93659531615964
41.1721 69.45833076054869
41.771 69.96511018157543
42.3785 70.43447640645705
42.9949 70.86601576711504
43.6203 71.29020622653762
44.2548 71.73842851463687
44.8985 72.20434691354285
45.5515 72.65857835387295
46.2141 73.09493514207895
46.8863 73.52907151941562
47.5683 73.97164211196082
48.2602 74.40152934131089
48.9621 74.80603358182115
49.6743 75.19229290101299
50.3968 75.56428210971498
51.1299 75.91611219649046
51.8736 76.24275115113187
52.6281 76.54646788803217
53.3936 76.82927938303438
54.1702 77.09297658536316
54.9581 77.33871856276821
55.7575 77.56589211261533
56.5685 77.77236239023898
57.3914 77.95542700924716
58.2261 78.1100932128033
59.073 78.22741241440701
59.9323 78.3221076305364
60.804 78.40770784819948
61.6884 78.48843835471214
62.5857 78.56446826433665
63.496 78.62187615176484
64.4196 78.66089728055954
65.3566 78.69841539885209
66.3073 78.72606953726321
67.2717 78.73890220203712
68.2502 78.74259367968257
69.2429 78.7379418642796
70.2501 78.73493088546498
71.2719 78.74053939166365
72.3086 78.74974517676257
73.3603 78.75012984292678
74.4274 78.73751800773402
75.5099 78.71349390120264
76.6083 78.64998634503476
77.7226 78.58608538030177
78.8531 78.55819263215126
80.0 78.53481876388729
81.1636 78.54696717627193
82.3442 78.56881903975592
83.5419 78.58468595459178
84.757 78.59469104013633
85.9899 78.59578305107539
87.2406 78.588072093337
88.5096 78.5759459745897
89.797 78.59058891599845
91.1031 78.60284911185522
92.4282 78.5773569778391
93.7726 78.50940359232439
95.1366 78.40262546630451
96.5204 78.32508501871223
97.9243 78.28319438856393
99.3486 78.27855642197335
100.794 78.30011829293491
102.26 78.34279766292056
103.747 78.38672773790773
105.256 78.42501179929558
106.787 78.45115739284319
108.34 78.46419862962648
109.916 78.43233516025786
111.515 78.40258537040754
113.137 78.41363815842737
114.783 78.44949318433558
116.452 78.48893952231016
118.146 78.53198581483693
119.865 78.57283778280572
121.608 78.6250659283819
123.377 78.68368798303462
125.171 78.73735818388677
126.992 78.78778016180426
128.839 78.84058677035105
130.713 78.88863707904991
132.615 78.90517375624178
134.543 78.89488692008622
136.5 78.90238059620171
138.486 78.9278826980883
140.5 78.95981382339332
142.544 78.99353253976933
144.617 78.95211827245724
146.721 78.88346234265804
148.855 78.93488910384336
151.02 79.05705877163741
153.217 79.06765766542925
155.445 78.90765714432936
157.706 78.82423184193551
160.0 78.64478455200306
162.327 78.52670697898925
164.688 78.5635575575692
167.084 78.66357729073835
169.514 78.91292315006751
171.98 78.63428739553989
174.481 78.26887528990457
177.019 78.164177809066
179.594 78.13743174162441
182.206 78.09579024101444
184.856 78.09691843518323
187.545 78.22002691910978
190.273 78.41775343019975
193.041 78.62037893481934
195.849 78.67586207218595
198.697 78.70678464473056
201.587 78.73410211940994
204.52 78.64623625656318
207.494 78.55331956733457
210.512 78.46931501235277
213.574 78.50305922581522
216.681 78.17265211786093
219.833 78.111346842574
223.03 78.03424074702208
226.274 77.88917627069458
229.565 77.7735350693869
232.905 77.60449625455746
236.292 77.48762735193596
239.729 77.4818812682292
243.216 77.56479368190195
246.754 77.6853966172909
250.343 77.71997804596695
253.984 77.73248310439251
257.678 77.87771730902246
261.426 77.91960274110794
265.229 78.01858185540135
269.087 77.78030822538628
273.001 77.48115762634897
276.972 77.43261843417933
281.0 77.41671496834536
285.088 77.52396688555764
289.234 77.56990378245092
293.441 77.48241552115553
297.709 77.58519359942271
302.04 77.49356145334303
306.433 77.26362421675901
310.89 76.90005079306965
315.412 76.98379484497546
320.0 76.87883292477144
324.655 76.59081302181477
329.377 76.07122503426511
334.168 76.00677979765693
339.028 75.8258100140454
343.959 75.81584041521151
348.962 75.74393241009953
354.038 75.67227175893646
359.188 75.64534806879871
364.412 75.62309414199251
369.713 75.20737110695087
375.09 75.00367654733589
380.546 74.96026688940091
386.081 74.94816307366241
391.697 75.09173567090495
397.394 75.1094309615394
403.175 75.15731472019881
409.039 74.95269851545679
414.989 75.01118739556456
421.025 75.03679809035407
427.149 75.10049560224333
433.362 75.17709421831239
439.665 75.26585498788188
446.06 75.26084629725528
452.548 75.14356751873876
459.131 75.09780540006854
465.809 74.98319639708008
472.584 74.93123828834338
479.458 74.82104173205457
486.432 74.75170660418536
493.507 74.67660588793147
500.686 74.57127782070248
507.968 74.48730618555456
515.357 74.41560524315858
522.853 74.35255409942492
530.458 74.31383505908482
538.174 74.2966544577335
546.002 74.28878100977062
553.943 74.30934197231211
562.001 74.35037356763647
570.175 74.41403583755168
578.469 74.50016191778793
586.883 74.60506665042521
595.419 74.72698663415383
604.08 74.86234025870101
612.866 75.00653476871132
621.78 75.1556678145719
630.824 75.30302156669929
640.0 75.44005341579359
649.309 75.563416826696
658.753 75.67092665473804
668.335 75.7591200856242
678.056 75.81999897573397
687.919 75.85105217757734
697.925 75.85008177675344
708.077 75.81605183418273
718.376 75.75258816310364
728.825 75.66451104781746
739.426 75.55507813860568
750.181 75.42809785255113
761.093 75.28765288007047
772.163 75.14077424785452
783.394 74.98821948733092
794.789 74.8347851055227
806.349 74.69801128976573
818.078 74.58231296982046
829.977 74.49378088805602
842.05 74.43629883996073
854.298 74.40968903425807
866.724 74.41136071029973
879.33 74.43427922856739
892.12 74.47011020455511
905.097 74.50890755820744
918.262 74.54222368868795
931.618 74.5613255766582
945.169 74.5623666728439
958.917 74.54071008321321
972.864 74.49681661762261
987.015 74.43172131286907
1001.37 74.34657983856746
1015.94 74.25286830576549
1030.71 74.16155821972363
1045.71 74.07871262425618
1060.92 74.01131169550354
1076.35 73.96468874985891
1092.0 73.93858104798386
1107.89 73.92761465386879
1124.0 73.9230692466914
1140.35 73.91220643022271
1156.94 73.88242713858043
1173.77 73.81909359943499
1190.84 73.7095244777668
1208.16 73.54468191888523
1225.73 73.31537068684078
1243.56 73.0145256262046
1261.65 72.64536092590876
1280.0 72.20990816437569
1298.62 71.7170985187685
1317.51 71.1737932620689
1336.67 70.60265276063775
1356.11 70.03851337190783
1375.84 69.5187658885792
1395.85 69.09428144540992
1416.15 68.81408121876143
1436.75 68.70201452021689
1457.65 68.75210334954392
1478.85 68.92489183084837
1500.36 69.16481232227902
1522.19 69.41619343300982
1544.33 69.63111128189252
1566.79 69.783600044206
1589.58 69.86503269144032
1612.7 69.88711016323035
1636.16 69.881927588989
1659.95 69.89049204166588
1684.1 69.95700038403187
1708.6 70.10438245787641
1733.45 70.33113340071715
1758.66 70.61272212671251
1784.24 70.91030932241908
1810.19 71.18612868481586
1836.52 71.42133035054675
1863.24 71.59821435293931
1890.34 71.71317304733299
1917.83 71.76306796276819
1945.73 71.75023763204287
1974.03 71.68451216538898
2002.74 71.59136645624962
2031.87 71.51935339153422
2061.43 71.52672293007254
2091.41 71.65172412268447
2121.83 71.88183305060585
2152.69 72.14454013988251
2184.01 72.3430100116429
2215.77 72.39076544730203
2248.0 72.23846210837752
2280.7 71.89211997188197
2313.87 71.42196454604269
2347.53 70.96644700932383
2381.68 70.68396129681392
2416.32 70.64168892743609
2451.46 70.7733365550153
2487.12 70.94397483940566
2523.3 71.05861839052446
2560.0 71.1025458473047
2597.24 71.11834227359596
2635.01 71.15178548416833
2673.34 71.20617424697629
2712.23 71.24596210010466
2751.68 71.2323592801903
2791.7 71.16502799909435
2832.31 71.08756764481194
2873.5 71.05932859756253
2915.3 71.10920813912304
2957.7 71.20955793519771
3000.72 71.29720860548271
3044.37 71.31628983778235
3088.65 71.25228927015851
3133.58 71.13947099495371
3179.16 71.04023619103253
3225.4 70.99982434672211
3272.31 71.01053678336329
3319.91 71.02419776457775
3368.2 71.00728441343615
3417.19 70.96901056332878
3466.89 70.9455335954055
3517.32 70.95064810974942
3568.48 70.96255478989048
3620.39 70.95958136200875
3673.05 70.94734733418059
3726.47 70.94671546613618
3780.67 70.9637693227076
3835.67 70.98520663213792
3891.46 70.99622100853574
3948.06 70.97297961507694
4005.49 70.89347211337603
4063.75 70.77740412550664
4122.86 70.68675304458021
4182.82 70.6518322595065
4243.66 70.65124498719771
4305.39 70.6839195033213
4368.01 70.75982167729593
4431.55 70.83110839013786
4496.01 70.85188578022562
4561.4 70.84653201012922
4627.75 70.8326147020052
4695.06 70.8036377114146
4763.35 70.80631647612765
4832.64 70.85822349639508
4902.93 70.8968789775978
4974.24 70.91849902881499
5046.6 70.96548563012425
5120.0 71.02302927659348
5194.47 71.07281307504688
5270.03 71.10443048806883
5346.68 71.12776466222212
5424.45 71.1775869774709
5503.35 71.23380624462283
5583.4 71.28582458091878
5664.61 71.34567980326301
5747.01 71.39095803280347
5830.6 71.4266068864383
5915.41 71.43071872471032
6001.45 71.3987054288408
6088.74 71.3413624778558
6177.3 71.19518692619002
6267.15 70.97072648316562
6358.31 70.73909548539865
6450.8 70.55020495363044
6544.62 70.420246491147
6639.82 70.3867663217371
6736.4 70.47080323238112
6834.38 70.59888639098978
6933.79 70.66139203248429
7034.64 70.6900576404707
7136.96 70.64110796439556
7240.77 70.4809566798187
7346.09 70.32050933270264
7452.94 70.1755414953895
7561.35 70.04606373369862
7671.33 70.11227441155462
7782.91 70.23891368135517
7896.12 70.34061514776542
8010.97 70.46067685604862
8127.49 70.55396972632305
8245.71 70.61962828962356
8365.65 70.71084381041835
8487.33 70.71133069061955
8610.78 70.60404375701516
8736.03 70.37756230132554
8863.09 70.02266311224633
8992.01 69.72443559760762
9122.8 69.53498446883572
9255.5 69.5163781836434
9390.12 69.54929320959724
9526.7 69.50737780743121
9665.27 69.39962963770265
9805.86 69.18301505327649
9948.49 69.04862920008362
10093.2 68.98890652675937
10240.0 69.1005700075995
10388.9 69.23634274547832
10540.1 69.36218689521378
10693.4 69.38445816290255
10848.9 69.35757273663941
11006.7 69.31194807211531
11166.8 69.29098637614645
11329.2 69.27238929133821
11494.0 69.25496219406841
11661.2 69.26020595060275
11830.8 69.37109955446422
12002.9 69.56422860122788
12177.5 69.76311703102762
12354.6 69.7360631352368
12534.3 69.49257605353475
12716.6 69.08914618251018
12901.6 68.95667479583666
13089.2 68.9990114403426
13279.6 69.16340609877054
13472.8 69.41223133409241
13668.8 69.57565636701102
13867.6 69.59129697567819
14069.3 69.45028998186659
14273.9 69.21336933735212
14481.5 69.12097894891808
14692.2 69.17724827612162
14905.9 69.16298688773122
15122.7 68.9386544052916
15342.7 68.5506072994116
15565.8 68.16258034213213
15792.2 67.90347388760482
16021.9 67.67133823926268
16255.0 67.37260714025435
16491.4 66.92543660116851
16731.3 66.36774275111122
16974.7 65.83302486423085
17221.6 65.38042072923426
17472.1 64.92366076401458
17726.2 64.28128584066982
17984.0 63.42413797487936
18245.6 62.69277588906483
18511.0 62.230513280776734
18780.2 61.918445046075604
19053.4 61.56621554621782
19330.5 61.12090268014116
19611.7 60.76754416755776
19897.0 60.56223376481665
