Freq,On Axis,Listening Window,Sound Power,Early Reflections,Early Reflections DI,Sound Power DI,DI offset
20.507813,39.06520127272731,38.96706857682466,41.32000096210285,39.225205617968015,39.74186295885664,37.647067614721806,40
21.972656,45.3566082727273,45.53996646502898,48.935101098006726,46.97151222241487,38.56845424261411,36.604865367022256,40
23.4375,50.99240727272729,51.05788293678316,52.698948953197686,51.61630045526584,39.441582481517315,38.35893398358547,40
24.902344,52.9633822727273,52.98666684963487,53.76480077692804,53.15315545415052,39.83351139548435,39.22186607270683,40
26.367188,54.278578272727316,54.28849633688108,54.83148471640234,54.33821212603576,39.950284210845325,39.45701162047874,40
27.832031,56.71025027272731,56.71508290473554,57.12833899983818,56.73115257596913,39.983930328766405,39.58674390489736,40
29.296875,58.914744272727305,58.91465230040845,59.197425732916756,58.889412404791116,40.02523989561733,39.71722656749169,40
30.761719,60.5585742727273,60.55487765864095,60.747773415086115,60.49899738774219,40.055880270898754,39.80710424355483,40
32.226563,62.183617272727304,62.17927477082573,62.35123110295302,62.12304010527744,40.05623466554829,39.828043667872706,40
33.691406,63.689646272727316,63.67982504257998,63.70584239202759,63.56537583917628,40.114449203403694,39.97398265055239,40
35.15625,65.2393642727273,65.22495610145212,65.12401905616673,65.05843756096567,40.16651854048645,40.10093704528539,40
36.621094,66.40239927272731,66.38626486165947,66.22569752995975,66.19661035031802,40.189654511341445,40.160567331699724,40
38.085938,67.24214527272731,67.22596444465904,67.04759577293243,67.03253492435479,40.19342952030425,40.178368671726616,40
39.550781,67.97031327272731,67.9542093599717,67.765976295894,67.75998277592473,40.19422658404697,40.18823306407769,40
41.015625,68.64731627272731,68.63135150755184,68.43513881420155,68.43673044436072,40.19462106319112,40.19621269335029,40
42.480469,69.3272972727273,69.31167260344552,69.10902002433326,69.11704728625858,40.19462531718693,40.202652579112254,40
43.945313,69.95699027272731,69.9417158353306,69.73685935086459,69.74803651322298,40.19367932210761,40.204856484466006,40
45.410156,70.5278522727273,70.51229870503238,70.29353753088527,70.31413259393001,40.19816611110237,40.218761174147104,40
46.875,71.0168462727273,71.00098878187472,70.77202871634873,70.79993623992895,40.20105254194577,40.228960065525996,40
48.339844,71.45079427272731,71.43479332459738,71.19687631551432,71.23168927344696,40.20310405115042,40.23791700908306,40
51.269531,72.30354827272731,72.28651691472595,72.0218748834192,72.07444270894409,40.21207420578186,40.26464203130675,40
52.734375,72.72928327272732,72.71179987714217,72.43636971952218,72.49600908055405,40.215790796588124,40.275430157619994,40
54.199219,73.13259227272732,73.11475580884418,72.83131840502041,72.89628149372845,40.21847431511573,40.28343740382377,40
55.664063,73.45833327272729,73.43827155306376,73.10547122471732,73.19887893188167,40.23939262118209,40.33280032834644,40
58.59375,74.0962322727273,74.07557561709456,73.73193994453067,73.83254747106032,40.243028146034234,40.34363567256389,40
60.058594,74.45782427272731,74.4365877196789,74.08297039077593,74.1898903982604,40.246697321418495,40.35361732890297,40
62.988281,75.1239912727273,75.1005517872403,74.69743444733194,74.83229092930982,40.268260857930485,40.40311733990836,40
64.453125,75.4162262727273,75.39245633410512,74.98102883424214,75.12138486324093,40.271071470864186,40.41142749986298,40
67.382813,75.9101572727273,75.8865561187809,75.48474651674401,75.62164283742496,40.264913281355945,40.40180960203689,40
68.847656,76.12747527272731,76.10377700370303,75.70299841493397,75.83996526823756,40.26381173546547,40.40077858876906,40
71.777344,76.6674752727273,76.64366208782769,76.24577547031532,76.38183372582465,40.261828362003044,40.39788661751237,40
74.707031,77.18112027272733,77.15679563736992,76.7490283584834,76.89128052155425,40.265515115815674,40.407767278886524,40
77.636719,77.5166632727273,77.49240821877972,77.09031885173336,77.23042560340473,40.26198261537499,40.40208936704636,40
79.101563,77.71774727272731,77.69301762558672,77.28405719066477,77.42809467699976,40.26492294858696,40.40896043492195,40
82.03125,78.22110527272731,78.19550211129628,77.77254186134822,77.9245238548989,40.270978256397385,40.42296024994806,40
84.960938,78.64411827272731,78.61792106682752,78.18830051223439,78.34387648227619,40.27404458455133,40.42962055459313,40
87.890625,78.88953227272731,78.86268224584332,78.42634920497962,78.58580578129624,40.27687646454707,40.4363330408637,40
90.820313,79.22846327272731,79.20026629529914,78.74035466963666,78.9127548808939,40.287511414405245,40.459911625662485,40
95.214844,79.66847427272731,79.63959739366447,79.17627074542958,79.35061525421258,40.28898213945189,40.4633266482349,40
98.144531,79.8458902727273,79.81647535937437,79.35300790536485,79.52742702806285,40.28904833131152,40.46346745400952,40
101.07422,80.07158827272731,80.04115570013926,79.56554941336694,79.74670639619092,40.29444930394834,40.47560628677232,40
105.46875,80.3507412727273,80.31909444041122,79.83142128783524,80.01891896300253,40.300175477408686,40.48767315257598,40
108.39844,80.47206327272731,80.43915544802957,79.93805793757889,80.13242522894245,40.306730219087115,40.50109751045068,40
112.79297,80.74829327272732,80.71273599612174,80.15581695182347,80.38047834229096,40.33225765383078,40.55691904429827,40
117.1875,80.8515012727273,80.81707996290758,80.30848856304556,80.50633819974178,40.31074176316581,40.50859139986203,40
120.11719,80.95122527272731,80.91382224460338,80.35762830008173,80.579635011706,40.33418723289738,40.55619394452165,40
124.51172,81.00316127272731,80.96467942407996,80.38731151578597,80.62049745636668,40.34418196771328,40.57736790829399,40
128.90625,81.05286727272731,81.01250036150071,80.41005178710496,80.65580118140946,40.356699180091255,40.60244857439575,40
133.30078,81.10974327272731,81.06786017059275,80.43444114551846,80.69599961253795,40.371860558054806,40.63341902507429,40
139.16016,81.13174727272731,81.08958126387553,80.45601435005511,80.71828174512665,40.371299518748884,40.63356691382042,40
143.55469,81.0485932727273,81.00605390485848,80.39227000841322,80.64355000610077,40.36250389875771,40.613783896445256,40
147.94922,80.97088627272731,80.92632208238687,80.29685556150052,80.55521877674872,40.37110330563816,40.62946652088635,40
153.80859,80.8989162727273,80.85141827497847,80.18623603896032,80.46118964187268,40.39022863310579,40.665182236018154,40
159.66797,80.87836927272731,80.82848249736439,80.13669850634378,80.42491162545204,40.40357087191235,40.691783991020614,40
165.52734,80.81082027272731,80.7575201951823,80.01550332781773,80.32861632483866,40.42890387034363,40.74201686736457,40
171.38672,80.8061072727273,80.75170769560509,79.97579488614704,80.30838429114976,40.44332340445533,40.77591280945805,40
177.24609,80.65832427272733,80.60419437627704,79.87578580142312,80.18171033124571,40.422484045031325,40.728408574853916,40
183.10547,80.47721427272731,80.41921277701036,79.66894282386788,79.98364922760969,40.43556354940067,40.75026995314248,40
188.96484,80.4041842727273,80.340100817635,79.48752862293324,79.85647536719617,40.483625450438836,40.852572194701764,40
196.28906,80.4449672727273,80.37979722739087,79.4953879780115,79.88262831094707,40.4971689164438,40.884409249379374,40
203.61328,80.25813227272731,80.19129052935841,79.31727026227378,79.6971839239495,40.494106605408916,40.87402026708463,40
210.9375,80.02297827272731,79.95254976272453,79.05425190633423,79.44418427273857,40.50836548998596,40.8982978563903,40
218.26172,79.85456127272731,79.77824552553697,78.81475443479965,79.23691976420017,40.54132576133681,40.96349109073732,40
225.58594,79.7629022727273,79.6771243918953,78.56735240566769,79.06438740982034,40.61273698207496,41.109771986227614,40
232.91016,79.9496582727273,79.86402999361023,78.61362402165122,79.19463728657433,40.6693927070359,41.25040597195901,40
241.69922,79.68254227272732,79.59800620823108,78.4592658843265,78.97436139306515,40.62364481516593,41.138740323904585,40
250.48828,79.60425027272731,79.51351394141858,78.29841614958686,78.8478841431252,40.66562979829338,41.215097791831724,40
259.27734,79.58778627272731,79.49362292553604,78.2211222839075,78.7983909347911,40.695231990744944,41.27250064162854,40
268.06641,79.57891727272732,79.48160446777162,78.18514477106856,78.77306073804017,40.708543729731446,41.29645969670305,40
276.85547,79.39719227272731,79.29196889690711,77.9597316165658,78.56126402760201,40.7307048693051,41.3322372803413,40
287.10938,79.43679327272731,79.32163437119439,77.73510720020387,78.4821081309064,40.839526240287995,41.58652717099052,40
297.36328,79.58099527272731,79.46557745993312,77.76285991841827,78.58491312162555,40.88066433830757,41.70271754151484,40
307.61719,79.41881027272731,79.30253854532768,77.57774794458433,78.40759544779398,40.8949430975337,41.72479060074335,40
319.33594,79.59584227272731,79.47833712984095,77.70011043339167,78.55898289652555,40.9193542333154,41.77822669644928,40
329.58984,79.51024827272731,79.38457721402854,77.53745759615106,78.43758535967785,40.946991854350685,41.84711961787748,40
341.30859,79.57361027272731,79.45020137528178,77.57956485066576,78.49931695824762,40.95088441703416,41.87063652461602,40
353.02734,79.31364527272731,79.18272476108375,77.29216859869166,78.21614572829962,40.966579032784125,41.89055616239209,40
366.21094,79.29991127272731,79.16132183961399,77.07526484400367,78.10868531221094,41.05263652740305,42.08605699561032,40
379.39453,79.3648682727273,79.22643118832988,76.97460123044868,78.1087212464661,41.11770994186378,42.2518299578812,40
392.57813,79.4729492727273,79.32310193819674,76.8544097721628,78.12160030080757,41.20150163738917,42.46869216603395,40
405.76172,79.67465827272731,79.53224895626873,77.03908285191967,78.32707314908485,41.20517580718388,42.49316610434906,40
420.41016,79.20169127272729,79.05783501613342,76.6961600170208,77.89416253463313,41.1636724815003,42.36167499911262,40
435.05859,79.32939027272732,79.18184670373367,76.47142188139834,77.8890029809263,41.29284372280736,42.71042482233533,40
451.17188,79.2059132727273,79.05886362733268,76.44835459836841,77.7947382464771,41.26412538085559,42.61050902896427,40
465.82031,79.6274712727273,79.46587792212156,76.48915961821305,78.05999956086792,41.40587836125364,42.97671830390851,40
483.39844,79.83932527272731,79.69665507688002,76.80848415480412,78.34489728673559,41.35175779014443,42.8881709220759,40
499.51172,80.51915127272731,80.36636826130528,77.22409827098892,78.91666677926514,41.44970148204014,43.142269990316365,40
517.08984,80.92735127272731,80.7930928847575,77.86590316123974,79.43346083437869,41.359632050378806,42.927189723517756,40
536.13281,80.7524222727273,80.60325096227456,77.7519961470061,79.26148522559058,41.34176573668398,42.85125481526846,40
555.17578,80.74570327272733,80.60628845140843,77.53379308202751,79.1753050102319,41.43098344117654,43.07249536938092,40
574.21875,80.89003227272731,80.73389409955143,77.47201268765232,79.21418623615833,41.51970786339311,43.26188141189911,40
594.72656,80.87699027272731,80.73674796561633,77.46064263138028,79.20969497692832,41.52705298868801,43.27610533423605,40
615.23438,80.51204827272731,80.38624657960725,77.14473418248294,78.9058939570992,41.48035262250805,43.24151239712431,40
637.20703,80.57831427272731,80.43703146751226,77.04080568873589,78.8731100786836,41.56392138882866,43.39622577877637,40
659.17969,80.0545532727273,79.93306882115505,76.84913841159495,78.52490598683329,41.40816283432176,43.0839304095601,40
682.61719,79.71249027272731,79.56359310196196,76.40511223390324,78.10547083083307,41.458122271128886,43.15848086805872,40
707.51953,79.5874702727273,79.46144437075847,76.23761706952845,77.9985167671939,41.462927603564566,43.22382730123002,40
732.42188,79.1502852727273,79.02909138449888,75.95202884191676,77.66127541252912,41.36781597196976,43.07706254258213,40
757.32422,78.75172727272731,78.61947365946361,75.75061176231924,77.3164221818551,41.303051477608506,42.86886189714437,40
785.15625,78.77039627272731,78.58585510079172,75.39961130788289,77.17712798064765,41.408727120144064,43.186243792908826,40
811.52344,78.26396627272729,78.0664620673461,75.11487397631447,76.73272058989791,41.333741477448186,42.951588091031624,40
840.82031,78.53593027272731,78.28464254139955,75.24282851289341,76.95106281726598,41.33357972413357,43.04181402850614,40
870.11719,78.5663162727273,78.1895435386148,74.54396764567672,76.39733656544735,41.79220697316745,43.64557589293808,40
900.87891,78.2358382727273,77.86130198259538,74.17022857295686,75.9894288113938,41.871873171201585,43.69107340963852,40
933.10547,79.0564002727273,78.64855171762218,74.46495583733474,76.4962720879042,42.15227962971798,44.18359588028744,40
965.33203,79.69757227272731,79.28612516426254,74.83729524099368,77.07370702314546,42.212418141117084,44.44882992326886,40
1000.4883,80.07347827272733,79.6668713185274,75.09634463571282,77.34374072067683,42.323130597850565,44.570526682814574,40
1035.6445,80.0460312727273,79.6300665062546,74.9797723532073,77.22735516514315,42.40271134111144,44.6502941530473,40
1072.2656,79.63006327272731,79.22516601434423,74.48491243652288,76.74386147210356,42.481304542240665,44.74025357782135,40
1108.8867,79.49386727272733,79.06024255269342,74.28745720005156,76.57274454161941,42.48749801107401,44.77278535264186,40
1148.4375,79.71602427272731,79.32312151037365,74.4852177694533,76.8059661449009,42.517155365472746,44.83790374092035,40
1189.4531,80.72099527272731,80.29003871499435,75.04806090220664,77.48934239789423,42.80069631710012,45.24197781278771,40
1230.4688,81.23532327272731,80.81366875300047,75.44346409404889,77.98602465314204,42.82764409985843,45.37020465895158,40
1274.4141,81.29032127272731,80.8728908984259,75.46311113284341,77.96494636415787,42.907944534268026,45.409779765582485,40
1319.8242,81.07263527272731,80.67817816546267,75.24349370669557,77.86731586594337,42.8108622995193,45.434684458767094,40
1366.6992,80.6940532727273,80.36231842292035,75.01349793627814,77.62028854095726,42.74202988196309,45.34882048664221,40
1413.5742,80.62172227272731,80.2189701943008,74.73373433265166,77.49696245521736,42.72200773908344,45.48523586164913,40
1463.3789,80.1218492727273,79.80152741868523,74.6047005084134,77.37252014367962,42.4290072750056,45.196826910271824,40
1516.1133,80.4341912727273,80.04430432960672,74.66954277102927,77.5830852238297,42.46121910577702,45.37476155857745,40
1568.8477,80.15794427272732,79.7527435274289,74.50595248824987,77.43124156649102,42.32150196093788,45.24679103917903,40
1624.5117,80.03999027272731,79.68836037973489,74.43768764588609,77.46157343581021,42.22678694392468,45.2506727338488,40
1681.6406,80.1889242727273,79.82148445624568,74.34144819589524,77.39073752909297,42.43074692715271,45.480036260350445,40
1741.6992,80.50367427272731,80.08722126331045,74.3995218725497,77.5060956480946,42.58112561521585,45.687699390760756,40
1803.2227,80.81004427272731,80.27621427757168,74.24746501146258,77.60805762521372,42.668156652357965,46.0287492661091,40
1866.2109,79.86264827272731,79.3858326813167,73.49167172731894,76.89906696489231,42.48676571642439,45.894160953997755,40
1932.1289,79.34449127272731,78.8076324418577,72.87823726569611,76.26764870028249,42.53998374157521,45.92939517616159,40
1999.5117,79.9844132727273,79.40440312671545,73.11950047949152,76.48079601644463,42.92360711027082,46.28490264722393,40
2069.8242,80.4212392727273,79.80930989614794,73.297931738457,76.63012209219661,43.17918780395132,46.51137815769094,40
2143.0664,79.98349427272731,79.34757783691484,72.66284373486127,75.98298640520159,43.36459143171325,46.68473410205357,40
2219.2383,79.89068027272731,79.14898189424545,72.20519890956564,75.33034687164763,43.81863502259782,46.943782984679814,40
2296.875,80.68862827272733,79.83486486359317,72.57109490286363,75.60461578419685,44.230249079396316,47.26376996072953,40
2378.9063,81.07439627272731,80.2103061483223,72.96073754013743,75.90245276663677,44.30785338168553,47.24956860818487,40
2462.4023,81.07473027272731,80.32771864182286,73.35714136608904,75.96708365725735,44.36063498456551,46.97057727573382,40
2548.8281,81.3395062727273,80.6373319085562,73.7113710999823,76.24940493474949,44.387926973806714,46.925960808573905,40
2639.6484,81.2144762727273,80.50400242407575,73.80170601159587,76.27168776411486,44.23231465996089,46.70229641247988,40
2731.9336,81.0969932727273,80.35887846971886,73.98489673969705,76.18739288748027,44.17148558223859,46.37398173002181,40
2828.6133,82.23511027272731,81.39264557242092,74.56227212812698,77.01700662495008,44.37563894747083,46.83037344429394,40
2928.2227,81.4631232727273,80.74513952324223,74.21855604673766,76.71536247762816,44.02977704561407,46.52658347650457,40
3030.7617,80.70336627272732,80.03276749514154,73.79448885943336,76.25877626232011,43.77399123282143,46.238278635708184,40
3137.6953,81.0296962727273,80.40850945082965,74.06163802245408,76.64077360138583,43.767735849443824,46.34687142837558,40
3249.0234,80.97070727272731,80.47518876662762,74.22789547833302,76.795563870235,43.679624896392625,46.2472932882946,40
3363.2813,80.9169182727273,80.30649020719454,74.1117040424059,76.56963403486922,43.73685617232532,46.19478616478864,40
3481.9336,80.41448227272733,80.07083660118921,74.24837138015609,76.69508985334303,43.37574674784618,45.82246522103313,40
3604.9805,80.2255962727273,80.00194592418507,74.25940303102023,76.75044920473681,43.251496719448255,45.74254289316484,40
3732.4219,80.27416327272731,80.06450362732838,74.42383718245975,76.91231009311328,43.1521935342151,45.64066644486863,40
3864.2578,79.06924027272731,79.24364075190311,73.90949718493827,76.38248311560761,42.8611576362955,45.33414356696484,40
4000.4883,79.7710512727273,79.92203694086687,74.21065882704528,76.84614725258004,43.075889688286836,45.711378113821596,40
4141.1133,78.42512427272732,78.93780680517207,73.57524607474151,76.11058324614967,42.8272235590224,45.36256073043056,40
4287.5977,78.7817282727273,79.31997034894901,73.5137236024185,76.20829913934553,43.111671209603486,45.80624674653052,40
4438.4766,78.09942827272731,78.78773950718168,73.12107351469996,75.72917411973057,43.05856538745111,45.666665992481725,40
4595.2148,78.32355727272731,78.86149673530608,72.89951974162057,75.55052495306958,43.31097178223649,45.96197699368551,40
4756.3477,77.80405527272731,78.3646919909548,72.35140215821289,74.9972115045937,43.3674804863611,46.013289832741904,40
4924.8047,78.0817722727273,78.44059467884048,72.34438965475093,74.97690744927989,43.46368722956059,46.096205024089556,40
5097.6563,78.3315262727273,78.37101160965722,72.02297866877042,74.75455398167738,43.61645762797984,46.348032940886796,40
5277.832,78.4748582727273,78.37066874162913,72.15997857701251,74.8085298380803,43.56213890354883,46.21069016461662,40
5463.8672,78.78992327272731,78.42523710563952,72.06327278373479,74.80632503357756,43.61891207206196,46.361964321904736,40
5657.2266,79.6941082727273,78.88308779964048,72.26190094286935,75.08087717619196,43.80221062344852,46.62118685677113,40
5856.4453,79.41873227272731,78.47826099391865,72.13969139524025,74.82468316328492,43.653577830633736,46.338569598678404,40
6062.9883,80.03055127272731,79.00678003794691,72.63982406599817,75.29887477541759,43.70790526252932,46.36695597194874,40
6276.8555,79.82155927272731,78.7657707975495,72.55626096936132,75.13232870003895,43.63344209751054,46.209509828188175,40
6498.0469,79.53744827272729,78.61842623148333,72.79798097945996,75.12634412666155,43.492082104821776,45.82044525202336,40
6726.5625,78.24652527272731,77.8261845359882,72.16010444747705,74.39831357513636,43.42787096085185,45.66608008851115,40
6963.8672,78.75187327272731,77.98430324018321,71.82388806340677,74.42261555406455,43.56168768611866,46.16041517677644,40
7209.9609,79.89367927272733,78.5073328001764,71.8105118605809,74.81100990174829,43.69632289842811,46.6968209395955,40
