Freq,On Axis,Listening Window,Sound Power,Early Reflections,Early Reflections DI,Sound Power DI,DI offset
20.507813,39.135914,39.03778130409735,41.390713689375545,39.29591834524071,39.74186295885664,37.647067614721806,40
21.972656,45.42732099999999,45.610679192301674,49.00581382527942,47.042224949687565,38.56845424261411,36.604865367022256,40
23.4375,51.063119999999984,51.12859566405585,52.76966168047038,51.687013182538536,39.441582481517315,38.35893398358547,40
24.902344,53.03409499999999,53.057379576907564,53.83551350420073,53.223868181423214,39.83351139548435,39.22186607270683,40
26.367188,54.34929100000001,54.359209064153774,54.902197443675036,54.40892485330845,39.950284210845325,39.45701162047874,40
27.832031,56.780963,56.78579563200823,57.19905172711087,56.801865303241826,39.983930328766405,39.58674390489736,40
29.296875,58.985457,58.98536502768114,59.26813846018945,58.96012513206381,40.02523989561733,39.71722656749169,40
30.761719,60.62928699999999,60.62559038591364,60.81848614235881,60.569710115014885,40.055880270898754,39.80710424355483,40
32.226563,62.254329999999996,62.24998749809842,62.421943830225715,62.19375283255013,40.05623466554829,39.828043667872706,40
33.691406,63.76035900000001,63.75053776985267,63.77655511930028,63.636088566448976,40.114449203403694,39.97398265055239,40
35.15625,65.31007699999999,65.29566882872481,65.19473178343942,65.12915028823836,40.16651854048645,40.10093704528539,40
36.621094,66.473112,66.45697758893216,66.29641025723244,66.26732307759072,40.189654511341445,40.160567331699724,40
38.085938,67.312858,67.29667717193173,67.11830850020512,67.10324765162748,40.19342952030425,40.178368671726616,40
39.550781,68.041026,68.02492208724439,67.8366890231667,67.83069550319742,40.19422658404697,40.18823306407769,40
41.015625,68.718029,68.70206423482453,68.50585154147424,68.50744317163341,40.19462106319112,40.19621269335029,40
42.480469,69.39800999999999,69.38238533071821,69.17973275160595,69.18776001353127,40.19462531718693,40.202652579112254,40
43.945313,70.027703,70.01242856260329,69.80757207813728,69.81874924049568,40.19367932210761,40.204856484466006,40
45.410156,70.598565,70.58301143230507,70.36425025815797,70.3848453212027,40.19816611110237,40.218761174147104,40
46.875,71.087559,71.07170150914742,70.84274144362142,70.87064896720165,40.20105254194577,40.228960065525996,40
48.339844,71.521507,71.50550605187007,71.26758904278701,71.30240200071965,40.20310405115042,40.23791700908306,40
51.269531,72.374261,72.35722964199864,72.0925876106919,72.14515543621678,40.21207420578186,40.26464203130675,40
52.734375,72.79999600000001,72.78251260441486,72.50708244679487,72.56672180782674,40.215790796588124,40.275430157619994,40
54.199219,73.20330500000001,73.18546853611687,72.9020311322931,72.96699422100114,40.21847431511573,40.28343740382377,40
55.664063,73.52904599999998,73.50898428033645,73.17618395199001,73.26959165915436,40.23939262118209,40.33280032834644,40
58.59375,74.166945,74.14628834436725,73.80265267180336,73.90326019833302,40.243028146034234,40.34363567256389,40
60.058594,74.528537,74.50730044695159,74.15368311804862,74.2606031255331,40.246697321418495,40.35361732890297,40
62.988281,75.19470399999999,75.171264514513,74.76814717460464,74.90300365658251,40.268260857930485,40.40311733990836,40
64.453125,75.48693899999999,75.46316906137781,75.05174156151483,75.19209759051363,40.271071470864186,40.41142749986298,40
67.382813,75.98087,75.9572688460536,75.5554592440167,75.69235556469765,40.264913281355945,40.40180960203689,40
68.847656,76.198188,76.17448973097572,75.77371114220666,75.91067799551026,40.26381173546547,40.40077858876906,40
71.777344,76.738188,76.71437481510038,76.31648819758801,76.45254645309734,40.261828362003044,40.39788661751237,40
74.707031,77.25183300000002,77.22750836464262,76.81974108575609,76.96199324882694,40.265515115815674,40.407767278886524,40
77.636719,77.58737599999999,77.56312094605241,77.16103157900605,77.30113833067742,40.26198261537499,40.40208936704636,40
79.101563,77.78846,77.76373035285941,77.35476991793746,77.49880740427245,40.26492294858696,40.40896043492195,40
82.03125,78.291818,78.26621483856897,77.84325458862091,77.99523658217159,40.270978256397385,40.42296024994806,40
84.960938,78.714831,78.68863379410021,78.25901323950708,78.41458920954888,40.27404458455133,40.42962055459313,40
87.890625,78.960245,78.93339497311601,78.49706193225231,78.65651850856894,40.27687646454707,40.4363330408637,40
90.820313,79.299176,79.27097902257184,78.81106739690935,78.98346760816659,40.287511414405245,40.459911625662485,40
95.214844,79.739187,79.71031012093717,79.24698347270227,79.42132798148528,40.28898213945189,40.4633266482349,40
98.144531,79.916603,79.88718808664706,79.42372063263754,79.59813975533554,40.28904833131152,40.46346745400952,40
101.07422,80.142301,80.11186842741195,79.63626214063963,79.81741912346361,40.29444930394834,40.47560628677232,40
105.46875,80.421454,80.38980716768391,79.90213401510793,80.08963169027523,40.300175477408686,40.48767315257598,40
108.39844,80.542776,80.50986817530226,80.00877066485158,80.20313795621514,40.306730219087115,40.50109751045068,40
112.79297,80.81900600000002,80.78344872339443,80.22652967909616,80.45119106956365,40.33225765383078,40.55691904429827,40
117.1875,80.922214,80.88779269018028,80.37920129031825,80.57705092701447,40.31074176316581,40.50859139986203,40
120.11719,81.021938,80.98453497187607,80.42834102735442,80.6503477389787,40.33418723289738,40.55619394452165,40
124.51172,81.073874,81.03539215135265,80.45802424305866,80.69121018363937,40.34418196771328,40.57736790829399,40
128.90625,81.12358,81.0832130887734,80.48076451437765,80.72651390868215,40.356699180091255,40.60244857439575,40
133.30078,81.180456,81.13857289786544,80.50515387279115,80.76671233981064,40.371860558054806,40.63341902507429,40
139.16016,81.20246,81.16029399114822,80.5267270773278,80.78899447239934,40.371299518748884,40.63356691382042,40
143.55469,81.119306,81.07676663213117,80.46298273568591,80.71426273337346,40.36250389875771,40.613783896445256,40
147.94922,81.041599,80.99703480965957,80.36756828877321,80.62593150402141,40.37110330563816,40.62946652088635,40
153.80859,80.969629,80.92213100225116,80.25694876623301,80.53190236914537,40.39022863310579,40.665182236018154,40
159.66797,80.949082,80.89919522463708,80.20741123361647,80.49562435272473,40.40357087191235,40.691783991020614,40
165.52734,80.881533,80.82823292245499,80.08621605509042,80.39932905211136,40.42890387034363,40.74201686736457,40
171.38672,80.87682,80.82242042287778,80.04650761341973,80.37909701842246,40.44332340445533,40.77591280945805,40
177.24609,80.72903700000002,80.67490710354973,79.94649852869581,80.2524230585184,40.422484045031325,40.728408574853916,40
183.10547,80.547927,80.48992550428305,79.73965555114057,80.05436195488238,40.43556354940067,40.75026995314248,40
188.96484,80.474897,80.4108135449077,79.55824135020593,79.92718809446886,40.483625450438836,40.852572194701764,40
196.28906,80.51567999999999,80.45050995466356,79.56610070528419,79.95334103821976,40.4971689164438,40.884409249379374,40
203.61328,80.328845,80.2620032566311,79.38798298954647,79.76789665122219,40.494106605408916,40.87402026708463,40
210.9375,80.093691,80.02326248999722,79.12496463360692,79.51489700001126,40.50836548998596,40.8982978563903,40
218.26172,79.925274,79.84895825280967,78.88546716207235,79.30763249147286,40.54132576133681,40.96349109073732,40
225.58594,79.833615,79.747837119168,78.63806513294038,79.13510013709303,40.61273698207496,41.109771986227614,40
232.91016,80.020371,79.93474272088292,78.68433674892391,79.26535001384703,40.6693927070359,41.25040597195901,40
241.69922,79.75325500000001,79.66871893550378,78.52997861159919,79.04507412033784,40.62364481516593,41.138740323904585,40
250.48828,79.674963,79.58422666869127,78.36912887685955,78.91859687039789,40.66562979829338,41.215097791831724,40
259.27734,79.658499,79.56433565280874,78.2918350111802,78.8691036620638,40.695231990744944,41.27250064162854,40
268.06641,79.64963000000002,79.55231719504431,78.25585749834126,78.84377346531286,40.708543729731446,41.29645969670305,40
276.85547,79.467905,79.3626816241798,78.0304443438385,78.6319767548747,40.7307048693051,41.3322372803413,40
287.10938,79.507506,79.39234709846708,77.80581992747656,78.55282085817909,40.839526240287995,41.58652717099052,40
297.36328,79.651708,79.53629018720581,77.83357264569096,78.65562584889824,40.88066433830757,41.70271754151484,40
307.61719,79.489523,79.37325127260037,77.64846067185702,78.47830817506667,40.8949430975337,41.72479060074335,40
319.33594,79.666555,79.54904985711364,77.77082316066436,78.62969562379824,40.9193542333154,41.77822669644928,40
329.58984,79.580961,79.45528994130123,77.60817032342375,78.50829808695055,40.946991854350685,41.84711961787748,40
341.30859,79.644323,79.52091410255447,77.65027757793845,78.57002968552031,40.95088441703416,41.87063652461602,40
353.02734,79.384358,79.25343748835644,77.36288132596435,78.28685845557231,40.966579032784125,41.89055616239209,40
366.21094,79.370624,79.23203456688668,77.14597757127636,78.17939803948363,41.05263652740305,42.08605699561032,40
379.39453,79.435581,79.29714391560258,77.04531395772138,78.1794339737388,41.11770994186378,42.2518299578812,40
392.57813,79.543662,79.39381466546943,76.92512249943549,78.19231302808026,41.20150163738917,42.46869216603395,40
405.76172,79.745371,79.60296168354142,77.10979557919237,78.39778587635755,41.20517580718388,42.49316610434906,40
420.41016,79.27240399999998,79.12854774340612,76.7668727442935,77.96487526190582,41.1636724815003,42.36167499911262,40
435.05859,79.40010300000002,79.25255943100636,76.54213460867103,77.959715708199,41.29284372280736,42.71042482233533,40
451.17188,79.276626,79.12957635460538,76.5190673256411,77.86545097374979,41.26412538085559,42.61050902896427,40
465.82031,79.698184,79.53659064939426,76.55987234548574,78.13071228814061,41.40587836125364,42.97671830390851,40
483.39844,79.910038,79.76736780415271,76.87919688207681,78.41561001400828,41.35175779014443,42.8881709220759,40
499.51172,80.589864,80.43708098857797,77.29481099826161,78.98737950653783,41.44970148204014,43.142269990316365,40
517.08984,80.998064,80.86380561203019,77.93661588851243,79.50417356165138,41.359632050378806,42.927189723517756,40
536.13281,80.823135,80.67396368954725,77.82270887427879,79.33219795286327,41.34176573668398,42.85125481526846,40
555.17578,80.81641600000002,80.67700117868112,77.6045058093002,79.24601773750459,41.43098344117654,43.07249536938092,40
574.21875,80.960745,80.80460682682413,77.54272541492502,79.28489896343102,41.51970786339311,43.26188141189911,40
594.72656,80.947703,80.80746069288902,77.53135535865297,79.28040770420101,41.52705298868801,43.27610533423605,40
615.23438,80.582761,80.45695930687994,77.21544690975563,78.97660668437189,41.48035262250805,43.24151239712431,40
637.20703,80.649027,80.50774419478495,77.11151841600858,78.94382280595629,41.56392138882866,43.39622577877637,40
659.17969,80.125266,80.00378154842774,76.91985113886764,78.59561871410598,41.40816283432176,43.0839304095601,40
682.61719,79.783203,79.63430582923465,76.47582496117593,78.17618355810576,41.458122271128886,43.15848086805872,40
707.51953,79.658183,79.53215709803116,76.30832979680115,78.0692294944666,41.462927603564566,43.22382730123002,40
732.42188,79.220998,79.09980411177158,76.02274156918945,77.73198813980181,41.36781597196976,43.07706254258213,40
757.32422,78.82244,78.6901863867363,75.82132448959193,77.3871349091278,41.303051477608506,42.86886189714437,40
785.15625,78.841109,78.65656782806441,75.47032403515558,77.24784070792035,41.408727120144064,43.186243792908826,40
811.52344,78.33467899999998,78.13717479461879,75.18558670358716,76.8034333171706,41.333741477448186,42.951588091031624,40
840.82031,78.606643,78.35535526867224,75.3135412401661,77.02177554453867,41.33357972413357,43.04181402850614,40
870.11719,78.637029,78.26025626588749,74.61468037294941,76.46804929272004,41.79220697316745,43.64557589293808,40
900.87891,78.306551,77.93201470986807,74.24094130022955,76.06014153866649,41.871873171201585,43.69107340963852,40
933.10547,79.127113,78.71926444489488,74.53566856460743,76.5669848151769,42.15227962971798,44.18359588028744,40
965.33203,79.768285,79.35683789153524,74.90800796826638,77.14441975041815,42.212418141117084,44.44882992326886,40
1000.4883,80.14419100000002,79.73758404580009,75.16705736298552,77.41445344794953,42.323130597850565,44.570526682814574,40
1035.6445,80.116744,79.70077923352729,75.05048508047999,77.29806789241584,42.40271134111144,44.6502941530473,40
1072.2656,79.700776,79.29587874161692,74.55562516379557,76.81457419937625,42.481304542240665,44.74025357782135,40
1108.8867,79.56458000000002,79.13095527996612,74.35816992732425,76.6434572688921,42.48749801107401,44.77278535264186,40
1148.4375,79.786737,79.39383423764635,74.55593049672599,76.8766788721736,42.517155365472746,44.83790374092035,40
1189.4531,80.791708,80.36075144226704,75.11877362947934,77.56005512516693,42.80069631710012,45.24197781278771,40
1230.4688,81.306036,80.88438148027316,75.51417682132158,78.05673738041473,42.82764409985843,45.37020465895158,40
1274.4141,81.361034,80.94360362569859,75.5338238601161,78.03565909143056,42.907944534268026,45.409779765582485,40
1319.8242,81.143348,80.74889089273536,75.31420643396827,77.93802859321606,42.8108622995193,45.434684458767094,40
1366.6992,80.764766,80.43303115019305,75.08421066355083,77.69100126822995,42.74202988196309,45.34882048664221,40
1413.5742,80.692435,80.28968292157349,74.80444705992436,77.56767518249005,42.72200773908344,45.48523586164913,40
1463.3789,80.192562,79.87224014595792,74.6754132356861,77.44323287095231,42.4290072750056,45.196826910271824,40
1516.1133,80.504904,80.11501705687941,74.74025549830196,77.65379795110239,42.46121910577702,45.37476155857745,40
1568.8477,80.22865700000001,79.8234562547016,74.57666521552257,77.50195429376372,42.32150196093788,45.24679103917903,40
1624.5117,80.110703,79.75907310700758,74.50840037315878,77.5322861630829,42.22678694392468,45.2506727338488,40
1681.6406,80.259637,79.89219718351838,74.41216092316793,77.46145025636567,42.43074692715271,45.480036260350445,40
1741.6992,80.574387,80.15793399058315,74.47023459982239,77.57680837536729,42.58112561521585,45.687699390760756,40
1803.2227,80.880757,80.34692700484437,74.31817773873527,77.67877035248641,42.668156652357965,46.0287492661091,40
1866.2109,79.933361,79.45654540858939,73.56238445459164,76.969779692165,42.48676571642439,45.894160953997755,40
1932.1289,79.415204,78.8783451691304,72.9489499929688,76.33836142755518,42.53998374157521,45.92939517616159,40
1999.5117,80.05512599999999,79.47511585398814,73.19021320676421,76.55150874371732,42.92360711027082,46.28490264722393,40
2069.8242,80.491952,79.88002262342063,73.36864446572969,76.7008348194693,43.17918780395132,46.51137815769094,40
2143.0664,80.054207,79.41829056418753,72.73355646213396,76.05369913247428,43.36459143171325,46.68473410205357,40
2219.2383,79.961393,79.21969462151814,72.27591163683833,75.40105959892033,43.81863502259782,46.943782984679814,40
2296.875,80.75934100000002,79.90557759086586,72.64180763013633,75.67532851146954,44.230249079396316,47.26376996072953,40
2378.9063,81.145109,80.281018875595,73.03145026741012,75.97316549390946,44.30785338168553,47.24956860818487,40
2462.4023,81.145443,80.39843136909555,73.42785409336173,76.03779638453004,44.36063498456551,46.97057727573382,40
2548.8281,81.410219,80.7080446358289,73.782083827255,76.32011766202218,44.387926973806714,46.925960808573905,40
2639.6484,81.28518899999999,80.57471515134844,73.87241873886856,76.34240049138755,44.23231465996089,46.70229641247988,40
2731.9336,81.167706,80.42959119699155,74.05560946696974,76.25810561475296,44.17148558223859,46.37398173002181,40
2828.6133,82.305823,81.46335829969361,74.63298485539967,77.08771935222278,44.37563894747083,46.83037344429394,40
2928.2227,81.533836,80.81585225051492,74.28926877401035,76.78607520490085,44.02977704561407,46.52658347650457,40
3030.7617,80.77407900000001,80.10348022241423,73.86520158670605,76.3294889895928,43.77399123282143,46.238278635708184,40
3137.6953,81.100409,80.47922217810235,74.13235074972677,76.71148632865852,43.767735849443824,46.34687142837558,40
3249.0234,81.04142,80.54590149390032,74.29860820560572,76.86627659750769,43.679624896392625,46.2472932882946,40
3363.2813,80.987631,80.37720293446723,74.1824167696786,76.64034676214192,43.73685617232532,46.19478616478864,40
3481.9336,80.48519500000002,80.1415493284619,74.31908410742878,76.76580258061573,43.37574674784618,45.82246522103313,40
3604.9805,80.296309,80.07265865145776,74.33011575829292,76.8211619320095,43.251496719448255,45.74254289316484,40
3732.4219,80.344876,80.13521635460107,74.49454990973244,76.98302282038597,43.1521935342151,45.64066644486863,40
3864.2578,79.139953,79.31435347917581,73.98020991221097,76.4531958428803,42.8611576362955,45.33414356696484,40
4000.4883,79.841764,79.99274966813957,74.28137155431797,76.91685997985273,43.075889688286836,45.711378113821596,40
4141.1133,78.49583700000001,79.00851953244477,73.6459588020142,76.18129597342237,42.8272235590224,45.36256073043056,40
4287.5977,78.852441,79.3906830762217,73.58443632969119,76.27901186661822,43.111671209603486,45.80624674653052,40
4438.4766,78.170141,78.85845223445438,73.19178624197265,75.79988684700326,43.05856538745111,45.666665992481725,40
4595.2148,78.39427,78.93220946257877,72.97023246889326,75.62123768034228,43.31097178223649,45.96197699368551,40
4756.3477,77.874768,78.43540471822749,72.42211488548558,75.06792423186639,43.3674804863611,46.013289832741904,40
4924.8047,78.152485,78.51130740611318,72.41510238202362,75.04762017655258,43.46368722956059,46.096205024089556,40
5097.6563,78.402239,78.44172433692991,72.09369139604311,74.82526670895007,43.61645762797984,46.348032940886796,40
5277.832,78.545571,78.44138146890182,72.2306913042852,74.879242565353,43.56213890354883,46.21069016461662,40
5463.8672,78.860636,78.49594983291222,72.13398551100748,74.87703776085026,43.61891207206196,46.361964321904736,40
5657.2266,79.764821,78.95380052691317,72.33261367014204,75.15158990346465,43.80221062344852,46.62118685677113,40
5856.4453,79.489445,78.54897372119135,72.21040412251294,74.89539589055761,43.653577830633736,46.338569598678404,40
6062.9883,80.101264,79.0774927652196,72.71053679327086,75.36958750269028,43.70790526252932,46.36695597194874,40
6276.8555,79.892272,78.83648352482219,72.62697369663401,75.20304142731165,43.63344209751054,46.209509828188175,40
6498.0469,79.60816099999998,78.68913895875602,72.86869370673266,75.19705685393424,43.492082104821776,45.82044525202336,40
6726.5625,78.317238,77.8968972632609,72.23081717474975,74.46902630240905,43.42787096085185,45.66608008851115,40
6963.8672,78.822586,78.0550159674559,71.89460079067946,74.49332828133724,43.56168768611866,46.16041517677644,40
7209.9609,79.96439200000002,78.57804552744909,71.8812245878536,74.88172262902098,43.69632289842811,46.6968209395955,40
7464.8438,79.46237599999999,78.13753501634267,71.5096333730947,74.5535635630291,43.583971453313566,46.62790164324797,40
7727.0508,78.92795400000001,78.12162765240785,71.78256374448232,74.53368993550215,43.5879377169057,46.339063907925535,40
7999.5117,78.443367,78.33331218226783,72.0439970240109,74.62500686900505,43.708305313262784,46.289315158256926,40
8282.2266,77.815544,78.71511160364398,72.47153764905131,74.92147892378811,43.79363267985586,46.24357395459266,40
8573.7305,78.461998,79.56518434578224,73.10384547762048,75.62729678256194,43.9378875632203,46.46133886816176,40
8876.9531,78.88450299999998,79.86235459952653,73.110090845269,75.75673810280257,44.105616496723954,46.75226375425753,40
9188.9648,79.453831,79.90493103649779,73.00547483490041,75.72199576189311,44.182935274604674,46.899456201597374,40
9514.1602,79.921393,79.7551591901007,72.86222994999008,75.58579520602215,44.169363984078544,46.89292924011062,40
9849.6094,80.251058,79.62966478614065,72.59515988255596,75.39766375315301,44.23200103298764,47.03450490358469,40
