Freq "Listening Window"
20.507813 38.96706857682466
21.972656 45.53996646502898
23.4375 51.05788293678316
24.902344 52.98666684963487
26.367188 54.28849633688108
27.832031 56.71508290473554
29.296875 58.91465230040845
30.761719 60.55487765864095
32.226563 62.17927477082573
33.691406 63.67982504257998
35.15625 65.22495610145212
36.621094 66.38626486165947
38.085938 67.22596444465904
39.550781 67.9542093599717
41.015625 68.63135150755184
42.480469 69.31167260344552
43.945313 69.9417158353306
45.410156 70.51229870503238
46.875 71.00098878187472
48.339844 71.43479332459738
51.269531 72.28651691472595
52.734375 72.71179987714217
54.199219 73.11475580884418
55.664063 73.43827155306376
58.59375 74.07557561709456
60.058594 74.4365877196789
62.988281 75.1005517872403
64.453125 75.39245633410512
67.382813 75.8865561187809
68.847656 76.10377700370303
71.777344 76.64366208782769
74.707031 77.15679563736992
77.636719 77.49240821877972
79.101563 77.69301762558672
82.03125 78.19550211129628
84.960938 78.61792106682752
87.890625 78.86268224584332
90.820313 79.20026629529914
95.214844 79.63959739366447
98.144531 79.81647535937437
101.07422 80.04115570013926
105.46875 80.31909444041122
108.39844 80.43915544802957
112.79297 80.71273599612174
117.1875 80.81707996290758
120.11719 80.91382224460338
124.51172 80.96467942407996
128.90625 81.01250036150071
133.30078 81.06786017059275
139.16016 81.08958126387553
143.55469 81.00605390485848
147.94922 80.92632208238687
153.80859 80.85141827497847
159.66797 80.82848249736439
165.52734 80.7575201951823
171.38672 80.75170769560509
177.24609 80.60419437627704
183.10547 80.41921277701036
188.96484 80.340100817635
196.28906 80.37979722739087
203.61328 80.19129052935841
210.9375 79.95254976272453
218.26172 79.77824552553697
225.58594 79.6771243918953
232.91016 79.86402999361023
241.69922 79.59800620823108
250.48828 79.51351394141858
259.27734 79.49362292553604
268.06641 79.48160446777162
276.85547 79.29196889690711
287.10938 79.32163437119439
297.36328 79.46557745993312
307.61719 79.30253854532768
319.33594 79.47833712984095
329.58984 79.38457721402854
341.30859 79.45020137528178
353.02734 79.18272476108375
366.21094 79.16132183961399
379.39453 79.22643118832988
392.57813 79.32310193819674
405.76172 79.53224895626873
420.41016 79.05783501613342
435.05859 79.18184670373367
451.17188 79.05886362733268
465.82031 79.46587792212156
483.39844 79.69665507688002
499.51172 80.36636826130528
517.08984 80.7930928847575
536.13281 80.60325096227456
555.17578 80.60628845140843
574.21875 80.73389409955143
594.72656 80.73674796561633
615.23438 80.38624657960725
637.20703 80.43703146751226
659.17969 79.93306882115505
682.61719 79.56359310196196
707.51953 79.46144437075847
732.42188 79.02909138449888
757.32422 78.61947365946361
785.15625 78.58585510079172
811.52344 78.0664620673461
840.82031 78.28464254139955
870.11719 78.1895435386148
900.87891 77.86130198259538
933.10547 78.64855171762218
965.33203 79.28612516426254
1000.4883 79.6668713185274
1035.6445 79.6300665062546
1072.2656 79.22516601434423
1108.8867 79.06024255269342
1148.4375 79.32312151037365
1189.4531 80.29003871499435
1230.4688 80.81366875300047
1274.4141 80.8728908984259
1319.8242 80.67817816546267
1366.6992 80.36231842292035
1413.5742 80.2189701943008
1463.3789 79.80152741868523
1516.1133 80.04430432960672
1568.8477 79.7527435274289
1624.5117 79.68836037973489
1681.6406 79.82148445624568
1741.6992 80.08722126331045
1803.2227 80.27621427757168
1866.2109 79.3858326813167
1932.1289 78.8076324418577
1999.5117 79.40440312671545
2069.8242 79.80930989614794
2143.0664 79.34757783691484
2219.2383 79.14898189424545
2296.875 79.83486486359317
2378.9063 80.2103061483223
2462.4023 80.32771864182286
2548.8281 80.6373319085562
2639.6484 80.50400242407575
2731.9336 80.35887846971886
2828.6133 81.39264557242092
2928.2227 80.74513952324223
3030.7617 80.03276749514154
3137.6953 80.40850945082965
3249.0234 80.47518876662762
3363.2813 80.30649020719454
3481.9336 80.07083660118921
3604.9805 80.00194592418507
3732.4219 80.06450362732838
3864.2578 79.24364075190311
4000.4883 79.92203694086687
4141.1133 78.93780680517207
4287.5977 79.31997034894901
4438.4766 78.78773950718168
4595.2148 78.86149673530608
4756.3477 78.3646919909548
4924.8047 78.44059467884048
5097.6563 78.37101160965722
5277.832 78.37066874162913
5463.8672 78.42523710563952
5657.2266 78.88308779964048
5856.4453 78.47826099391865
6062.9883 79.00678003794691
6276.8555 78.7657707975495
6498.0469 78.61842623148333
6726.5625 77.8261845359882
6963.8672 77.98430324018321
7209.9609 78.5073328001764
7464.8438 78.06682228906998
7727.0508 78.05091492513516
7999.5117 78.26259945499514
8282.2266 78.64439887637128
8573.7305 79.49447161850955
8876.9531 79.79164187225383
9188.9648 79.8342183092251
9514.1602 79.684446462828
9849.6094 79.55895205886796
10196.777 79.57014039554943
10555.664 79.59332038052405
10927.734 79.63387806678693
11312.988 79.65733899986341
11712.891 79.63271594826627
12125.977 79.62155809012589
12553.711 79.43733051720967
12996.094 79.1071964932935
13454.59 78.84877319377878
13929.199 78.58170595995081
14419.922 78.48536740206669
14928.223 78.46803693169693
15455.566 78.43271335569642
16000.488 78.32381398603849
16564.453 78.4652077781796
17148.926 78.6788411339413
17752.441 78.75359877538529
18379.395 78.63171940182443
19026.855 78.26709628847615
19697.754 77.98305057348043
19999.512 78.08600742742267
