Freq "On Axis"
20.507813 39.06520127272731
21.972656 45.3566082727273
23.4375 50.99240727272729
24.902344 52.9633822727273
26.367188 54.278578272727316
27.832031 56.71025027272731
29.296875 58.914744272727305
30.761719 60.5585742727273
32.226563 62.183617272727304
33.691406 63.689646272727316
35.15625 65.2393642727273
36.621094 66.40239927272731
38.085938 67.24214527272731
39.550781 67.97031327272731
41.015625 68.64731627272731
42.480469 69.3272972727273
43.945313 69.95699027272731
45.410156 70.5278522727273
46.875 71.0168462727273
48.339844 71.45079427272731
51.269531 72.30354827272731
52.734375 72.72928327272732
54.199219 73.13259227272732
55.664063 73.45833327272729
58.59375 74.0962322727273
60.058594 74.45782427272731
62.988281 75.1239912727273
64.453125 75.4162262727273
67.382813 75.9101572727273
68.847656 76.12747527272731
71.777344 76.6674752727273
74.707031 77.18112027272733
77.636719 77.5166632727273
79.101563 77.71774727272731
82.03125 78.22110527272731
84.960938 78.64411827272731
87.890625 78.88953227272731
90.820313 79.22846327272731
95.214844 79.66847427272731
98.144531 79.8458902727273
101.07422 80.07158827272731
105.46875 80.3507412727273
108.39844 80.47206327272731
112.79297 80.74829327272732
117.1875 80.8515012727273
120.11719 80.95122527272731
124.51172 81.00316127272731
128.90625 81.05286727272731
133.30078 81.10974327272731
139.16016 81.13174727272731
143.55469 81.0485932727273
147.94922 80.97088627272731
153.80859 80.8989162727273
159.66797 80.87836927272731
165.52734 80.81082027272731
171.38672 80.8061072727273
177.24609 80.65832427272733
183.10547 80.47721427272731
188.96484 80.4041842727273
196.28906 80.4449672727273
203.61328 80.25813227272731
210.9375 80.02297827272731
218.26172 79.85456127272731
225.58594 79.7629022727273
232.91016 79.9496582727273
241.69922 79.68254227272732
250.48828 79.60425027272731
259.27734 79.58778627272731
268.06641 79.57891727272732
276.85547 79.39719227272731
287.10938 79.43679327272731
297.36328 79.58099527272731
307.61719 79.41881027272731
319.33594 79.59584227272731
329.58984 79.51024827272731
341.30859 79.57361027272731
353.02734 79.31364527272731
366.21094 79.29991127272731
379.39453 79.3648682727273
392.57813 79.4729492727273
405.76172 79.67465827272731
420.41016 79.20169127272729
435.05859 79.32939027272732
451.17188 79.2059132727273
465.82031 79.6274712727273
483.39844 79.83932527272731
499.51172 80.51915127272731
517.08984 80.92735127272731
536.13281 80.7524222727273
555.17578 80.74570327272733
574.21875 80.89003227272731
594.72656 80.87699027272731
615.23438 80.51204827272731
637.20703 80.57831427272731
659.17969 80.0545532727273
682.61719 79.71249027272731
707.51953 79.5874702727273
732.42188 79.1502852727273
757.32422 78.75172727272731
785.15625 78.77039627272731
811.52344 78.26396627272729
840.82031 78.53593027272731
870.11719 78.5663162727273
900.87891 78.2358382727273
933.10547 79.0564002727273
965.33203 79.69757227272731
1000.4883 80.07347827272733
1035.6445 80.0460312727273
1072.2656 79.63006327272731
1108.8867 79.49386727272733
1148.4375 79.71602427272731
1189.4531 80.72099527272731
1230.4688 81.23532327272731
1274.4141 81.29032127272731
1319.8242 81.07263527272731
1366.6992 80.6940532727273
1413.5742 80.62172227272731
1463.3789 80.1218492727273
1516.1133 80.4341912727273
1568.8477 80.15794427272732
1624.5117 80.03999027272731
1681.6406 80.1889242727273
1741.6992 80.50367427272731
1803.2227 80.81004427272731
1866.2109 79.86264827272731
1932.1289 79.34449127272731
1999.5117 79.9844132727273
2069.8242 80.4212392727273
2143.0664 79.98349427272731
2219.2383 79.89068027272731
2296.875 80.68862827272733
2378.9063 81.07439627272731
2462.4023 81.07473027272731
2548.8281 81.3395062727273
2639.6484 81.2144762727273
2731.9336 81.0969932727273
2828.6133 82.23511027272731
2928.2227 81.4631232727273
3030.7617 80.70336627272732
3137.6953 81.0296962727273
3249.0234 80.97070727272731
3363.2813 80.9169182727273
3481.9336 80.41448227272733
3604.9805 80.2255962727273
3732.4219 80.27416327272731
3864.2578 79.06924027272731
4000.4883 79.7710512727273
4141.1133 78.42512427272732
4287.5977 78.7817282727273
4438.4766 78.09942827272731
4595.2148 78.32355727272731
4756.3477 77.80405527272731
4924.8047 78.0817722727273
5097.6563 78.3315262727273
5277.832 78.4748582727273
5463.8672 78.78992327272731
5657.2266 79.6941082727273
5856.4453 79.41873227272731
6062.9883 80.03055127272731
6276.8555 79.82155927272731
6498.0469 79.53744827272729
6726.5625 78.24652527272731
6963.8672 78.75187327272731
7209.9609 79.89367927272733
7464.8438 79.3916632727273
7727.0508 78.85724127272732
7999.5117 78.3726542727273
8282.2266 77.74483127272731
8573.7305 78.3912852727273
8876.9531 78.81379027272729
9188.9648 79.3831182727273
9514.1602 79.8506802727273
9849.6094 80.18034527272731
10196.777 80.28083827272732
10555.664 80.38423027272731
10927.734 80.51329927272731
11312.988 80.55239027272731
11712.891 80.40330627272732
12125.977 80.5902452727273
12553.711 80.28518927272731
12996.094 79.8948392727273
13454.59 79.7699662727273
13929.199 79.29453027272731
14419.922 79.4283372727273
14928.223 79.3653822727273
15455.566 79.52202227272731
16000.488 79.36098427272731
16564.453 79.62752127272731
17148.926 79.85032227272731
17752.441 79.8618572727273
18379.395 79.4817752727273
19026.855 78.90175727272731
19697.754 78.30031427272729
19999.512 78.18045127272731
