Freq "Estimated In-Room Response"
20.5078 49.40883740207278
21.9727 51.480712543850075
23.4375 55.58098678161846
24.9023 58.77983908311012
26.3672 61.6057527887514
27.832 64.8762813790017
29.2969 69.45323355094425
30.7617 71.76083658366895
32.2266 73.96508549559552
33.6914 75.9230659883903
35.1562 77.66624543074147
36.6211 78.96273654343346
38.0859 79.68693289070525
39.5508 80.29039774510709
41.0156 80.90142943895665
42.4805 81.51264054813868
43.9453 81.95857024954215
45.4102 82.81423642319899
46.875 83.03604167057318
48.3398 83.25203105829334
51.2695 83.65835965460322
52.7344 83.81499060754324
54.1992 84.01164853464334
55.6641 84.16328281820424
58.5938 84.6057694721832
60.0586 84.70704220678462
62.9883 84.83977057318123
64.4531 84.91389873963813
67.3828 85.08264947868017
68.8477 85.26241350763851
71.7773 85.29001534755346
74.707 85.44094154723929
77.6367 85.61926966888743
79.1016 85.66482436443422
82.0312 85.88130582902234
84.9609 86.25381872962153
87.8906 86.43459712368085
90.8203 86.67870575549465
95.2148 87.10521892060605
98.1445 87.29904047928623
101.074 87.41175085132105
105.469 87.7292610836829
108.398 87.8979878530854
112.793 87.97682599567936
117.188 87.99055825177221
120.117 88.18489587994796
124.512 88.35272111981246
128.906 88.41748540885922
133.301 88.34036241931373
139.16 87.99768368730669
143.555 87.67134657140605
147.949 87.27148466521471
153.809 86.99915603511815
159.668 86.75426582886982
165.527 86.59438152039974
171.387 86.53814134940521
177.246 86.14371203841573
183.105 85.79460968779136
188.965 85.78197545943368
196.289 85.72141268553304
203.613 85.50479236679315
210.938 85.25858516303161
218.262 85.3505189861419
225.586 85.54552770016687
232.91 85.76274388735281
241.699 86.10060321535671
250.488 86.04952975945878
259.277 86.69916782069315
268.066 86.55728372420832
276.855 86.26075620333673
287.109 86.343376223201
297.363 86.25062486961356
307.617 86.19027944419138
319.336 85.72991308622426
329.59 85.50861324416498
341.309 85.66776392169368
353.027 86.04564388293412
366.211 85.89828950022257
379.395 85.4855020198525
392.578 85.56590371772353
405.762 85.21508198419475
420.41 85.1530326614293
435.059 85.60970115060009
451.172 85.95690071586561
465.82 85.74541646098811
483.398 85.44173093291673
499.512 85.19001458685608
517.09 85.4252026832017
536.133 85.90227180097487
555.176 85.35969441554667
574.219 85.34084806356724
594.727 85.4798761385687
615.234 85.22636732965795
637.207 85.5675378121228
659.18 84.83410081317817
682.617 85.33104208213909
707.52 84.91734021890542
732.422 84.9747086681885
757.324 84.62983621136176
785.156 84.65060018899914
811.523 84.91676697202121
840.82 85.13689140320938
870.117 85.8737589466813
900.879 85.55847107077412
933.105 85.25878006707204
965.332 85.29494966565703
1000.49 84.8370940714398
1035.64 85.00771605142785
1072.27 85.37558942645347
1108.89 84.73434649384862
1148.44 84.81658963667468
1189.45 84.16518382047425
1230.47 84.31482199413936
1274.41 83.87844247176895
1319.82 83.73273899626238
1366.7 83.67260819141315
1413.57 83.67525288949238
1463.38 84.61183863338476
1516.11 84.26591723846619
1568.85 84.09071316271176
1624.51 83.82976593629287
1681.64 83.95320311278249
1741.7 84.13054831457791
1803.22 84.34672511957488
1866.21 83.72642669941591
1932.13 82.91614497786067
1999.51 83.26932373756236
2069.82 83.73253730845487
2143.07 83.50510368637644
2219.24 82.88529030121141
2296.88 83.47105715205271
2378.91 83.90124181007195
2462.4 83.59532706586758
2548.83 84.0213470720712
2639.65 84.37029585807046
2731.93 84.2139417553871
2828.61 84.89478106992784
2928.22 84.78255109084672
3030.76 84.62270147623387
3137.7 84.72315304785573
3249.02 84.60135982812439
3363.28 84.15596967210718
3481.93 84.87778024607553
3604.98 84.62431696044739
3732.42 84.19085671856669
3864.26 84.63518881655368
4000.49 84.33881499981526
4141.11 84.55927473413524
4287.6 84.51036565081931
4438.48 84.1939358136177
4595.21 84.37815116219156
4756.35 84.01210954208898
4924.8 84.46605176937871
5097.66 84.1716600127895
5277.83 84.12105671652841
5463.87 83.93152345620561
5657.23 83.97821399042515
5856.45 83.9198622266222
6062.99 83.74943544791877
6276.86 83.89939532672877
6498.05 83.67092061484514
6726.56 83.42750225326324
6963.87 83.39024677571673
7209.96 83.30340955354664
7464.84 83.13234092603085
7727.05 83.0276812568896
7999.51 82.94292552989481
8282.23 82.82835440832628
8573.73 82.6063251501898
8876.95 82.57536656291106
9188.96 82.692165646535
9514.16 82.79369641976366
9849.61 82.81147883405691
10196.8 82.75748921994034
10555.7 82.67990717365905
10927.7 82.61104949943885
11313.0 82.53547440795217
11712.9 82.43607711040161
12126.0 82.37580169792082
12553.7 82.22793826481319
12996.1 81.94051232686341
13454.6 81.6114512620016
13929.2 81.59651941419024
14419.9 81.5493860676034
14928.2 81.33987697811698
15455.6 80.99978065565402
16000.5 80.74682879414128
16564.5 80.48122060149853
17148.9 80.11374838698248
17752.4 79.57294096995739
18379.4 79.00217188966988
19026.9 78.50763975220102
19697.8 77.99947507848564
19999.5 77.81991505839304
