Freq "Floor Bounce"
22.4 59.17609175449222
23.0 60.17609175449222
23.6 62.30690501035461
24.0 64.00690501035457
25.0 64.67609175449222
25.8 66.0760917544922
26.5 67.10690501035457
27.2 67.4760917544922
28.0 67.37609175449221
29.0 68.34044167945491
30.0 68.5069050103546
30.7 69.27609175449221
31.5 70.9760917544922
32.5 71.87609175449221
33.5 72.87609175449221
34.5 74.67609175449222
35.5 77.0760917544922
36.5 79.20690501035459
37.5 81.5760917544922
38.7 84.17609175449222
40.0 86.67609175449222
41.2 89.10690501035458
42.5 91.77609175449221
43.7 94.97609175449222
45.0 96.90690501035459
46.2 98.37609175449221
47.5 100.07609175449221
48.7 101.60690501035458
50.0 102.9760917544922
51.5 104.2069050103546
53.0 105.3069050103546
54.5 106.27609175449221
56.0 107.07609175449223
58.0 107.64283030471974
60.0 108.1069050103546
61.5 108.37609175449221
63.0 108.57609175449221
65.0 108.77609175449221
67.0 108.90690501035459
69.0 109.14283030471974
71.0 109.37609175449221
73.0 109.57609175449223
75.0 109.84283030471974
77.5 110.14283030471974
80.0 110.27609175449223
82.5 110.41227178315619
85.0 110.4760917544922
87.5 110.4760917544922
90.0 110.31227178315619
92.5 110.07609175449221
95.0 109.6760917544922
97.5 109.37609175449221
100.0 109.2122717831562
103.0 109.2122717831562
106.0 109.31227178315618
109.0 109.54576719438471
112.0 109.81227178315618
115.0 110.01227178315618
118.0 110.11227178315617
122.0 110.11227178315617
125.0 110.0457671943847
128.0 109.94576719438469
132.0 109.81227178315618
136.0 109.68219967332304
140.0 109.41227178315619
145.0 109.11227178315617
150.0 108.98219967332305
155.0 109.04898514879551
160.0 109.15260953202217
165.0 109.35260953202219
170.0 109.41916705502753
175.0 109.31916705502753
180.0 109.11916705502755
185.0 108.81916705502753
190.0 108.51916705502754
195.0 108.28982856673473
200.0 107.88982856673472
206.0 107.66096514237184
212.0 107.76096514237183
218.0 108.09897445130926
224.0 108.59897445130925
230.0 108.99897445130925
236.0 109.23752777300028
240.0 109.170829702843
250.0 109.0096325668162
258.0 108.8096325668162
265.0 108.60963256681619
272.0 108.44898359150842
280.0 108.36194867563766
290.0 108.2950645803583
300.0 108.23546263134682
307.0 108.03546263134682
315.0 107.90942248426019
325.0 107.77641629732153
335.0 107.57641629732153
345.0 107.45062128010365
355.0 107.29237898809798
365.0 107.25062128010363
375.0 107.3179278976485
387.0 107.392378988098
400.0 107.29237898809798
412.0 106.992378988098
425.0 106.45062128010365
437.0 105.95062128010365
450.0 105.53546263134682
462.0 105.33546263134683
475.0 105.46194867563766
487.0 105.82179738688896
500.0 106.24898359150842
515.0 106.78219812790056
530.0 107.1552196930838
545.0 107.2687803399679
560.0 107.15866027600835
580.0 106.82812100489949
600.0 106.36941986366729
615.0 105.91638770313007
630.0 105.63012177221654
650.0 105.37263021037121
670.0 105.2586096117203
690.0 105.20489348120857
710.0 105.01688630006818
730.0 104.512106446973
750.0 103.50996605888052
775.0 102.20285095761179
800.0 101.22515007718616
825.0 100.74089469560577
850.0 101.07644070192742
875.0 101.75803522150264
900.0 102.52758719283592
925.0 103.24415774934853
950.0 103.70934661896388
975.0 104.04898514879551
1000.0 104.28656646311248
1030.0 104.42926676879422
1060.0 104.62926676879421
1090.0 104.6948570588317
1120.0 104.75260953202218
1150.0 104.87387961222818
1180.0 105.00228461396019
1220.0 104.94680983520816
1250.0 104.96826674204794
1280.0 104.96023655467066
1320.0 105.1162761504999
1360.0 105.30296788742379
1400.0 105.44588560685648
1450.0 105.29066301838193
1500.0 104.85556502286214
1550.0 104.47252120740994
1600.0 103.97673555651383
1650.0 103.69393943395049
1700.0 103.514568629094
1750.0 103.05879677415588
1800.0 102.67259587131697
1850.0 102.39430017477814
1900.0 102.2233091781901
1950.0 102.19682786047021
2000.0 102.14240010667204
2060.0 101.80586825843147
2120.0 101.06049792747928
2180.0 100.48881761960128
2240.0 100.01468177419278
2300.0 99.52404759789094
2360.0 99.39292770277804
2400.0 99.2330873538951
2500.0 99.22023581327292
2580.0 99.2663276380538
2650.0 99.06885082383813
2720.0 99.15297629164799
2800.0 99.30204404422747
2900.0 99.34035168096844
3000.0 99.52606546453067
3070.0 99.84878476601189
3150.0 100.2964086156607
3250.0 100.79640861566071
3350.0 100.85879993610338
3450.0 100.09058914804497
3550.0 99.49313025812916
3650.0 99.96464679812536
3750.0 100.6449257205697
3870.0 100.63790067592332
4000.0 100.79868001632912
4120.0 101.12664543441657
4250.0 100.86400119283412
4370.0 100.54302103107543
4500.0 99.69898600207456
4620.0 100.32458837669866
4750.0 101.16803558628395
4870.0 101.10034572011692
5000.0 101.07106951647688
5150.0 101.06887463636016
5300.0 100.85159896627503
5450.0 100.64047078004994
5600.0 100.89122588531642
5800.0 100.73790067592331
6000.0 100.33913968958949
6150.0 100.78583713932596
6300.0 101.45119501300418
6500.0 101.16448660112323
6700.0 101.17822079791519
6900.0 100.89632547890116
7100.0 99.97610694060921
7300.0 99.09006885024807
7500.0 97.7088462075806
7750.0 97.32733489247657
8000.0 98.44674371535841
8250.0 98.81851550199947
8500.0 100.68436202808594
8750.0 101.87110351796801
9000.0 102.6250624076881
9250.0 102.6657819002546
9500.0 101.33268288984415
9750.0 100.45970114970514
10000.0 99.81017686852366
10300.0 100.62380429492318
10600.0 102.68487039281675
10900.0 103.04092027673275
11200.0 101.77698098796606
11500.0 102.51568090914701
11800.0 102.4325865377892
12200.0 100.30117762353392
12500.0 94.86841878920042
12800.0 97.98561620017753
13200.0 92.07833425668983
13600.0 94.1764407019274
14000.0 99.98969294222599
14500.0 101.16718462137125
15000.0 101.77096325109015
15500.0 97.52657098507088
16000.0 100.20069104240478
16500.0 96.45147427759947
17000.0 96.39124671613403
17500.0 89.04035168096843
18000.0 87.99290042729636
18500.0 91.45597503611528
19000.0 86.47260330753234
19500.0 89.69319068831494
