Freq "Front Wall Bounce"
22.4 59.319984234014456
23.0 60.319984234014456
23.6 62.41998423401442
24.0 64.15000634017069
25.0 64.77848478147017
25.8 66.17848478147017
26.5 67.25000634017071
27.2 67.61998423401444
28.0 67.55000634017073
29.0 68.51998423401444
30.0 68.65000634017072
30.7 69.41998423401442
31.5 71.11998423401444
32.5 72.01998423401444
33.5 73.05000634017073
34.5 74.81998423401443
35.5 77.21998423401443
36.5 79.40489499373619
37.5 81.71998423401443
38.7 84.35000634017071
40.0 86.81998423401443
41.2 89.25000634017071
42.5 91.91998423401445
43.7 95.11998423401444
45.0 97.11998423401444
46.2 98.51998423401444
47.5 100.25000634017073
48.7 101.81998423401443
50.0 103.15000634017072
51.5 104.41998423401445
53.0 105.51998423401444
54.5 106.4765897732183
56.0 107.25000634017073
58.0 107.81998423401444
60.0 108.31998423401443
61.5 108.61998423401442
63.0 108.80489499373621
65.0 108.95000634017073
67.0 109.15000634017072
69.0 109.35000634017071
71.0 109.60489499373621
73.0 109.81998423401444
75.0 110.11998423401444
77.5 110.37848478147016
80.0 110.57848478147017
82.5 110.71998423401443
85.0 110.77848478147017
87.5 110.75000634017071
90.0 110.61998423401444
92.5 110.37848478147016
95.0 110.00489499373622
97.5 109.71998423401443
100.0 109.51998423401444
103.0 109.51998423401444
106.0 109.6765897732183
109.0 109.91998423401444
112.0 110.21998423401445
115.0 110.3936659009678
118.0 110.51998423401444
122.0 110.51998423401444
125.0 110.51998423401444
128.0 110.3936659009678
132.0 110.29366590096782
136.0 110.15000634017072
140.0 109.91998423401444
145.0 109.61998423401444
150.0 109.55000634017073
155.0 109.59366590096782
160.0 109.75000634017073
165.0 109.95000634017072
170.0 110.09366590096782
175.0 109.99366590096781
180.0 109.81998423401444
185.0 109.55000634017073
190.0 109.31998423401443
195.0 109.09366590096782
200.0 108.75000634017073
206.0 108.57848478147015
212.0 108.71998423401445
218.0 109.09366590096782
224.0 109.61998423401444
230.0 110.15000634017072
236.0 110.3936659009678
240.0 110.3936659009678
250.0 110.31998423401443
258.0 110.19366590096783
265.0 110.09366590096782
272.0 110.01998423401443
280.0 109.99366590096781
290.0 110.05000634017073
300.0 109.99366590096781
307.0 109.96528715999553
315.0 109.89366590096782
325.0 109.7677916354448
335.0 109.63924275721992
345.0 109.5136394060688
355.0 109.4136394060688
365.0 109.4136394060688
375.0 109.5136394060688
387.0 109.5600593685791
400.0 109.46005936857911
412.0 109.1351604799582
425.0 108.63516047995819
437.0 108.05121482311348
450.0 107.55121482311348
462.0 107.22683455312959
475.0 107.1268345531296
487.0 107.22683455312959
500.0 107.30287628300401
515.0 107.53443179205895
530.0 107.65086213388184
545.0 107.52758020744902
560.0 107.37640057047572
580.0 107.12163457381297
600.0 106.85378373474546
615.0 106.70343598990847
630.0 106.77091054784846
650.0 106.95378373474549
670.0 107.25378373474548
690.0 107.75378373474548
710.0 108.07640057047573
730.0 108.12758020744903
750.0 107.72758020744901
775.0 106.95086213388187
800.0 106.35821708819499
825.0 106.07968536691979
850.0 106.38847217927515
875.0 106.9677916354448
900.0 107.35251964068125
925.0 107.60743452896757
950.0 107.5677916354448
975.0 107.44235653127141
1000.0 107.263736118014
1030.0 107.1106896630263
1060.0 107.03443179205895
1090.0 106.90470702014275
1120.0 106.83156734312868
1150.0 106.88831552292606
1180.0 106.93871757721682
1220.0 106.85630329962468
1250.0 106.7563032996247
1280.0 106.63558535321992
1320.0 106.5669031315327
1360.0 106.61344638834518
1400.0 106.68700543078886
1450.0 106.60254581688905
1500.0 106.43447143678272
1550.0 106.43447143678272
1600.0 106.31344638834518
1650.0 106.13541212362735
1700.0 106.034978724779
1750.0 105.76751697433075
1800.0 105.43958848982798
1850.0 105.16215518086135
1900.0 104.92510596536523
1950.0 104.8546442099523
2000.0 104.91839686353035
2060.0 105.21400993018288
2120.0 105.39822109126219
2180.0 105.6672361486638
2240.0 105.55045334019495
2300.0 105.21172452115961
2360.0 105.32775465718804
2400.0 105.32170663507807
2500.0 105.3261685781945
2580.0 105.59988780926979
2650.0 105.55945361154615
2720.0 105.42545134652435
2800.0 105.06559154912928
2900.0 104.77941698293823
3000.0 105.05232749343044
3070.0 105.39352784313947
3150.0 105.74210962189169
3250.0 105.87807661237883
3350.0 105.49765814296892
3450.0 104.85693322569476
3550.0 104.82616406485705
3650.0 105.12622198884256
3750.0 105.40060227478395
3870.0 105.65465617846677
4000.0 106.21880132817905
4120.0 106.68911750563218
4250.0 106.41957286025614
4370.0 105.99970653571755
4500.0 105.47766217484104
4620.0 105.98318737957013
4750.0 106.3689202522911
4870.0 106.19179871893382
5000.0 106.0672047351283
5150.0 106.02696879711145
5300.0 105.95877406879406
5450.0 105.97191412503139
5600.0 106.1914440285889
5800.0 105.86039237833491
6000.0 105.63681619191998
6150.0 105.52009723136433
6300.0 105.84032166575348
6500.0 106.32079603075448
6700.0 106.81530902068643
6900.0 107.10248031420865
7100.0 106.9772416452741
7300.0 106.75436851583312
7500.0 106.23647267817951
7750.0 106.13845481549752
8000.0 107.03544071355263
8250.0 107.27682806806865
8500.0 107.46881263071695
8750.0 107.24748165400871
9000.0 107.35802142334607
9250.0 107.82531326765275
9500.0 108.05224181413453
9750.0 107.9943936273908
10000.0 107.83253330788719
10300.0 108.18024535680435
10600.0 108.822801115039
10900.0 108.84207813577505
11200.0 108.05504691503909
11500.0 106.99204166037926
11800.0 106.27028464287915
12200.0 105.85707284165663
12500.0 108.13273106772657
12800.0 107.73034626319233
13200.0 107.57332669556024
13600.0 108.28748530866766
14000.0 108.03784217091375
14500.0 106.69096615482557
15000.0 105.8282521742103
15500.0 103.65497952819133
16000.0 104.07444879792415
16500.0 103.79971986656635
17000.0 103.84316731504089
17500.0 103.71075759672405
18000.0 100.57569894772388
18500.0 98.65169271250936
19000.0 93.44706796966058
19500.0 92.20389512376906
