Freq "Rear Wall Bounce"
22.4 59.50943553021894
23.0 60.33603371451669
23.6 62.29855590442075
24.0 63.85768595872072
25.0 64.34924815561003
25.8 65.61410369151862
26.5 66.53346413860204
27.2 66.76201758215576
28.0 66.55465573004615
29.0 67.3609434964854
30.0 67.4137445184377
30.7 68.0846704542759
31.5 69.6249409733425
32.5 70.43566122882537
33.5 71.36649273716687
34.5 73.01793579085104
35.5 75.30692059000178
36.5 77.39119810021053
37.5 79.61330359053606
38.7 82.16614354658189
40.0 84.55026465534321
41.2 86.89333027284833
42.5 89.47285570992427
43.7 92.60570669940714
45.0 94.50273543912031
46.2 95.85232569846649
47.5 97.54686503018686
48.7 98.99179283923495
50.0 100.29179283923494
51.5 101.5047767856021
53.0 102.54704132039627
54.5 103.4718178778325
56.0 104.20194667012632
58.0 104.73675455269247
60.0 105.18094365976863
61.5 105.4122716621846
63.0 105.5737192159047
65.0 105.7064080034153
67.0 105.88231572725094
69.0 106.03969949111837
71.0 106.2534581876042
73.0 106.46295143476969
75.0 106.69588771624167
77.5 106.96071940024065
80.0 107.14847957369217
82.5 107.23827258466268
85.0 107.30487126793021
87.5 107.26071940024066
90.0 107.10978569041254
92.5 106.86071940024065
95.0 106.46071940024066
97.5 106.16071940024065
100.0 106.01447119964925
103.0 105.97473019231114
106.0 106.12872517890325
109.0 106.35054117100469
112.0 106.63827258466267
115.0 106.82730890934151
118.0 106.89424140237792
122.0 106.93708163566664
125.0 106.89378733742846
128.0 106.78436132870583
132.0 106.68208545554445
136.0 106.5184806801566
140.0 106.30640279092354
145.0 106.00568325192042
150.0 105.90568325192042
155.0 105.94137012407278
160.0 106.08738745620653
165.0 106.28492398483475
170.0 106.39088780930558
175.0 106.3108357446934
180.0 106.12691591642135
185.0 105.84310358749012
190.0 105.59853864039565
195.0 105.32571102621394
200.0 104.98288004538828
206.0 104.77275368053017
212.0 104.91078344012459
218.0 105.26483016809885
224.0 105.77519041329322
230.0 106.24516717647874
236.0 106.4671341560058
240.0 106.41457647432303
250.0 106.26761383343566
258.0 106.06057074426371
265.0 105.8669073896225
272.0 105.6639908998332
280.0 105.49419038273713
290.0 105.3183553261473
300.0 105.08430416442864
307.0 104.74733458734848
315.0 104.42406689651486
325.0 104.00297434471946
335.0 103.61245737115304
345.0 103.23173822453236
355.0 102.87060526649667
365.0 102.6484010519675
375.0 102.56711638759877
387.0 102.47264943098627
400.0 102.26764289115464
412.0 101.87772250725968
425.0 101.2586159991455
437.0 100.62243291282957
450.0 100.10487312480846
462.0 99.73553397648726
475.0 99.63306856008136
487.0 99.6478678738469
500.0 99.61512362273304
515.0 99.59988349400545
530.0 99.42122326909174
545.0 98.90479844802947
560.0 98.23923762739193
580.0 97.48334549744472
600.0 96.79085355075883
615.0 96.33063242787891
630.0 96.16684865994071
650.0 96.16781397121927
670.0 96.48989674515687
690.0 97.03271745761297
710.0 97.5259108457445
730.0 97.84776252937193
750.0 97.7542380899163
775.0 97.45253051999002
800.0 97.37429326919975
825.0 97.64554810175561
850.0 98.39328789443468
875.0 99.14056135509396
900.0 99.46364770053245
925.0 99.32560346969589
950.0 98.64331045058411
975.0 97.7288463028754
1000.0 96.71079039348487
1030.0 95.72479017546503
1060.0 94.85029920348198
1090.0 93.98216957082498
1120.0 93.13030511932764
1150.0 92.36668140368369
1180.0 91.65224885806659
1220.0 90.97174190085296
1250.0 90.40862011089546
1280.0 89.85061495523811
1320.0 89.41159047655657
1360.0 89.1853265233654
1400.0 89.06824654240366
1450.0 88.83441023289717
1500.0 88.39367052800267
1550.0 88.04465027828863
1600.0 87.46229426125471
1650.0 86.82324094123626
1700.0 86.26496548630791
1750.0 85.80258337071557
1800.0 85.62053257034044
1850.0 85.53700028892747
1900.0 85.33115551757054
1950.0 85.09894587760526
2000.0 84.84800694978865
2060.0 84.52075480830537
2120.0 84.22715519854874
2180.0 84.28791876674252
2240.0 84.00235773430849
2300.0 83.40981160122102
2360.0 83.1246128086898
2400.0 82.77407223105264
2500.0 82.54533129013238
2580.0 82.8647954283589
2650.0 83.09629269517028
2720.0 83.21074296813744
2800.0 82.73224452550808
2900.0 82.02328824376268
3000.0 81.90986487458217
3070.0 81.85260810736476
3150.0 81.75359034424865
3250.0 81.78641280122612
3350.0 81.95224706054209
3450.0 82.12586327277917
3550.0 82.42427151386171
3650.0 83.09814876231617
3750.0 84.22561477739579
3870.0 85.11782887346799
4000.0 85.86811717975111
4120.0 86.2763230462666
4250.0 84.98257283299633
4370.0 82.5931186905092
4500.0 80.06343562958911
4620.0 79.14306500937899
4750.0 78.81366465934967
4870.0 78.02980468795955
5000.0 76.25662083653465
5150.0 76.28350398248485
5300.0 78.17398486556938
5450.0 79.2451188040725
5600.0 78.86917431408212
5800.0 77.89688186948253
6000.0 78.21691405614978
6150.0 78.6718814443763
6300.0 78.66231532151211
6500.0 77.91067698872043
6700.0 78.60979997982783
6900.0 80.67428244719785
7100.0 80.9454032831671
7300.0 78.77489430419844
7500.0 77.70923961211356
7750.0 77.56983083199695
8000.0 77.07314414856525
8250.0 75.25919205520891
8500.0 74.55410908733855
8750.0 75.2418185617857
9000.0 76.06482563047253
9250.0 76.27815949436105
9500.0 77.8703959926881
9750.0 76.93018833515465
10000.0 78.42254262773217
10300.0 77.67794293875552
10600.0 74.99354790444939
10900.0 74.41082820364234
11200.0 70.10893275471226
11500.0 66.72122268744765
11800.0 66.11442276244544
12200.0 70.64945772150587
12500.0 76.55626241368414
12800.0 75.42042615621709
13200.0 76.60900674353563
13600.0 75.42679454285259
14000.0 75.100979024408
14500.0 68.53508134226043
15000.0 68.13624939154566
15500.0 67.69906778376433
16000.0 72.19608031984338
16500.0 67.32065792923036
17000.0 65.97341883581548
17500.0 62.724436901120086
18000.0 57.45025625637639
18500.0 63.43897757356963
19000.0 46.90460901607433
19500.0 62.352000119767
