Freq "Front Wall Bounce"
20.5078 49.56265876415574
21.9727 50.81465894646908
23.4375 53.05404167444172
24.9023 53.460718379440806
26.3672 55.490291771484465
27.832 57.19871034572719
29.2969 58.6071430400759
30.7617 59.51314365701245
32.2266 61.51681692564908
33.6914 63.117428816662965
35.1562 63.93757206191566
36.6211 64.90990997830129
38.0859 66.05395996085434
39.5508 67.1195724004939
41.0156 68.19164094697317
42.4805 69.16065332007699
43.9453 70.09662763080857
45.4102 70.85507739242274
46.875 71.6535623700475
48.3398 72.41636708387905
51.2695 73.78603107853687
52.7344 74.29748634905613
54.1992 74.6777631285633
55.6641 75.07067655596418
58.5938 75.91001649743649
60.0586 76.2368329997604
62.9883 76.83491854512259
64.4531 77.12947632989477
67.3828 77.54450239951544
68.8477 77.73268444059596
71.7773 78.07741629569601
74.707 78.43636148836376
77.6367 78.7342312555877
79.1016 78.90258086441156
82.0312 79.16284049053034
84.9609 79.41964414388408
87.8906 79.6908644670513
90.8203 79.94435505676466
95.2148 80.28103529204715
98.1445 80.51092533884386
101.074 80.74806716688173
105.469 81.06907189630464
108.398 81.23758535736381
112.793 81.4851255295434
117.188 81.73838219268305
120.117 81.98196918538964
124.512 82.2281562739002
128.906 82.48502077336141
133.301 82.6846989968637
139.16 82.84794229606035
143.555 82.98154885275477
147.949 83.22463011706351
153.809 83.34476735177323
159.668 83.30779862326742
165.527 83.24439594114205
171.387 83.40297266914594
177.246 83.48177921913599
183.105 83.57512044999562
188.965 83.62863585865375
196.289 83.64121500283898
203.613 83.57936340181172
210.938 83.64414657192248
218.262 83.75417736685398
225.586 83.52006385634388
232.91 83.69134358741775
241.699 83.46876816916873
250.488 83.66605506920814
259.277 83.68995789039435
268.066 83.5716998762663
276.855 83.59880787326762
287.109 83.72637657289653
297.363 84.01677453164694
307.617 83.64413373009288
319.336 83.49815622081566
329.59 83.58825269640104
341.309 83.86975414612053
353.027 84.0892211353804
366.211 83.88000891700733
379.395 84.09285024553077
392.578 83.93421703062036
405.762 83.67668432870504
420.41 84.36593734918527
435.059 84.37732777861886
451.172 83.77216965795952
465.82 83.9292053697931
483.398 84.26763849877361
499.512 84.20836047005349
517.09 84.1363493173694
536.133 84.10643431121021
555.176 83.9352089391576
574.219 83.94560284711335
594.727 84.22140599084861
615.234 84.38313963183835
637.207 84.36107515503866
659.18 83.82921338624428
682.617 83.4781589868267
707.52 83.8501469142076
732.422 83.08223370466749
757.324 82.95481378100864
785.156 83.11692377037053
811.523 82.5780083538416
840.82 83.04499293913247
870.117 82.87883889363798
900.879 83.08206878613761
933.105 83.55672733060771
965.332 83.3846891706348
1000.49 83.50606263121207
1035.64 83.65732162192896
1072.27 84.34372805494735
1108.89 84.64947823595097
1148.44 84.7585184270567
1189.45 84.17912097767729
1230.47 83.90141689892839
1274.41 83.50680874116264
1319.82 83.35737311191275
1366.7 83.65794550245025
1413.57 83.37833927853951
1463.38 82.6515354922825
1516.11 82.23566385617333
1568.85 82.36796502545336
1624.51 82.85416447453335
1681.64 83.26466009901709
1741.7 83.02324894459167
1803.22 83.10564335351036
1866.21 83.51012888139225
1932.13 83.19980756275267
1999.51 82.76504991472265
2069.82 83.6478346707612
2143.07 84.4388126415818
2219.24 83.61899573333864
2296.88 83.27322708016577
2378.91 83.9498062072297
2462.4 83.80299122870184
2548.83 82.94983317730275
2639.65 83.04196977061153
2731.93 82.38496773430415
2828.61 82.29744222095277
2928.22 81.93883240333918
3030.76 82.67192767633051
3137.7 82.95714416010793
3249.02 84.27307504071089
3363.28 84.16161877014304
3481.93 84.70916233824127
3604.98 84.24864697050128
3732.42 84.58358775988086
3864.26 83.74645308592153
4000.49 84.06738213609773
4141.11 83.66676210550492
4287.6 83.9701836794747
4438.48 84.02132142060722
4595.21 84.06198413115334
4756.35 83.93084653006962
4924.8 83.4955488462803
5097.66 83.39410126451364
5277.83 82.81073022069816
5463.87 82.8548227022505
5657.23 82.96576935466548
5856.45 82.83932757394186
6062.99 82.88517795952959
6276.86 82.6726552955102
6498.05 82.51745629306498
6726.56 82.21364272205935
6963.87 81.63222557085614
7209.96 80.97325340624093
7464.84 80.5975397272049
7727.05 81.08549998342403
7999.51 82.01722497769369
8282.23 82.62759086078108
8573.73 83.02437237854232
8876.95 83.1754589251876
9188.96 83.13944755119068
9514.16 83.06432737757366
9849.61 82.92312690570529
10196.8 82.42624384559919
10555.7 81.8089410218902
10927.7 81.25776658776874
11313.0 80.89530081428423
11712.9 81.00336768525533
12126.0 81.19240668982096
12553.7 81.63141571369522
12996.1 81.76116883874296
13454.6 81.95614272734248
13929.2 82.87540072647042
14419.9 83.3526776245732
14928.2 83.31529368827881
15455.6 82.69501321046619
16000.5 81.99982778748308
16564.5 81.22576614672342
17148.9 80.47124056847642
17752.4 79.78364892984335
18379.4 79.15775505807763
19026.9 78.57584003502912
19697.8 78.08525544506226
19999.5 77.60102079064065
