Freq,Floor Bounce,Ceiling Bounce,Front Wall Bounce,Side Wall Bounce,Rear Wall Bounce,Total Early Reflection
20.5078,60.12452332416224,61.726630882664736,60.36189353438159,60.9131230158563,62.094111266681054,61.11114419006189
21.9727,60.58104622015681,62.117375552919995,60.829106414563526,61.19317949192249,62.1006231116409,61.411389380282245
23.4375,61.71840435153014,63.49808219427932,62.130851311457704,62.57808718582963,63.412721104313235,62.72362280713641
24.9023,64.50731087171893,65.75619157828395,64.86028959060293,65.05185224995238,65.04989344656836,65.06453925119412
26.3672,65.75730499690617,66.68016187550772,65.97076888285623,66.15059989066278,66.3934345484435,66.20244573981087
27.832,67.00684356635223,67.74413739318037,67.16980786108117,67.34127503405237,67.53265734590035,67.36675917850378
29.2969,68.02116195143522,68.53194067497965,68.13676464351347,68.22167824039305,68.2004213620446,68.22574878294746
30.7617,68.9344791957712,69.27413390799758,69.01325445591,69.0454298561542,68.87531939096495,69.0306866941251
32.2266,69.78168936289812,69.94621837390166,69.8109656784818,69.80471886776503,69.56933302245058,69.7842691960045
33.6914,70.61281959381809,70.68399893098287,70.6198271084158,70.58472225402339,70.29731232567904,70.5618118324682
35.1562,71.42075304103805,71.33565401534214,71.37875452985354,71.32207877097414,71.01363597458082,71.29654444013937
36.6211,72.00625082271911,71.91833457582484,71.97755559044276,71.89590573847157,71.54325616781074,71.87142813354649
38.0859,72.77712177076408,72.62820551217709,72.74557910946062,72.62030797877912,72.14099023106108,72.58836382237807
39.5508,73.50315556407715,73.30889666209397,73.4640662341739,73.32020307045318,72.80932724847456,73.28805827844278
41.0156,74.17585328028844,73.92407138088488,74.12302494060667,73.97067871776726,73.47549198151691,73.9407339303151
42.4805,74.89398533614697,74.56315711537162,74.81996097661495,74.64491871624047,74.10940458542795,74.6148456067
43.9453,75.54265232131085,75.12947391433538,75.44524196885295,75.24739344419103,74.66900961513399,75.21730830060599
45.4102,76.187287999735,75.71702390056176,76.07344345425984,75.86618900892584,75.28507482901915,75.83709192980942
46.875,76.80419069578808,76.27500980727197,76.67406870361297,76.44408675201868,75.84140139623428,76.42063770689747
48.3398,77.3966889152346,76.84142619458235,77.26558842446174,77.02397750748455,76.38405986664823,76.99666312238074
51.2695,78.64705931317133,77.9931463064131,78.49051787910078,78.21789551121829,77.55806180863094,78.19810229988533
52.7344,79.23709114969222,78.55230134651114,79.07647902396415,78.78348705548802,78.0901342283028,78.76650653937766
54.1992,79.85679122545753,79.13475333471106,79.68879389441048,79.37944665127658,78.66231125179704,79.36466431290408
55.6641,80.45638962942427,79.70524842535194,80.28682054697916,79.9521760724207,79.18794050819211,79.94050343803092
58.5938,81.60459632248838,80.8428948888924,81.44961959866379,81.06833573570162,80.20073738459176,81.06096465840649
60.0586,82.15626749066553,81.37901768391616,82.001359308446,81.60502385943218,80.691418219403,81.5967368806668
62.9883,83.24089394135318,82.41006854299233,83.06378287485421,82.66820891768027,81.79591289209752,82.66529074971457
64.4531,83.80425851644864,82.93338307299445,83.61197250506827,83.21831648561997,82.38177185414732,83.21884840763133
67.3828,84.89592895903552,83.93569243507069,84.67312093632908,84.27038466604779,83.48514737322694,84.28124659458469
68.8477,85.45206510428265,84.45318406228621,85.21765272368033,84.80373067834591,84.02073181827718,84.81975571984232
71.7773,86.53183739615733,85.45918808772369,86.2768706701106,85.84220257658329,85.07964316737066,85.86983374425346
74.707,87.64076570366102,86.52321083984897,87.38252323136302,86.91407867600779,86.13937392455621,86.95435714784958
77.6367,88.74632993425506,87.59106599936018,88.48902051987196,87.98052361962259,87.16235544780405,88.0319599995746
79.1016,89.28643081309941,88.10779778787045,89.02612354676263,88.49831185268008,87.66206535314444,88.55617434764378
82.0312,90.3588664788863,89.08065101556991,90.07139096343813,89.5070556287565,88.64381697560829,89.57742825097141
84.9609,91.4160017246295,90.06631230686882,91.11442317038136,90.49948800792465,89.53102505701496,90.57888723290161
87.8906,92.35966938737141,90.96146276314916,92.04456727588747,91.42036130211464,90.43439581667839,91.5000999228413
90.8203,93.21713752686648,91.74173216694768,92.89961761773297,92.2445165231522,91.2959518450082,92.33757946199674
95.2148,94.6323912206782,93.18378246729615,94.33518963471603,93.64209977167572,92.72249212820796,93.76047517317222
98.1445,95.37071971308127,93.93788142962345,95.0853156863316,94.37294996205243,93.511995248894,94.51090329009469
101.074,95.99554458270603,94.52358533710374,95.71550909107056,94.94334597624908,94.03994865501885,95.1043122209772
105.469,96.40405342466657,94.8075044878753,96.11172138779843,95.23930720807931,94.07358141247649,95.40965961971425
108.398,96.44256389076075,94.72405546532663,96.11771506773982,95.19224635224057,94.00742664134953,95.38769616343787
112.793,96.38898689746053,94.52323783895991,96.00047981668558,94.97684602461305,93.80132152871832,95.24114143271281
117.188,95.64120166798759,93.61917299416469,95.25762410316426,94.12513314606888,92.75354967253092,94.40670996144068
120.117,95.09193592514804,92.95771705178376,94.74375568471395,93.51409578957201,91.68906641416092,93.76881440926131
124.512,95.13765131925821,93.25327285738908,94.87208830631617,93.72282751597886,92.08419118204101,93.9522828108881
128.906,94.5756277996281,92.71382038152102,94.31091346166647,93.08574753285309,91.70522567814807,93.40450409455343
133.301,94.06610255972736,92.17408802027087,93.83688982435466,92.47535726394652,90.59464745122233,92.80322406635973
139.16,93.63096455541316,91.42240960339933,93.30622165109864,91.90944736997693,89.83491312443297,92.22753000757315
143.555,93.32439814795121,90.95060483304583,92.9964872088494,91.54891801336669,89.08867317479654,91.83417626830413
147.949,93.20344620795912,90.9414954315903,92.95456206541927,91.58675727006984,89.30138704430037,91.81842403207548
153.809,93.068736426304,90.79400269255848,92.83550483118147,91.42105720421692,89.65539003652422,91.73746178819543
159.668,92.71840367482312,90.28277511729526,92.4737338360199,90.78937612969487,89.23601813163552,91.2987330431532
165.527,92.56004891971274,89.6919411512065,92.27798871619383,90.27511285230987,87.53784508406919,90.83278968785952
171.387,92.73958882129719,90.36693445791538,92.68935571201462,90.73916600191247,86.43529498781768,91.10619900136479
177.246,91.954785341222,90.21169202392115,92.04828533192838,90.16260565228065,86.59781039566217,90.58126105756146
183.105,91.62347885372877,89.89994938579243,91.77361552183214,89.91698559611365,86.16151001073611,90.27688173686721
188.965,91.80040267911922,90.119121294804,91.9832112688711,90.15167816190257,86.39709357249005,90.48601365461015
196.289,91.42710276912999,89.84761021451693,91.66996230103645,89.8841271868351,86.24619600186226,90.18572191037167
203.613,90.14619373414794,88.8657348192776,90.51037407489233,88.83120038935418,86.20681264756782,89.14940991578275
210.938,88.92852139693466,88.45792350484551,89.73161899130474,87.8386483919363,85.13872266091467,88.26980428446419
218.262,89.02638973823287,89.44920261153983,90.26379665445474,88.41022860523532,84.54298207925552,88.7166453248119
225.586,90.99014660732247,90.20512984296234,91.49672070676692,89.67576670536248,87.92684146748526,90.2237795479317
232.91,93.78224293028602,91.34792317355782,93.76506447060912,91.32819991773918,89.1110593214951,92.20382326617269
241.699,94.21888747838038,91.6724458475177,94.260317356457,91.53362809924317,87.0508555847591,92.41005634949697
250.488,95.39495544913308,93.39797213610277,95.7426069172955,93.64061284402568,85.49859374280572,93.8270685202698
259.277,94.87362493481128,92.13889771122675,94.76862158335473,92.97773946062198,89.18007253862763,93.2301328501814
268.066,94.91097992455128,91.7090779394848,94.81519263202269,92.5276593953739,88.64208278603543,93.06724629323175
276.855,95.42022096629022,92.15219941578165,95.49982834182158,93.01206608388365,89.65200121798073,93.65367227284055
287.109,94.17036670191534,92.78177223173246,94.83953148521432,92.3122447045895,88.29931091474484,92.98260916152493
297.363,93.21068517792732,92.4055973261268,94.51959473771089,91.90130761053636,85.75345443794045,92.35075340345863
307.617,94.5892113151386,92.69048696016988,95.24673469526405,92.7571551250197,87.1020033306017,93.21469120187906
319.336,95.1278722826499,92.94811106817106,96.06314793023505,93.26539775887493,85.3379367968001,93.70347611650872
329.59,93.74329013876273,93.21800272276158,95.1811524526888,93.24966202906377,85.99257891134,93.12744680913576
341.309,93.75499620728257,91.8652787277371,94.26427380091131,91.98377640378989,87.71447018190699,92.43031281992857
353.027,94.10970356622083,91.71818040963625,94.63909235888782,91.65981771578025,87.44709930166175,92.54914633913201
366.211,94.57272462673025,92.62013302126022,95.56768337414475,93.01458524467962,86.56063453079071,93.32556949637203
379.395,94.72905256762458,91.84323133089062,95.3790437718887,92.67272046653551,89.21593368879991,93.27793902252894
392.578,92.7852903131957,89.00502181620725,93.62262344852122,90.76804560625311,86.05861102695032,91.20183202681893
405.762,89.10530170760785,89.04939596805497,91.0896153952378,88.50583987808548,82.56760183839566,88.79889922996243
420.41,89.92109536620383,86.7465875688038,90.60542897284462,87.72993428789543,78.98157768477192,88.16423990325391
435.059,89.07442573777634,86.70260998419185,90.29877650632025,88.1113847143613,82.2047441639388,88.00824393427577
451.172,87.6085365383448,88.01608208617579,88.7006221172887,86.3918874800624,82.87704509256747,87.12808658485534
465.82,92.02322284171213,88.5730524947199,92.1062296815355,88.59844834325648,84.76141782225866,89.96597913834536
483.398,92.15921883459337,90.53980721698831,93.60314567838005,90.00223116788898,84.05798064628706,91.02024065236796
499.512,92.23187619825926,91.43575456829554,94.05108503693621,90.3941974102645,83.15763692258516,91.40327726916102
517.09,90.76589600422452,89.70223296283228,91.64151989423947,88.36726190806851,80.84337176012333,89.438888645463
536.133,92.59759027523108,90.66208208553586,91.14419834272383,87.08250921615009,82.88071960212008,89.99106482964295
555.176,93.95171900790517,89.85707612241718,93.186096956785,88.99443454402554,83.44788601902032,91.17196594248277
574.219,92.32445162465233,90.55761640953044,92.45295024294852,88.32700978598248,80.58017792757643,90.33306855194213
594.727,92.75518901843425,89.4423534779005,91.68775951937788,86.99936575248113,78.82761517524499,89.8387886770674
615.234,91.78152021658306,88.54345603802065,91.79105947671657,87.19153414430183,79.3744114727094,89.38821663888922
637.207,93.41305380250645,90.54939894831583,92.36042750855394,86.76080920526341,79.24902026751218,90.49968865195875
659.18,93.14614641862364,89.25727746055678,92.05047643710442,86.05245990240434,76.78199575080279,89.96545472780322
682.617,93.02129591280129,88.64748718773953,90.47075826182258,85.78924576171288,78.39179915534031,89.34524880325246
707.52,93.24445136002377,87.45648057525788,90.97978618153832,86.1044120790476,77.33202496381715,89.42751862045618
732.422,91.53232236980878,85.52877665680482,91.26003160303378,85.92403168789652,76.4457582233842,88.51525554828066
757.324,90.84821641918431,86.15281863715732,90.01168606142694,83.2715039885855,73.99422717003716,87.58643912372553
785.156,90.37051860590323,82.0489310521146,87.44866794429284,81.77933322792823,74.4218208776663,85.98439777279891
811.523,91.81536989444784,81.69639568080105,88.68789434090047,85.15400872507817,77.18619969922146,87.45998549145021
840.82,93.23432872365878,87.43855252497984,92.55685090869008,88.77104811695129,82.13658890618518,90.31741118960312
870.117,96.23179008501977,90.6649935154635,94.65771155281605,90.65650283125633,82.0946995981051,92.83869502586796
900.879,94.0544173502354,90.39471537385289,93.61124260682814,89.48484616234772,80.61488974486835,91.42318447573875
933.105,94.14834008684598,89.97714373046851,92.59689926083199,89.22136885607362,81.68693279290785,91.06914815966847
965.332,94.31161667958222,89.5769558119845,93.95572847060855,88.38459664241917,80.12517094741214,91.3891151774862
1000.49,92.84997255711836,86.25647880148057,92.80241702955655,87.41594611868659,78.78633297311906,89.89764925862967
1035.64,92.34279753787764,85.99786329699045,93.21348330917522,86.0433017211265,75.57258790726932,89.6819720602334
1072.27,90.71698544716729,85.74392008594585,93.48941741324474,84.92008476126747,74.49912761301736,89.16635635346232
1108.89,90.61357378784385,83.91184660173052,93.0602733205984,84.19498505177408,73.65888666503429,88.70050276763705
1148.44,91.9521741390901,83.51320264980099,93.10722581629597,84.89464945778748,75.11694147845965,89.2203606418383
1189.45,91.51142197102713,84.81901420856596,92.73997541467251,84.87890967752544,75.8671645675327,88.97080063619002
1230.47,87.9345470024404,83.71313664980887,93.86985721296385,83.30601598649949,74.20125560801011,88.49393120151639
1274.41,90.39086455112938,84.63537190137727,91.69096048231458,83.05019910485844,74.48932984649083,87.9111907421654
1319.82,89.18154520344572,84.80891481549459,89.37161657021737,80.62458490541998,72.42383845825755,86.29222644616492
1366.7,87.50914733602747,83.55195348073535,91.2438721280724,77.70296618982077,71.05522272732168,86.42149704626532
1413.57,88.03431946587541,81.19349981351046,93.10136661061819,79.07472321664656,69.79316484644879,87.63475678625184
1463.38,89.77622217450929,80.30196253760245,94.11712920753226,80.04497057254761,74.04242538500014,88.76672541896498
1516.11,90.06783760248047,84.33507757628935,94.85441261727563,82.37868145293035,74.89533822191163,89.58936822309728
1568.85,88.00592156194098,84.68953192859333,94.00137087979621,83.72849926991549,74.4860509082567,88.69579935608074
1624.51,87.92858770941484,83.26395195107087,93.80622509097905,83.69613869704887,73.25941423847445,88.43900872954913
1681.64,88.824440466969,82.45508914316716,94.18986487401808,84.46385587048007,73.07912090649363,88.8793400154591
1741.7,89.83036655816952,83.86457050409551,94.29696061716092,85.29067171426668,73.95998065800823,89.30218042422302
1803.22,87.58527686504222,82.94548975037662,93.83331924777666,85.71559968424447,74.17435855426034,88.55744132967976
1866.21,87.55619939167848,82.75075735439509,93.80798548468036,85.6511799275673,75.55184090890334,88.53040868005515
1932.13,88.13439576391788,83.35287820018915,94.0897993065939,86.52581007308073,75.46639647348707,88.9388629896696
1999.51,88.98555653145165,84.67713753357909,94.83813558439319,86.86238085729742,75.65943691066744,89.68876144382386
2069.82,89.48042494558756,85.37777396832331,95.85371544935123,88.29291983783672,76.82347168638505,90.64796549127654
2143.07,89.00774143947737,85.9950077719731,95.65682851984553,87.6911831969907,75.85465304294979,90.41246380304811
2219.24,90.29950122208622,86.26311101514418,95.28404791635674,88.2814152591216,76.16206432621514,90.48045896974644
2296.88,91.1145679586869,86.85098985170895,95.80695386756942,88.60630225879945,76.83700322222275,91.04392032113927
2378.91,91.21800152800868,85.61921010788818,96.03706709639728,88.47356222224897,76.34854019746024,91.10616786682387
2462.4,90.48736993017855,86.10900015120086,94.66943967080685,87.32536237532601,76.30308938801464,90.0349208376364
2548.83,89.66586506659426,86.64271135783474,93.9405249396421,86.12734747425108,75.71402015673083,89.35759335487107
2639.65,88.8344911348282,86.41924919578253,94.11849740448507,87.03204693767309,73.65476214148678,89.35763785356139
2731.93,89.44552725742322,85.50934386952902,93.6566322607455,87.29489711392938,75.02824165126468,89.16441959715249
2828.61,88.42628990291264,85.73128330651308,93.61369502644489,86.73851432088249,76.05793212631433,88.89929185938881
2928.22,87.23130983501044,84.87729538646416,92.67785320709872,86.32949061926315,72.77182682008907,87.97552252381644
3030.76,86.61978385093771,84.6397033544354,92.4812857499186,85.75626027131979,71.12991898757932,87.649545009216
3137.7,86.82174990049161,84.34252192477719,93.22306421430117,86.78659318773815,70.12505912878542,88.24867882657135
3249.02,86.37086109359619,83.12488617890996,91.79108838168801,85.11552044250037,70.03696589953198,86.96223588006974
3363.28,85.9068504030805,82.85086303873464,92.06149997477802,85.30415748288978,70.4231322728693,87.0588738884698
3481.93,85.42793299030636,83.02053685794608,92.69692827612198,85.76988289306989,70.7545806110828,87.48137817413719
3604.98,86.3705761395355,84.15469440822021,92.38248283785046,84.59965021710279,70.01941248632029,87.36092923876326
3732.42,86.76216974209501,85.68973682265488,93.5597590892354,85.85873344367342,70.80889445486746,88.46620291804086
3864.26,87.93333903872956,85.73325675669186,92.41434168991977,85.149581028612,71.15260616596409,87.89529307379291
4000.49,89.0703878014807,87.35050160021353,94.23886752650982,86.64092853020198,69.87987477503636,89.51888735930133
4141.11,89.7250836856835,87.32393000064503,93.76770039407043,86.69997414945826,68.8531322822666,89.38032025305635
4287.6,89.75141095432402,87.23412619941838,94.4341923302566,86.748497882041,69.12989298597718,89.75935740535277
4438.48,89.3081140413481,86.08931636952325,94.54624332308896,86.36186494777286,68.36139142867951,89.58775861553825
4595.21,89.58214082363745,84.02407431147337,94.31768180331785,85.674371424449,68.1136804610503,89.28313347439607
4756.35,89.61208388554441,84.60124490815276,94.55183381509669,85.49732069440627,66.81162897398868,89.4592665359709
4924.8,89.54587727830693,85.1572482684317,94.52088881378033,85.43991276262105,68.44746035567711,89.46207256750809
5097.66,89.5448084255586,86.4718361838616,94.17825888832799,85.27307788800492,66.94945540048538,89.34814247975079
5277.83,89.21758649595013,86.34540107770542,93.70861510194943,84.92999330607408,66.69778215998424,88.9552540963534
5463.87,88.47402962078372,86.01280625045325,93.29624382872963,84.76836223662612,64.26583339635461,88.50228915236491
5657.23,88.2225058862143,85.22822193000486,92.99534602311473,83.98610079416092,63.048741150527675,88.1196960518081
5856.45,87.09612356876369,85.01786771600887,91.84312574307374,82.76922786175354,62.49200973768269,87.07498112121002
6062.99,87.3021748067694,84.3164135820517,91.78864985860116,82.10755693713344,61.67199093150698,86.95659780552793
6276.86,86.96159645634889,83.4801097344643,91.93965262123521,82.42047033367305,62.967775909340006,86.91828843374913
6498.05,87.51688836190876,82.81494119474638,91.33539958499675,82.14481311058408,61.40667724627899,86.59152243680923
6726.56,87.65483665184958,83.03526572598845,91.34730118329362,81.89818935857305,61.09008447270914,86.63463969707125
6963.87,88.64190861029306,84.33912196248036,91.45560853519852,81.48080709991517,60.17673165880116,87.0635837497807
7209.96,89.01001233730445,84.86437836603834,91.77686604627121,81.47501623089008,60.569456008409716,87.4032647040732
7464.84,89.64205563135522,85.0789235853244,92.50121010181653,82.44768626419479,62.615155793984044,88.06073038590218
7727.05,90.1197026865637,84.77628359136007,92.36445700724035,82.70719271246656,63.59030824186111,88.1167366570087
7999.51,90.76237150159565,83.68469110912149,93.02029127233287,82.5249815338005,61.91930711501486,88.5859814440919
8282.23,90.96622493052682,82.7359436875039,93.15316573067717,82.00007023875207,58.38056635483834,88.64866418783693
8573.73,91.2204472033229,83.61213354561974,93.30963219668732,82.7134783466755,60.387798293514905,88.90398174202168
8876.95,91.4601730071491,84.15024206186993,93.22835534441305,82.84645624099511,62.2494344651012,88.98388284551923
9188.96,91.64220830368545,84.7063387984834,93.54556630569066,82.69617096274179,60.36379296506392,89.24751967186354
9514.16,91.27092598950662,86.44597831061219,94.01207837785911,81.84064714256016,59.20143933317824,89.4974291876804
9849.61,91.7924180821295,87.05330996326177,94.44018776239659,82.02873720060603,61.35062394832802,89.96427447567626
