Freq,Floor Bounce,Ceiling Bounce,Front Wall Bounce,Side Wall Bounce,Rear Wall Bounce,Total Early Reflection
20.5078,60.794873324162225,62.39698088266475,61.03224353438161,61.58347301585631,62.76446126668107,61.781494190061906
21.9727,61.25139622015679,62.78772555291998,61.49945641456351,61.863529491922506,62.77097311164091,62.08173938028223
23.4375,62.38875435153015,64.16843219427933,62.80120131145772,63.24843718582959,64.08307110431322,63.39397280713642
24.9023,65.17766087171891,66.42654157828396,65.53063959060295,65.72220224995236,65.72024344656835,65.73488925119413
26.3672,66.42765499690616,67.3505118755077,66.64111888285625,66.82094989066282,67.06378454844348,66.87279573981088
27.832,67.67719356635224,68.41448739318038,67.84015786108118,68.01162503405239,68.20300734590036,68.0371091785038
29.2969,68.6915119514352,69.20229067497964,68.80711464351349,68.89202824039306,68.87077136204458,68.89609878294745
30.7617,69.60482919577122,69.9444839079976,69.68360445590999,69.71577985615421,69.54566939096496,69.70103669412511
32.2266,70.45203936289813,70.61656837390167,70.4813156784818,70.47506886776502,70.23968302245056,70.45461919600449
33.6914,71.28316959381812,71.35434893098285,71.2901771084158,71.25507225402339,70.96766232567906,71.2321618324682
35.1562,72.09110304103804,72.00600401534213,72.04910452985354,71.99242877097413,71.6839859745808,71.96689444013936
36.6211,72.67660082271911,72.58868457582486,72.64790559044276,72.56625573847158,72.21360616781074,72.5417781335465
38.0859,73.44747177076408,73.29855551217709,73.41592910946062,73.29065797877912,72.81134023106107,73.25871382237807
39.5508,74.17350556407716,73.97924666209398,74.13441623417391,73.99055307045316,73.47967724847456,73.95840827844276
41.0156,74.84620328028845,74.59442138088487,74.79337494060665,74.64102871776726,74.14584198151692,74.6110839303151
42.4805,75.56433533614698,75.23350711537162,75.49031097661496,75.31526871624047,74.77975458542794,75.2851956067
43.9453,76.21300232131085,75.79982391433539,76.11559196885295,75.91774344419102,75.33935961513399,75.887658300606
45.4102,76.85763799973499,76.38737390056177,76.74379345425984,76.53653900892586,75.95542482901915,76.50744192980943
46.875,77.47454069578806,76.94535980727197,77.34441870361299,77.11443675201869,76.51175139623426,77.09098770689748
48.3398,78.0670389152346,77.51177619458234,77.93593842446175,77.69432750748456,77.05440986664821,77.66701312238074
51.2695,79.31740931317131,78.6634963064131,79.16086787910079,78.88824551121829,78.22841180863094,78.86845229988533
52.7344,79.90744114969223,79.22265134651113,79.74682902396417,79.45383705548802,78.76048422830279,79.43685653937767
54.1992,80.52714122545751,79.80510333471108,80.35914389441047,80.04979665127658,79.33266125179703,80.0350143129041
55.6641,81.12673962942425,80.37559842535194,80.95717054697916,80.62252607242068,79.85829050819213,80.61085343803092
58.5938,82.27494632248839,81.5132448888924,82.11996959866377,81.73868573570162,80.87108738459177,81.73131465840648
60.0586,82.82661749066554,82.04936768391617,82.67170930844598,82.27537385943218,81.361768219403,82.26708688066678
62.9883,83.91124394135318,83.08041854299232,83.73413287485421,83.33855891768029,82.46626289209752,83.33564074971457
64.4531,84.47460851644863,83.60373307299444,84.28232250506828,83.88866648561995,83.05212185414732,83.88919840763133
67.3828,85.56627895903553,84.60604243507069,85.3434709363291,84.94073466604779,84.15549737322692,84.95159659458467
68.8477,86.12241510428267,85.1235340622862,85.88800272368033,85.47408067834591,84.6910818182772,85.49010571984233
71.7773,87.20218739615731,86.12953808772367,86.94722067011058,86.51255257658329,85.74999316737065,86.54018374425344
74.707,88.311115703661,87.19356083984897,88.05287323136304,87.58442867600778,86.80972392455622,87.62470714784958
77.6367,89.41667993425506,88.26141599936017,89.15937051987196,88.65087361962259,87.83270544780406,88.70230999957461
79.1016,89.9567808130994,88.77814778787047,89.69647354676263,89.16866185268007,88.33241535314444,89.22652434764377
82.0312,91.0292164788863,89.7510010155699,90.74174096343812,90.1774056287565,89.31416697560829,90.2477782509714
84.9609,92.0863517246295,90.73666230686881,91.78477317038136,91.16983800792464,90.20137505701497,91.24923723290159
87.8906,93.03001938737141,91.63181276314916,92.71491727588746,92.09071130211464,91.10474581667839,92.1704499228413
90.8203,93.88748752686648,92.41208216694768,93.56996761773297,92.9148665231522,91.9663018450082,93.00792946199672
95.2148,95.30274122067821,93.85413246729614,95.00553963471603,94.31244977167572,93.39284212820796,94.43082517317222
98.1445,96.04106971308126,94.60823142962344,95.7556656863316,95.04329996205243,94.18234524889398,95.18125329009469
101.074,96.66589458270603,95.19393533710372,96.38585909107057,95.61369597624908,94.71029865501885,95.77466222097719
105.469,97.07440342466658,95.4778544878753,96.78207138779844,95.90965720807931,94.74393141247647,96.08000961971426
108.398,97.11291389076075,95.39440546532664,96.78806506773982,95.86259635224059,94.67777664134951,96.05804616343785
112.793,97.05933689746053,95.1935878389599,96.67082981668558,95.64719602461304,94.47167152871833,95.9114914327128
117.188,96.31155166798759,94.28952299416467,95.92797410316426,94.79548314606888,93.42389967253091,95.07705996144068
120.117,95.76228592514802,93.62806705178376,95.41410568471396,94.18444578957201,92.35941641416092,94.4391644092613
124.512,95.8080013192582,93.92362285738906,95.54243830631619,94.39317751597885,92.75454118204101,94.62263281088808
128.906,95.2459777996281,93.384170381521,94.98126346166647,93.75609753285309,92.37557567814805,94.07485409455343
133.301,94.73645255972735,92.84443802027086,94.50723982435464,93.14570726394653,91.26499745122233,93.47357406635972
139.16,94.30131455541316,92.09275960339933,93.97657165109864,92.57979736997692,90.50526312443297,92.89788000757316
143.555,93.99474814795121,91.62095483304581,93.66683720884942,92.21926801336669,89.75902317479655,92.50452626830415
147.949,93.87379620795912,91.61184543159031,93.62491206541927,92.25710727006982,89.97173704430038,92.4887740320755
153.809,93.73908642630398,91.46435269255848,93.50585483118145,92.09140720421694,90.32574003652422,92.40781178819545
159.668,93.38875367482312,90.95312511729526,93.1440838360199,91.45972612969487,89.90636813163553,91.96908304315322
165.527,93.23039891971275,90.36229115120652,92.94833871619382,90.94546285230989,88.2081950840692,91.50313968785952
171.387,93.40993882129719,91.03728445791539,93.35970571201462,91.40951600191248,87.10564498781768,91.7765490013648
177.246,92.62513534122199,90.88204202392114,92.71863533192838,90.83295565228063,87.26816039566216,91.25161105756148
183.105,92.29382885372878,90.57029938579242,92.44396552183213,90.58733559611365,86.8318600107361,90.94723173686722
188.965,92.47075267911923,90.78947129480402,92.65356126887112,90.82202816190255,87.06744357249006,91.15636365461015
196.289,92.09745276912999,90.51796021451692,92.34031230103646,90.5544771868351,86.91654600186224,90.85607191037168
203.613,90.81654373414793,89.5360848192776,91.18072407489232,89.5015503893542,86.87716264756781,89.81975991578275
210.938,89.59887139693465,89.12827350484552,90.40196899130474,88.5089983919363,85.80907266091465,88.94015428446419
218.262,89.69673973823285,90.11955261153982,90.93414665445474,89.08057860523532,85.21333207925552,89.3869953248119
225.586,91.66049660732249,90.87547984296235,92.1670707067669,90.34611670536246,88.59719146748526,90.89412954793168
232.91,94.452592930286,92.01827317355783,94.43541447060913,91.99854991773917,89.78140932149509,92.87417326617268
241.699,94.88923747838038,92.34279584751769,94.93066735645698,92.20397809924317,87.72120558475912,93.08040634949698
250.488,96.06530544913308,94.06832213610276,96.41295691729552,94.3109628440257,86.16894374280571,94.49741852026982
259.277,95.54397493481126,92.80924771122676,95.43897158335473,93.64808946062196,89.85042253862763,93.90048285018139
268.066,95.58132992455127,92.37942793948481,95.4855426320227,93.19800939537392,89.31243278603542,93.73759629323173
276.855,96.09057096629022,92.82254941578165,96.17017834182158,93.68241608388367,90.32235121798074,94.32402227284057
287.109,94.84071670191533,93.45212223173245,95.50988148521432,92.98259470458952,88.96966091474484,93.65295916152492
297.363,93.88103517792733,93.07594732612678,95.18994473771087,92.57165761053635,86.42380443794046,93.02110340345861
307.617,95.25956131513858,93.36083696016986,95.91708469526405,93.42750512501969,87.7723533306017,93.88504120187905
319.336,95.79822228264992,93.61846106817104,96.73349793023505,93.93574775887494,86.0082867968001,94.37382611650874
329.59,94.41364013876273,93.8883527227616,95.85150245268879,93.92001202906377,86.66292891134,93.79779680913576
341.309,94.42534620728259,92.53562872773712,94.93462380091131,92.6541264037899,88.38482018190697,93.10066281992859
353.027,94.78005356622083,92.38853040963626,95.30944235888782,92.33016771578023,88.11744930166175,93.21949633913201
366.211,95.24307462673026,93.29048302126021,96.23803337414473,93.68493524467961,87.2309845307907,93.99591949637203
379.395,95.39940256762458,92.51358133089063,96.04939377188869,93.3430704665355,89.8862836887999,93.94828902252893
392.578,93.4556403131957,89.67537181620726,94.29297344852124,91.43839560625311,86.7289610269503,91.87218202681895
405.762,89.77565170760784,89.71974596805497,91.75996539523778,89.17618987808547,83.23795183839566,89.46924922996244
420.41,90.59144536620381,87.41693756880379,91.2757789728446,88.40028428789543,79.6519276847719,88.83458990325389
435.059,89.74477573777634,87.37295998419185,90.96912650632026,88.78173471436128,82.87509416393881,88.67859393427578
451.172,88.27888653834479,88.68643208617578,89.3709721172887,87.0622374800624,83.54739509256746,87.79843658485534
465.82,92.69357284171214,89.2434024947199,92.77657968153548,89.26879834325648,85.43176782225866,90.63632913834535
483.398,92.82956883459336,91.21015721698832,94.27349567838006,90.67258116788898,84.72833064628708,91.69059065236794
499.512,92.90222619825926,92.10610456829552,94.72143503693623,91.0645474102645,83.82798692258517,92.07362726916102
517.09,91.4362460042245,90.37258296283228,92.31186989423945,89.03761190806853,81.51372176012335,90.109238645463
536.133,93.26794027523108,91.33243208553586,91.81454834272382,87.75285921615009,83.55106960212008,90.66141482964296
555.176,94.62206900790518,90.52742612241717,93.856446956785,89.66478454402554,84.1182360190203,91.84231594248278
574.219,92.99480162465231,91.22796640953045,93.12330024294852,88.99735978598248,81.25052792757641,91.00341855194215
594.727,93.42553901843424,90.1127034779005,92.35810951937786,87.66971575248114,79.49796517524499,90.50913867706738
615.234,92.45187021658306,89.21380603802065,92.46140947671655,87.86188414430181,80.04476147270941,90.05856663888922
637.207,94.08340380250645,91.21974894831583,93.03077750855392,87.43115920526343,79.91937026751218,91.17003865195876
659.18,93.81649641862366,89.92762746055676,92.7208264371044,86.72280990240434,77.45234575080279,90.63580472780322
682.617,93.69164591280129,89.31783718773953,91.14110826182257,86.45959576171286,79.0621491553403,90.01559880325244
707.52,93.91480136002377,88.12683057525788,91.6501361815383,86.7747620790476,78.00237496381713,90.09786862045617
732.422,92.20267236980878,86.19912665680482,91.93038160303378,86.5943816878965,77.1161082233842,89.18560554828066
757.324,91.5185664191843,86.82316863715732,90.68203606142696,83.94185398858548,74.66457717003716,88.25678912372553
785.156,91.04086860590321,82.71928105211458,88.11901794429282,82.44968322792823,75.0921708776663,86.6547477727989
811.523,92.48571989444784,82.36674568080105,89.35824434090047,85.82435872507817,77.85654969922145,88.13033549145023
840.82,93.90467872365879,88.10890252497983,93.22720090869008,89.44139811695129,82.80693890618517,90.98776118960312
870.117,96.90214008501977,91.3353435154635,95.32806155281604,91.32685283125633,82.7650495981051,93.50904502586795
900.879,94.72476735023541,91.0650653738529,94.28159260682813,90.15519616234774,81.28523974486835,92.09353447573874
933.105,94.81869008684598,90.6474937304685,93.26724926083197,89.89171885607362,82.35728279290784,91.73949815966849
965.332,94.9819666795822,90.24730581198449,94.62607847060856,89.05494664241915,80.79552094741216,92.0594651774862
1000.49,93.52032255711838,86.92682880148057,93.47276702955655,88.0862961186866,79.45668297311904,90.56799925862968
1035.64,93.01314753787764,86.66821329699046,93.8838333091752,86.71365172112651,76.24293790726932,90.35232206023339
1072.27,91.38733544716729,86.41427008594584,94.15976741324475,85.59043476126746,75.16947761301736,89.83670635346233
1108.89,91.28392378784383,84.5821966017305,93.7306233205984,84.8653350517741,74.32923666503429,89.37085276763705
1148.44,92.6225241390901,84.18355264980099,93.77757581629595,85.56499945778747,75.78729147845964,89.89071064183828
1189.45,92.18177197102713,85.48936420856597,93.41032541467251,85.54925967752546,76.5375145675327,89.64115063619003
1230.47,88.6048970024404,84.38348664980887,94.54020721296386,83.97636598649947,74.87160560801011,89.1642812015164
1274.41,91.06121455112937,85.30572190137727,92.36131048231458,83.72054910485843,75.15967984649085,88.58154074216542
1319.82,89.85189520344572,85.4792648154946,90.04196657021737,81.29493490541998,73.09418845825755,86.9625764461649
1366.7,88.17949733602747,84.22230348073533,91.91422212807238,78.37331618982077,71.72557272732169,87.0918470462653
1413.57,88.7046694658754,81.86384981351047,93.77171661061818,79.74507321664655,70.4635148464488,88.30510678625183
1463.38,90.44657217450927,80.97231253760246,94.78747920753227,80.71532057254761,74.71277538500013,89.437075418965
1516.11,90.73818760248047,85.00542757628935,95.52476261727563,83.04903145293035,75.56568822191163,90.25971822309728
1568.85,88.67627156194098,85.35988192859334,94.67172087979621,84.39884926991549,75.1564009082567,89.36614935608075
1624.51,88.59893770941484,83.93430195107085,94.47657509097907,84.36648869704888,73.92976423847443,89.10935872954914
1681.64,89.49479046696901,83.12543914316714,94.86021487401807,85.13420587048009,73.74947090649363,89.54969001545912
1741.7,90.50071655816951,84.53492050409551,94.9673106171609,85.96102171426669,74.63033065800823,89.97253042422301
1803.22,88.25562686504222,83.61583975037662,94.50366924777667,86.38594968424447,74.84470855426034,89.22779132967975
1866.21,88.22654939167843,83.42110735439509,94.47833548468036,86.3215299275673,76.22219090890333,89.20075868005516
1932.13,88.8047457639179,84.02322820018917,94.76014930659389,87.19616007308075,76.13674647348708,89.60921298966959
1999.51,89.65590653145165,85.34748753357908,95.50848558439318,87.53273085729744,76.32978691066745,90.35911144382386
2069.82,90.15077494558757,86.0481239683233,96.52406544935123,88.96326983783672,77.49382168638503,91.31831549127652
2143.07,89.67809143947737,86.6653577719731,96.32717851984553,88.36153319699072,76.5250030429498,91.08281380304811
2219.24,90.96985122208622,86.93346101514418,95.95439791635674,88.95176525912159,76.83241432621513,91.15080896974642
2296.88,91.78491795868689,87.52133985170893,96.47730386756942,89.27665225879944,77.50735322222275,91.71427032113927
2378.91,91.8883515280087,86.28956010788819,96.70741709639728,89.14391222224899,77.01889019746024,91.77651786682388
2462.4,91.15771993017854,86.77935015120086,95.33978967080685,87.99571237532602,76.97343938801463,90.70527083763642
2548.83,90.33621506659428,87.31306135783474,94.61087493964209,86.79769747425107,76.38437015673084,90.02794335487106
2639.65,89.50484113482821,87.08959919578254,94.78884740448505,87.70239693767307,74.3251121414868,90.0279878535614
2731.93,90.11587725742324,86.179693869529,94.3269822607455,87.96524711392938,75.69859165126468,89.83476959715249
2828.61,89.09663990291263,86.4016333065131,94.28404502644489,87.4088643208825,76.72828212631431,89.5696418593888
2928.22,87.90165983501045,85.54764538646417,93.34820320709872,86.99984061926315,73.44217682008909,88.64587252381644
3030.76,87.29013385093772,85.31005335443538,93.15163574991858,86.42661027131979,71.80026898757932,88.319895009216
3137.7,87.49209990049161,85.01287192477719,93.89341421430117,87.45694318773815,70.79540912878544,88.91902882657135
3249.02,87.04121109359619,83.79523617890996,92.46143838168801,85.78587044250037,70.70731589953196,87.63258588006975
3363.28,86.5772004030805,83.52121303873466,92.73184997477803,85.97450748288976,71.0934822728693,87.7292238884698
3481.93,86.09828299030634,83.69088685794607,93.36727827612198,86.4402328930699,71.42493061108279,88.15172817413718
3604.98,87.04092613953549,84.8250444082202,93.05283283785045,85.27000021710279,70.6897624863203,88.03127923876325
3732.42,87.43251974209501,86.36008682265489,94.2301090892354,86.52908344367341,71.47924445486744,89.13655291804086
3864.26,88.60368903872954,86.40360675669186,93.08469168991977,85.81993102861199,71.82295616596407,88.56564307379293
4000.49,89.74073780148069,88.02085160021355,94.90921752650982,87.31127853020197,70.55022477503637,90.18923735930134
4141.11,90.3954336856835,87.99428000064503,94.43805039407043,87.37032414945824,69.52348228226661,90.05067025305634
4287.6,90.42176095432403,87.90447619941838,95.1045423302566,87.41884788204099,69.80024298597716,90.42970740535277
4438.48,89.9784640413481,86.75966636952323,95.21659332308894,87.03221494777286,69.0317414286795,90.25810861553823
4595.21,90.25249082363744,84.69442431147336,94.98803180331785,86.344721424449,68.78403046105028,89.95348347439608
4756.35,90.28243388554442,85.27159490815275,95.22218381509668,86.16767069440627,67.48197897398866,90.1296165359709
4924.8,90.21622727830693,85.82759826843169,95.19123881378034,86.11026276262105,69.1178103556771,90.13242256750809
5097.66,90.21515842555861,87.1421861838616,94.84860888832797,85.94342788800493,67.61980540048536,90.0184924797508
5277.83,89.88793649595011,87.01575107770542,94.37896510194945,85.60034330607408,67.36813215998423,89.6256040963534
5463.87,89.14437962078374,86.68315625045325,93.96659382872961,85.43871223662613,64.9361833963546,89.17263915236491
5657.23,88.89285588621429,85.89857193000488,93.66569602311472,84.65645079416092,63.71909115052763,88.7900460518081
5856.45,87.76647356876369,85.68821771600888,92.51347574307374,83.43957786175353,63.16235973768265,87.74533112121001
6062.99,87.9725248067694,84.9867635820517,92.45899985860116,82.77790693713342,62.342340931506996,87.62694780552793
6276.86,87.63194645634889,84.1504597344643,92.61000262123521,83.09082033367305,63.63812590934002,87.58863843374911
6498.05,88.18723836190877,83.4852911947464,92.00574958499676,82.81516311058407,62.07702724627897,87.26187243680924
6726.56,88.32518665184958,83.70561572598844,92.01765118329362,82.56853935857306,61.76043447270912,87.30498969707126
6963.87,89.31225861029304,85.00947196248036,92.1259585351985,82.15115709991517,60.847081658801144,87.73393374978069
7209.96,89.68036233730443,85.53472836603832,92.44721604627122,82.14536623089009,61.23980600840973,88.07361470407321
7464.84,90.3124056313552,85.7492735853244,93.17156010181654,83.11803626419477,63.28550579398406,88.73108038590217
7727.05,90.79005268656368,85.44663359136008,93.03480700724033,83.37754271246658,64.26065824186115,88.7870866570087
7999.51,91.43272150159567,84.35504110912149,93.69064127233287,83.1953315338005,62.58965711501487,89.25633144409188
8282.23,91.63657493052682,83.4062936875039,93.82351573067716,82.67042023875206,59.05091635483835,89.31901418783694
8573.73,91.89079720332292,84.28248354561974,93.97998219668732,83.38382834667549,61.05814829351492,89.5743317420217
8876.95,92.13052300714911,84.82059206186993,93.89870534441306,83.51680624099511,62.91978446510119,89.65423284551925
9188.96,92.31255830368545,85.3766887984834,94.21591630569064,83.36652096274179,61.03414296506391,89.91786967186356
9514.16,91.94127598950662,87.11632831061218,94.68242837785913,82.51099714256016,59.871789333178256,90.16777918768041
9849.61,92.4627680821295,87.72365996326177,95.11053776239658,82.69908720060604,62.020973948328034,90.63462447567625
