Freq "Front Wall Bounce"
20.5078 61.03224353438161
21.9727 61.49945641456351
23.4375 62.80120131145772
24.9023 65.53063959060295
26.3672 66.64111888285625
27.832 67.84015786108118
29.2969 68.80711464351349
30.7617 69.68360445590999
32.2266 70.4813156784818
33.6914 71.2901771084158
35.1562 72.04910452985354
36.6211 72.64790559044276
38.0859 73.41592910946062
39.5508 74.13441623417391
41.0156 74.79337494060665
42.4805 75.49031097661496
43.9453 76.11559196885295
45.4102 76.74379345425984
46.875 77.34441870361299
48.3398 77.93593842446175
51.2695 79.16086787910079
52.7344 79.74682902396417
54.1992 80.35914389441047
55.6641 80.95717054697916
58.5938 82.11996959866377
60.0586 82.67170930844598
62.9883 83.73413287485421
64.4531 84.28232250506828
67.3828 85.3434709363291
68.8477 85.88800272368033
71.7773 86.94722067011058
74.707 88.05287323136304
77.6367 89.15937051987196
79.1016 89.69647354676263
82.0312 90.74174096343812
84.9609 91.78477317038136
87.8906 92.71491727588746
90.8203 93.56996761773297
95.2148 95.00553963471603
98.1445 95.7556656863316
101.074 96.38585909107057
105.469 96.78207138779844
108.398 96.78806506773982
112.793 96.67082981668558
117.188 95.92797410316426
120.117 95.41410568471396
124.512 95.54243830631619
128.906 94.98126346166647
133.301 94.50723982435464
139.16 93.97657165109864
143.555 93.66683720884942
147.949 93.62491206541927
153.809 93.50585483118145
159.668 93.1440838360199
165.527 92.94833871619382
171.387 93.35970571201462
177.246 92.71863533192838
183.105 92.44396552183213
188.965 92.65356126887112
196.289 92.34031230103646
203.613 91.18072407489232
210.938 90.40196899130474
218.262 90.93414665445474
225.586 92.1670707067669
232.91 94.43541447060913
241.699 94.93066735645698
250.488 96.41295691729552
259.277 95.43897158335473
268.066 95.4855426320227
276.855 96.17017834182158
287.109 95.50988148521432
297.363 95.18994473771087
307.617 95.91708469526405
319.336 96.73349793023505
329.59 95.85150245268879
341.309 94.93462380091131
353.027 95.30944235888782
366.211 96.23803337414473
379.395 96.04939377188869
392.578 94.29297344852124
405.762 91.75996539523778
420.41 91.2757789728446
435.059 90.96912650632026
451.172 89.3709721172887
465.82 92.77657968153548
483.398 94.27349567838006
499.512 94.72143503693623
517.09 92.31186989423945
536.133 91.81454834272382
555.176 93.856446956785
574.219 93.12330024294852
594.727 92.35810951937786
615.234 92.46140947671655
637.207 93.03077750855392
659.18 92.7208264371044
682.617 91.14110826182257
707.52 91.6501361815383
732.422 91.93038160303378
757.324 90.68203606142696
785.156 88.11901794429282
811.523 89.35824434090047
840.82 93.22720090869008
870.117 95.32806155281604
900.879 94.28159260682813
933.105 93.26724926083197
965.332 94.62607847060856
1000.49 93.47276702955655
1035.64 93.8838333091752
1072.27 94.15976741324475
1108.89 93.7306233205984
1148.44 93.77757581629595
1189.45 93.41032541467251
1230.47 94.54020721296386
1274.41 92.36131048231458
1319.82 90.04196657021737
1366.7 91.91422212807238
1413.57 93.77171661061818
1463.38 94.78747920753227
1516.11 95.52476261727563
1568.85 94.67172087979621
1624.51 94.47657509097907
1681.64 94.86021487401807
1741.7 94.9673106171609
1803.22 94.50366924777667
1866.21 94.47833548468036
1932.13 94.76014930659389
1999.51 95.50848558439318
2069.82 96.52406544935123
2143.07 96.32717851984553
2219.24 95.95439791635674
2296.88 96.47730386756942
2378.91 96.70741709639728
2462.4 95.33978967080685
2548.83 94.61087493964209
2639.65 94.78884740448505
2731.93 94.3269822607455
2828.61 94.28404502644489
2928.22 93.34820320709872
3030.76 93.15163574991858
3137.7 93.89341421430117
3249.02 92.46143838168801
3363.28 92.73184997477803
3481.93 93.36727827612198
3604.98 93.05283283785045
3732.42 94.2301090892354
3864.26 93.08469168991977
4000.49 94.90921752650982
4141.11 94.43805039407043
4287.6 95.1045423302566
4438.48 95.21659332308894
4595.21 94.98803180331785
4756.35 95.22218381509668
4924.8 95.19123881378034
5097.66 94.84860888832797
5277.83 94.37896510194945
5463.87 93.96659382872961
5657.23 93.66569602311472
5856.45 92.51347574307374
6062.99 92.45899985860116
6276.86 92.61000262123521
6498.05 92.00574958499676
6726.56 92.01765118329362
6963.87 92.1259585351985
7209.96 92.44721604627122
7464.84 93.17156010181654
7727.05 93.03480700724033
7999.51 93.69064127233287
8282.23 93.82351573067716
8573.73 93.97998219668732
8876.95 93.89870534441306
9188.96 94.21591630569064
9514.16 94.68242837785913
9849.61 95.11053776239658
10196.8 95.25569431976407
10555.7 95.4706039938585
10927.7 94.4838555949997
11313.0 93.17561304821216
11712.9 94.21561238097608
12126.0 95.51798257635517
12553.7 96.71655188095224
12996.1 97.33228563838856
13454.6 94.47002692649899
13929.2 95.42536848484768
14419.9 96.29744431940482
14928.2 96.7866947285796
15455.6 88.542785272319
16000.5 77.09666590345519
16564.5 87.06245432582989
17148.9 89.72939053586718
17752.4 77.50341465591696
18379.4 72.96513829776175
19026.9 77.33943014935824
19697.8 80.57434242797915
19999.5 79.45374793229568
