Freq "Rear Wall Bounce"
20.5078 62.76446126668107
21.9727 62.77097311164091
23.4375 64.08307110431322
24.9023 65.72024344656835
26.3672 67.06378454844348
27.832 68.20300734590036
29.2969 68.87077136204458
30.7617 69.54566939096496
32.2266 70.23968302245056
33.6914 70.96766232567906
35.1562 71.6839859745808
36.6211 72.21360616781074
38.0859 72.81134023106107
39.5508 73.47967724847456
41.0156 74.14584198151692
42.4805 74.77975458542794
43.9453 75.33935961513399
45.4102 75.95542482901915
46.875 76.51175139623426
48.3398 77.05440986664821
51.2695 78.22841180863094
52.7344 78.76048422830279
54.1992 79.33266125179703
55.6641 79.85829050819213
58.5938 80.87108738459177
60.0586 81.361768219403
62.9883 82.46626289209752
64.4531 83.05212185414732
67.3828 84.15549737322692
68.8477 84.6910818182772
71.7773 85.74999316737065
74.707 86.80972392455622
77.6367 87.83270544780406
79.1016 88.33241535314444
82.0312 89.31416697560829
84.9609 90.20137505701497
87.8906 91.10474581667839
90.8203 91.9663018450082
95.2148 93.39284212820796
98.1445 94.18234524889398
101.074 94.71029865501885
105.469 94.74393141247647
108.398 94.67777664134951
112.793 94.47167152871833
117.188 93.42389967253091
120.117 92.35941641416092
124.512 92.75454118204101
128.906 92.37557567814805
133.301 91.26499745122233
139.16 90.50526312443297
143.555 89.75902317479655
147.949 89.97173704430038
153.809 90.32574003652422
159.668 89.90636813163553
165.527 88.2081950840692
171.387 87.10564498781768
177.246 87.26816039566216
183.105 86.8318600107361
188.965 87.06744357249006
196.289 86.91654600186224
203.613 86.87716264756781
210.938 85.80907266091465
218.262 85.21333207925552
225.586 88.59719146748526
232.91 89.78140932149509
241.699 87.72120558475912
250.488 86.16894374280571
259.277 89.85042253862763
268.066 89.31243278603542
276.855 90.32235121798074
287.109 88.96966091474484
297.363 86.42380443794046
307.617 87.7723533306017
319.336 86.0082867968001
329.59 86.66292891134
341.309 88.38482018190697
353.027 88.11744930166175
366.211 87.2309845307907
379.395 89.8862836887999
392.578 86.7289610269503
405.762 83.23795183839566
420.41 79.6519276847719
435.059 82.87509416393881
451.172 83.54739509256746
465.82 85.43176782225866
483.398 84.72833064628708
499.512 83.82798692258517
517.09 81.51372176012335
536.133 83.55106960212008
555.176 84.1182360190203
574.219 81.25052792757641
594.727 79.49796517524499
615.234 80.04476147270941
637.207 79.91937026751218
659.18 77.45234575080279
682.617 79.0621491553403
707.52 78.00237496381713
732.422 77.1161082233842
757.324 74.66457717003716
785.156 75.0921708776663
811.523 77.85654969922145
840.82 82.80693890618517
870.117 82.7650495981051
900.879 81.28523974486835
933.105 82.35728279290784
965.332 80.79552094741216
1000.49 79.45668297311904
1035.64 76.24293790726932
1072.27 75.16947761301736
1108.89 74.32923666503429
1148.44 75.78729147845964
1189.45 76.5375145675327
1230.47 74.87160560801011
1274.41 75.15967984649085
1319.82 73.09418845825755
1366.7 71.72557272732169
1413.57 70.4635148464488
1463.38 74.71277538500013
1516.11 75.56568822191163
1568.85 75.1564009082567
1624.51 73.92976423847443
1681.64 73.74947090649363
1741.7 74.63033065800823
1803.22 74.84470855426034
1866.21 76.22219090890333
1932.13 76.13674647348708
1999.51 76.32978691066745
2069.82 77.49382168638503
2143.07 76.5250030429498
2219.24 76.83241432621513
2296.88 77.50735322222275
2378.91 77.01889019746024
2462.4 76.97343938801463
2548.83 76.38437015673084
2639.65 74.3251121414868
2731.93 75.69859165126468
2828.61 76.72828212631431
2928.22 73.44217682008909
3030.76 71.80026898757932
3137.7 70.79540912878544
3249.02 70.70731589953196
3363.28 71.0934822728693
3481.93 71.42493061108279
3604.98 70.6897624863203
3732.42 71.47924445486744
3864.26 71.82295616596407
4000.49 70.55022477503637
4141.11 69.52348228226661
4287.6 69.80024298597716
4438.48 69.0317414286795
4595.21 68.78403046105028
4756.35 67.48197897398866
4924.8 69.1178103556771
5097.66 67.61980540048536
5277.83 67.36813215998423
5463.87 64.9361833963546
5657.23 63.71909115052763
5856.45 63.16235973768265
6062.99 62.342340931506996
6276.86 63.63812590934002
6498.05 62.07702724627897
6726.56 61.76043447270912
6963.87 60.847081658801144
7209.96 61.23980600840973
7464.84 63.28550579398406
7727.05 64.26065824186115
7999.51 62.58965711501487
8282.23 59.05091635483835
8573.73 61.05814829351492
8876.95 62.91978446510119
9188.96 61.03414296506391
9514.16 59.871789333178256
9849.61 62.020973948328034
10196.8 58.21811714984791
10555.7 59.71207390402212
10927.7 56.60260819265629
11313.0 55.23365571828897
11712.9 55.763558135058034
12126.0 54.41415250069623
12553.7 52.67925841829556
12996.1 52.75483414125189
13454.6 51.139447124640256
13929.2 52.848925657570746
14419.9 52.72264948937273
14928.2 53.130706739000246
15455.6 48.30096118158495
16000.5 40.123602750735884
16564.5 44.69153937185986
17148.9 48.923364602003105
17752.4 39.22337359825859
18379.4 40.92045025106127
19026.9 40.708995259122204
19697.8 45.48170386510357
19999.5 48.0521569974337
