Freq,Floor Bounce,Ceiling Bounce,Front Wall Bounce,Side Wall Bounce,Rear Wall Bounce,Total Early Reflection
22.4,16.62747332942243,11.386332406791666,16.624272645169015,16.57773232994657,13.59225123735186,15.417470664081208
23.0,18.178732729575586,12.825264539288497,16.98954506417445,16.869085284952575,13.721152872750906,16.172055065179904
23.6,19.89257377748325,14.454050934530756,17.777976335318215,17.559602393143308,14.273213348959928,17.310343777538492
24.0,23.271833549722743,17.68888377963458,20.342191665963128,19.980886469888162,16.493825485111017,20.199563771100372
25.0,25.672380957805274,20.014959075105025,22.138066050191867,21.683388882967506,17.974628365234054,22.269647879510302
25.8,27.77567604030068,22.11495907510499,23.990517410665547,23.388167989006945,19.495975187969464,24.21537809573499
26.5,29.51875091164311,23.86023655467065,25.69477998736474,24.99062394807808,20.905873071028935,25.9065662807852
27.2,30.826811388380094,25.207992652155895,27.183570125413382,26.319867695600237,22.042514304207373,27.24744396370366
28.0,31.81406839527,26.290462216100593,28.516461123319402,27.49643038881277,23.05294681698595,28.3487867106237
29.0,32.70265313251616,27.27783080594571,29.751902373700233,28.595780749089215,24.038033936710406,29.36426029512114
30.0,33.9925701141361,28.73821129888745,31.44813233166454,30.118020939688478,25.491436869941765,30.815550146973862
30.7,36.158660276008334,31.03435140868504,34.02138244572882,32.55351178986251,27.858077809800164,33.152734729440624
31.5,37.95062128010366,33.06769521305293,36.31179798176461,34.63664273681283,29.916636574102796,35.16712566133367
32.5,39.376416297321555,34.668450838054326,38.135018109388426,36.28106604217095,31.622416333427537,36.77630432620845
33.5,40.54391724861637,36.03663575667187,39.72318469808292,37.680273162168106,33.074697539898295,38.14555813596323
34.5,41.611921267533546,37.24044167945493,41.051096347026856,38.80494125826573,34.32829831702065,39.328093993085105
35.5,42.77035193787353,38.54283030471976,42.53053708434763,40.109844604369584,35.715022627642895,40.642126374932616
36.5,45.03855083142048,40.94680983520814,45.0409144728404,42.47304591225125,38.225179877519395,43.035457657569594
37.5,46.970351937873545,43.05237800738084,47.12584636900576,44.410933483998576,40.30658034368443,45.048998726662575
38.7,48.41192126753356,44.69046221610057,48.81796593307129,45.928648568875985,42.01075548579615,46.628391335288114
40.0,49.670351937873534,46.06966078457043,50.24373727151266,47.239300559204366,43.4766751393272,47.981570621411606
41.2,50.9026545034034,47.48064061661162,51.61971117754723,48.509518622993056,44.91363569359254,49.30681820143539
42.5,52.802654503403375,49.49317164073085,53.65090244345353,50.42615718824149,46.98920701179287,51.28231081025257
43.7,54.635462631346826,51.46563268960989,55.601121284850336,52.30003562034105,49.01151789406492,53.195430391704946
45.0,56.135462631346826,53.138550831420474,57.20200022311937,53.84930294444709,50.699266167123454,54.77658239757389
46.2,57.5094224842602,54.51192126753355,58.5993516093572,55.21500489784955,52.17455043886912,56.165321619291376
47.5,58.86878033996791,56.01192126753355,60.003065066425705,56.61678042685736,53.64602321933825,57.57544749827821
48.7,60.76878033996792,58.085739156489694,62.002511822353384,58.602209833904396,55.74352728537056,59.56464540852977
50.0,62.502611558953646,59.885739156489706,63.71320546285892,60.343244694933844,57.55995411471744,61.3079360500397
51.5,64.02869245367795,61.45999961744991,65.22000137169567,61.874581992164394,59.14627839787221,62.840261236967095
53.0,65.42869245367795,62.885739156489706,66.60345363732374,63.3190827100629,60.60893920493817,64.25084663345561
54.5,66.98915630129642,64.5857391564897,68.1433485223848,64.9555409998163,62.28019789062927,65.84689578658194
56.0,68.61592538879984,66.24391724861637,69.6660196401295,66.57777758204526,63.92600683684202,67.4443145051164
58.0,70.17717895989803,67.84391724861638,71.17868670756846,68.12831318648553,65.5174173044595,68.99628360348822
60.0,71.60464502318536,69.3026545034034,72.54557463080437,69.56739355308326,66.95158762131979,70.4111657328478
61.5,72.96668552790021,70.7026545034034,73.84293583643417,71.01393935867685,68.35519000151488,71.77594181175307
63.0,74.29485705883171,71.98888547155003,75.03431563563917,72.29019842384545,69.60888639415356,73.03837260022848
65.0,75.4234968506598,73.18888547155002,76.11892525779707,73.45005539808695,70.72869120496965,74.16891260399996
67.0,76.52349685065981,74.34898359150841,77.15990428548037,74.57571998615474,71.81530784843537,75.26335050620659
69.0,77.58656646311248,75.47662798253906,78.16779528950983,75.67687706399903,72.82751404995157,76.3219470666686
71.0,78.58656646311246,76.53752777300026,79.13963085624934,76.68171073829218,73.76959601397127,77.31914145291955
73.0,79.31592692226707,77.33752777300026,79.83963085624933,77.46360538870431,74.47653907136097,78.05864057539827
75.0,80.01592692226706,78.09897445130926,80.45208533613584,78.15074387834098,75.07238170328003,78.73165708410714
77.5,80.5457671943847,78.76096514237182,81.00721463371882,78.74655208892526,75.57734029738532,79.30154180096932
80.0,80.94576719438469,79.26096514237183,81.39258897373793,79.19045635742407,75.91900049889317,79.71790024323046
82.5,81.37609175449222,79.78982856673473,81.83351145172536,79.69502402885024,76.34346199632314,80.18193164410262
85.0,81.87609175449221,80.35260953202217,82.32156724029149,80.22896068340832,76.80197399860717,80.69266359955007
87.5,82.2457671943847,80.85260953202219,82.66216591209319,80.63590718523628,77.10894240158098,81.07998155736153
90.0,82.47609175449222,81.18219967332304,82.87609590805047,80.95854298325327,77.3192316158071,81.33979596265799
92.5,82.6760917544922,81.4457671943847,83.07609590805048,81.22119399756872,77.50457647293335,81.56248807732484
95.0,82.77609175449223,81.64576719438469,83.17609590805047,81.40119841511367,77.60269512728054,81.69682835818091
97.5,83.00690501035459,81.94576719438469,83.41779201078754,81.72269762175999,77.8528646464684,81.96297954422026
100.0,83.30690501035458,82.30986628672329,83.70198234838041,82.10578027541328,78.14039784059585,82.2862757977253
103.0,83.54044167945491,82.6098662867233,83.9142595479255,82.36285829258989,78.33525316545045,82.52895852742105
106.0,83.70690501035459,82.80986628672329,84.08532465425967,82.59422129062301,78.49546670530553,82.71561270594182
109.0,84.00690501035459,83.1098662867233,84.37080002292898,82.92041668648142,78.74469168395356,83.01292596361534
112.0,84.27387961222817,83.4098662867233,84.64057262087539,83.20643178359288,78.95056546717318,83.28663500542524
115.0,84.40690501035459,83.6098662867233,84.78404859141023,83.38821639680481,79.05491654651225,83.44385949624534
118.0,84.50690501035459,83.7404416794549,84.89632636953468,83.51439962604044,79.11662140265048,83.5559762606482
122.0,84.64283030471974,83.90986628672329,85.02453345079579,83.64457918170379,79.15810704962679,83.68895825069299
125.0,84.70690501035459,84.00986628672328,85.09632636953467,83.71439962604046,79.13027596984382,83.75745390097796
128.0,84.64283030471974,83.9404416794549,85.03732192195841,83.67327806376326,79.00029670536182,83.69367676318137
132.0,84.64283030471974,84.00986628672328,85.09467901604083,83.7138840282544,78.92276688698826,83.72700346854708
136.0,84.64283030471974,84.07449351030439,85.09467901604083,83.7138840282544,78.83547252122827,83.73517636692162
140.0,84.61227178315619,84.0404416794549,85.02263558555985,83.70567992094993,78.70906771658892,83.69087325086628
145.0,84.54283030471974,84.0404416794549,85.00755557040189,83.67585041798112,78.57519613590989,83.6552638585641
150.0,84.54283030471974,84.0404416794549,84.99206989860744,83.66518549583996,78.49878174160693,83.64418516181472
155.0,84.47928732607433,84.07449351030439,84.9775678463743,83.67747270305944,78.41515772110853,83.62959240500703
160.0,84.54283030471974,84.17449351030439,85.0500077200763,83.76841194555182,78.39967588699523,83.70450524758353
165.0,84.57928732607432,84.3053180676647,85.13634321746312,83.86841194555183,78.40948474741549,83.78707971517298
170.0,84.61227178315619,84.34044167945491,85.16460193933735,83.93004027000732,78.36813595429963,83.82084073326904
175.0,84.61227178315619,84.4053180676647,85.23634321746312,83.9737361635521,78.36413745514956,83.86385400471436
180.0,84.61227178315619,84.43663575667186,85.26460193933733,84.00622657502893,78.31819069507108,83.88282412699564
185.0,84.57928732607432,84.4053180676647,85.26460193933733,83.99137730489662,78.21381969408921,83.85911848785791
190.0,84.37928732607432,84.27071732495409,85.12355185978056,83.81279926946446,77.97857755713817,83.69285293290147
195.0,84.2489851487955,84.1053180676647,85.02355185978057,83.64796284629375,77.72228827200414,83.54926418406639
200.0,84.08623512455236,84.0053180676647,84.92355185978056,83.55263214706714,77.55107322089862,83.43185442092314
206.0,84.04898514879551,83.90531806766471,84.92355185978056,83.47758834116448,77.43464033895704,83.37911690375275
212.0,84.01916705502754,83.90531806766471,84.92355185978056,83.44325864623539,77.36980298295809,83.3618779746976
218.0,83.9862351245524,83.8404416794549,84.9110151650174,83.40387266161646,77.26108982408917,83.32249005674181
224.0,84.05667255930051,83.87449351030438,85.0110151650174,83.41465972350282,77.23730176403114,83.37659529617835
230.0,84.05667255930051,83.90986628672329,85.0414643500829,83.426219927111,77.21247373610754,83.39455915621569
236.0,84.11916705502753,83.97977745790568,85.11101516501739,83.45208192664633,77.24682052341038,83.45208547011526
240.0,84.1566725593005,83.97977745790568,85.16849470234304,83.45171219264328,77.25928253028114,83.47827040928588
250.0,84.11916705502753,83.9501707521257,85.13823510321515,83.37032378865038,77.22925058245973,83.43635602687985
258.0,84.05667255930051,83.91592692226706,85.09722722923694,83.2883015947607,77.16917549006793,83.38288529241733
265.0,83.9566725593005,83.78656646311248,85.01199959334454,83.14407281820597,77.09763738224473,83.2734047422653
272.0,83.85667255930049,83.69238562216105,84.93823510321516,83.00128119167898,77.02669750945299,83.17570910673471
280.0,83.71916705502754,83.5292667687942,84.81199959334455,82.78549518509558,76.86248455251571,83.01960008705065
290.0,83.58982856673472,83.32926676879421,84.66847872251043,82.57559458673886,76.72515680123121,82.85456022465608
300.0,83.42758719283592,83.13897757455801,84.51231286508059,82.32960623251073,76.56481113893238,82.6724179299832
307.0,83.28982856673473,82.9117284643738,84.35518249849905,82.08687435836055,76.3576013149678,82.48621591349436
315.0,83.12758719283592,82.6117284643738,84.17080002292897,81.81053837718682,76.11468676086591,82.26239524299022
325.0,83.02758719283592,82.42361102993709,84.0427369100676,81.59443412385636,75.91431003761198,82.1090124004292
335.0,82.96588846059687,82.22361102993712,84.00018400704921,81.40397502886415,75.73390704855251,81.99556325351313
345.0,82.93752777300027,82.06283617001536,83.97493174605349,81.27582829271867,75.56913871275795,81.91683997509178
355.0,83.03752777300028,81.96283617001536,83.9901252688507,81.20507766218437,75.4792223094407,81.91063347617168
365.0,83.13752777300029,81.93696012594368,84.12038572538128,81.24061390626727,75.47605838174363,81.97969694892143
375.0,83.27662798253905,81.90261155895365,84.22191407277629,81.26157609862321,75.43356853366399,82.04462786392085
387.0,83.44898359150842,81.8094224842602,84.36896449293783,81.30448128943323,75.36564079924331,82.12635101759582
400.0,83.52179738688895,81.67641629732151,84.4268345531296,81.28853447663995,75.22638265992082,82.1330192213821
412.0,83.5950645803583,81.55062128010366,84.5268345531296,81.30324018637097,75.088489122885,82.16214595172553
425.0,83.5950645803583,81.3179278976485,84.55895386690143,81.27804302343752,74.90737685645868,82.12263582782025
437.0,83.4094224842602,80.9857391564897,84.41942621320376,81.08523495664573,74.53713775164246,81.92122543631076
450.0,83.30942248426018,80.68573915648969,84.37694707771286,81.02220502720282,74.26203932446344,81.81013576265198
462.0,83.05062128010363,80.3026335053877,84.2053439370603,80.79957396264103,73.84928582807471,81.56494542021147
475.0,82.86726558859611,79.97757950460712,84.03517261665552,80.65500373551072,73.43090128575894,81.3643467121588
487.0,82.54258273663015,79.52102614963506,83.78874015267434,80.36725216079228,72.93155380409613,81.05077160160562
500.0,82.34258273663015,79.27269145322595,83.73308677028218,80.30762018243016,72.5858046145368,80.9185776779455
515.0,82.31832544184972,79.19389595883672,83.74740491583755,80.33537025348943,72.41530481569721,80.9065671896216
530.0,82.31832544184972,79.14852015458806,83.83096146456793,80.45252283937171,72.24853502683138,80.94892008891739
545.0,82.36136837622763,79.10473949550547,83.94315712943684,80.56184613651494,72.06258146632544,81.01352014680641
560.0,82.36136837622763,79.00921140720403,84.02707291688915,80.6449538710734,71.83997335683463,81.04410311329556
580.0,82.36136837622763,78.89727311966743,84.0390020166588,80.65993888888482,71.5672419036544,81.03138752340851
600.0,82.20497668676808,78.6412772730039,83.96539207423841,80.56734844978271,71.18427047572719,80.90307170079922
615.0,82.0377673428554,78.32129830443603,83.79199387539457,80.39025328586551,70.79012929394007,80.70889438537458
630.0,81.9377673428554,78.07283899448728,83.7061194361375,80.31287820535914,70.46641353371736,80.59756198647338
650.0,81.9491520399883,77.99348099807185,83.76189813238985,80.27297620710976,70.29757119977126,80.60418293414665
670.0,82.0260245235669,77.90255084073483,83.89062863351617,80.28055179619193,70.20408036175414,80.6687260058739
690.0,82.10330383828929,77.8621070476537,84.0810540527028,80.29901498466553,70.14162728602292,80.7686469968144
710.0,82.20473949550548,77.73268757119693,84.19521518238467,80.2482794379296,70.00586840853781,80.82141164918914
730.0,82.10473949550547,77.45336093747687,84.2268345531296,80.09687791685408,69.74472274030907,80.75060211943028
750.0,81.77695775614916,76.8775184430429,83.98874015267435,79.57598445660807,69.20732471247992,80.4048229717733
775.0,81.23638088039144,76.12181948028218,83.58106606182241,78.90845183808597,68.47025264162332,79.88358331573323
800.0,80.99727311966744,75.62307484565137,83.41106138014496,78.46367319933105,67.92685968698903,79.61950396512519
825.0,81.0269682029423,75.3668421586779,83.47391641120409,78.26773269750049,67.65177791085,79.60517884925575
850.0,81.05800804769342,75.18224592941664,83.60969563972613,78.09881661388478,67.3016026368511,79.63865498472121
875.0,81.04010271092207,74.80797077657874,83.62067052891219,77.74079228521582,66.81654413009295,79.55918307480673
900.0,80.77301209244409,74.3642044300979,83.35990168395998,77.18588249732792,66.06944924388503,79.24195556053353
925.0,80.6730120924441,74.07922807378422,83.30017652097548,76.78039253901868,65.5080080811535,79.10997943521454
950.0,80.82406634433558,74.1771240081047,83.38700543078883,76.58477701696393,65.06800920014354,79.17970149254612
975.0,80.90722706905572,74.29906608981301,83.48262573441201,76.22215186277255,64.43360982902706,79.21993609544968
1000.0,80.94465953615895,74.39003455309985,83.43377777961882,75.72731928257801,63.63919376001266,79.15886777250476
1030.0,80.47569581518242,74.00669030042278,82.95301120868515,74.77316317559483,62.38421727819065,78.64341761534237
1060.0,80.0756958151824,73.70669030042276,82.52864232687878,73.8903894273207,61.13225691882221,78.19586003024602
1090.0,80.47569581518242,74.1723238639022,82.87829344935511,73.69775263358476,60.57575293163691,78.52840384763019
1120.0,81.04465953615896,74.72966680069685,83.411893842498,73.825710396678,60.32460521732736,79.04707638160104
1150.0,81.34465953615896,74.9408883208691,83.68918272600847,73.7662082084719,59.8811713251595,79.30542569502285
1180.0,81.28067853625087,74.61231772006403,83.59296867046163,73.4184403117734,59.10106565656946,79.18784569367963
1220.0,81.06443680503088,74.10532447268656,83.3648444388758,72.9663325776636,58.1521184425948,78.93178074030823
1250.0,80.84850588118668,73.58905889228684,83.23117226158487,72.6742345327372,57.25794143418804,78.73791293663668
1280.0,80.53288092656521,73.0728393611565,82.95703695997643,72.3651055546948,56.39463367743488,78.43334573554021
1320.0,80.18681963215333,72.54452417682413,82.67731236850578,72.14078963961872,55.582649931079004,78.12020934930848
1360.0,80.07168531355222,72.30358767157588,82.60486957832003,72.23000398349744,55.065434101650425,78.03275398982069
1400.0,79.95684436552907,72.10851907584342,82.56140161259249,72.3757626296833,54.743034410945626,77.96852439497616
1450.0,79.85684436552907,72.02527649365192,82.46904681656008,72.5047909206565,54.59804671391382,77.88669740875827
1500.0,79.80252973822756,72.09900213949675,82.4165742761308,72.68998446401189,54.62834361881724,77.85446731297762
1550.0,79.81755713588666,72.22519075000122,82.39225597202629,72.91551257480688,54.850805982513805,77.86641808384499
1600.0,79.76400119283414,72.32720521710813,82.19225597202629,73.03291971726236,55.00066685462278,77.75076926232278
1650.0,79.61101842217599,72.35154205743346,81.98700523226908,73.07638387613255,55.048897530896596,77.59305475144856
1700.0,79.7586096117203,72.57617418613407,81.92176344699956,73.28292395993469,55.31648275151093,77.63407761589579
1750.0,79.92285985267755,72.81423455486664,81.80862960655855,73.45902576464931,55.67674884372556,77.65758447441242
1800.0,80.07179133196206,73.0568850809307,81.71692112272083,73.57992210275907,56.09065631541384,77.6875684152748
1850.0,80.18835946822156,73.23060038152964,81.53064677455774,73.61902779880138,56.4281747982086,77.65185488498733
1900.0,80.1567134496405,73.37551113390336,81.2704866594812,73.46493431895644,56.6364564290061,77.51401921412138
1950.0,80.2447529719088,73.6269543636971,81.12420301296768,73.36202137062342,56.94604111989409,77.49080205882943
2000.0,80.3696633335684,73.92457286268697,81.02420301296769,73.30360154719139,57.33297977101074,77.51441575742001
2060.0,80.54331750677855,74.21772155339536,81.08821215805887,73.28802188030272,57.80337825499146,77.63632109248871
2120.0,80.66338775251363,74.47260330753234,81.16533023276914,73.24571748081111,58.37411783033622,77.73917036921807
2180.0,80.84985150686697,74.91432579929966,81.3927203174829,73.28955487350602,59.19640509819263,77.95999629398975
2240.0,80.89562483724393,75.09304640532419,81.4438482654496,73.18523662399619,59.86301781062764,78.01322451893809
2300.0,80.64197022557484,75.01231772006402,81.28586550978531,72.94163044582078,60.21681737770146,77.82240830831782
2360.0,80.48444762363009,75.02909320145775,81.30677458973642,72.91663471263195,60.642637526819385,77.77391616700348
2400.0,80.83209919948372,75.44245122348403,81.80740903427103,73.43388646787355,61.45661787083279,78.21113320613878
2500.0,81.41498382011471,76.05197394722938,82.59427781998927,74.31620145583769,62.47397185367855,78.91336259050112
2580.0,81.71903234364801,76.1857616279149,82.98539506456989,74.86025740117465,62.94851620017907,79.25889925756354
2650.0,81.45447715330636,75.56775093645086,82.73379180569331,74.87510268159282,62.7147015800802,78.98810701694777
2720.0,80.904109166386,74.50764126961164,82.17364201754005,74.65309596073635,62.094689048571325,78.41542428914968
2800.0,80.27211025799336,73.37569704166766,81.51733698856933,74.27739304183494,61.34690327921726,77.75507828140883
2900.0,79.8816538778036,72.56968778092815,81.12747417928844,74.109046702013,60.85205135407193,77.35597365993077
3000.0,79.6954735506012,71.98209061368317,81.00794606903249,74.16914016900802,60.59388503966045,77.19990504122646
3070.0,79.80084968059333,71.65135124571822,81.29217441701567,74.54338595674028,60.638665962305964,77.39450377985179
3150.0,80.10095746985175,71.50445255191632,81.83286145552022,75.11104633653554,60.83752467465578,77.8197343671818
3250.0,80.0087822760463,71.16673303082008,82.12369975985693,75.2953675501308,60.671309311077096,77.9430441084514
3350.0,79.34143741852614,70.43916927982258,82.04878504115953,74.96600014010329,59.970598713705186,77.6289308143998
