Freq "Front Wall Bounce"
22.4 17.26351315149816
23.0 17.628785570503567
23.6 18.41721684164733
24.0 20.981432172292216
25.0 22.777306556520955
25.8 24.629757916994663
26.5 26.334020493693856
27.2 27.82281063174247
28.0 29.15570162964852
29.0 30.391142880029378
30.0 32.087372837993655
30.7 34.660622952057935
31.5 36.95103848809373
32.5 38.77425861571754
33.5 40.36242520441206
34.5 41.690336853355944
35.5 43.169777590676745
36.5 45.680154979169515
37.5 47.76508687533487
38.7 49.45720643940044
40.0 50.882977777841774
41.2 52.25895168387635
42.5 54.29014294978268
43.7 56.24036179117945
45.0 57.84124072944849
46.2 59.23859211568629
47.5 60.64230557275482
48.7 62.6417523286825
50.0 64.35244596918805
51.5 65.85924187802479
53.0 67.24269414365286
54.5 68.78258902871391
56.0 70.30526014645862
58.0 71.81792721389759
60.0 73.1848151371335
61.5 74.48217634276328
63.0 75.6735561419683
65.0 76.7581657641262
67.0 77.79914479180948
69.0 78.80703579583893
71.0 79.77887136257846
73.0 80.47887136257846
75.0 81.09132584246494
77.5 81.64645514004793
80.0 82.03182948006705
82.5 82.47275195805449
85.0 82.96080774662059
87.5 83.3014064184223
90.0 83.51533641437959
92.5 83.7153364143796
95.0 83.81533641437959
97.5 84.05703251711665
100.0 84.34122285470954
103.0 84.55350005425463
106.0 84.72456516058878
109.0 85.0100405292581
112.0 85.2798131272045
115.0 85.42328909773934
118.0 85.53556687586378
122.0 85.6637739571249
125.0 85.73556687586378
128.0 85.67656242828753
132.0 85.73391952236994
136.0 85.73391952236994
140.0 85.66187609188897
145.0 85.646796076731
150.0 85.63131040493657
155.0 85.61680835270342
160.0 85.6892482264054
165.0 85.77558372379225
170.0 85.80384244566645
175.0 85.87558372379223
180.0 85.90384244566646
185.0 85.90384244566646
190.0 85.76279236610968
195.0 85.66279236610967
200.0 85.56279236610968
206.0 85.56279236610968
212.0 85.56279236610968
218.0 85.55025567134652
224.0 85.65025567134651
230.0 85.680704856412
236.0 85.75025567134654
240.0 85.80773520867216
250.0 85.77747560954427
258.0 85.73646773556604
265.0 85.65124009967366
272.0 85.57747560954428
280.0 85.45124009967365
290.0 85.30771922883955
300.0 85.1515533714097
307.0 84.99442300482818
315.0 84.81004052925809
325.0 84.6819774163967
335.0 84.63942451337833
345.0 84.61417225238262
355.0 84.62936577517983
365.0 84.75962623171041
375.0 84.8611545791054
387.0 85.00820499926695
400.0 85.06607505945871
412.0 85.1660750594587
425.0 85.19819437323055
437.0 85.0586667195329
450.0 85.01618758404197
462.0 84.84458444338941
475.0 84.67441312298465
487.0 84.42798065900345
500.0 84.3723272766113
515.0 84.38664542216667
530.0 84.47020197089705
545.0 84.58239763576596
560.0 84.66631342321827
580.0 84.67824252298792
600.0 84.60463258056753
615.0 84.43123438172368
630.0 84.34535994246662
650.0 84.40113863871896
670.0 84.5298691398453
690.0 84.72029455903193
710.0 84.83445568871379
730.0 84.86607505945872
750.0 84.62798065900347
775.0 84.22030656815151
800.0 84.05030188647407
825.0 84.1131569175332
850.0 84.24893614605523
875.0 84.2599110352413
900.0 83.99914219028909
925.0 83.93941702730459
950.0 84.02624593711796
975.0 84.12186624074113
1000.0 84.07301828594795
1030.0 83.59225171501427
1060.0 83.16788283320788
1090.0 83.51753395568423
1120.0 84.05113434882712
1150.0 84.32842323233757
1180.0 84.23220917679073
1220.0 84.00408494520494
1250.0 83.87041276791399
1280.0 83.59627746630555
1320.0 83.3165528748349
1360.0 83.24411008464915
1400.0 83.20064211892159
1450.0 83.10828732288921
1500.0 83.05581478245992
1550.0 83.0314964783554
1600.0 82.8314964783554
1650.0 82.6262457385982
1700.0 82.56100395332868
1750.0 82.44787011288767
1800.0 82.35616162904995
1850.0 82.16988728088685
1900.0 81.9097271658103
1950.0 81.76344351929681
2000.0 81.66344351929679
2060.0 81.727452664388
2120.0 81.80457073909825
2180.0 82.03196082381201
2240.0 82.0830887717787
2300.0 81.92510601611443
2360.0 81.94601509606555
2400.0 82.44664954060016
2500.0 83.23351832631839
2580.0 83.624635570899
2650.0 83.37303231202242
2720.0 82.81288252386918
2800.0 82.15657749489846
2900.0 81.76671468561756
3000.0 81.6471865753616
3070.0 81.9314149233448
3150.0 82.47210196184933
3250.0 82.76294026618605
3350.0 82.68802554748865
3450.0 82.8793129227092
3550.0 83.96982606209006
3650.0 84.92605824792894
3750.0 85.2485807047341
3870.0 84.89254674600599
4000.0 84.15765993491034
4120.0 83.51653688043238
4250.0 83.64363853727389
4370.0 84.13102799855895
4500.0 84.50554946885366
4620.0 84.4989223702166
4750.0 84.19183375829576
4870.0 83.86771537831848
5000.0 83.64984795944385
5150.0 83.41525909475487
5300.0 83.34216033941335
5450.0 83.57436817694969
5600.0 84.06530578961844
5800.0 84.41617410435705
6000.0 84.36890199813361
6150.0 84.24671106603702
6300.0 84.18637159223162
6500.0 84.08637159223161
6700.0 84.27717945594924
6900.0 84.6118083960994
7100.0 84.54696040240162
7300.0 84.23048181568066
7500.0 84.27149171539699
7750.0 84.64031530690005
8000.0 85.06216894844545
8250.0 85.22883169814364
8500.0 84.96677274708497
8750.0 84.67375549412193
9000.0 84.64157232481492
9250.0 84.56563501323141
9500.0 84.14534878055028
9750.0 83.95543951469018
10000.0 84.73763206368854
10300.0 85.33193532997981
10600.0 85.27149633338772
10900.0 84.58050057481262
11200.0 83.7763503150484
11500.0 83.15893490865744
11800.0 83.07229494485398
12200.0 83.12971416146067
12500.0 82.86273137414085
12800.0 82.55403350902748
13200.0 82.136686146856
13600.0 80.9671908852219
14000.0 80.40305653885852
14500.0 80.76427825021369
15000.0 79.49238806428181
15500.0 78.39877575255309
16000.0 77.6864168938152
16500.0 77.66891418796722
17000.0 79.7141140279582
17500.0 77.95638083482989
18000.0 77.51514840090361
18500.0 74.70686226976672
19000.0 73.44447845178459
19500.0 71.86870946878506
