Freq "Total Early Reflection"
22.4 16.056711170410352
23.0 16.81129557150905
23.6 17.94958428386761
24.0 20.83880427742949
25.0 22.90888838583939
25.8 24.854618602064107
26.5 26.545806787114316
27.2 27.886684470032776
28.0 28.988027216952844
29.0 30.003500801450258
30.0 31.45479065330295
30.7 33.79197523576971
31.5 35.806366167662816
32.5 37.415544832537506
33.5 38.78479864229237
34.5 39.96733449941422
35.5 41.28136688126173
36.5 43.67469816389871
37.5 45.68823923299169
38.7 47.26763184161723
40.0 48.62081112774072
41.2 49.946058707764536
42.5 51.921551316581684
43.7 53.83467089803406
45.0 55.415822903903006
46.2 56.80456212562049
47.5 58.2146880046073
48.7 60.20388591485886
50.0 61.94717655636883
51.5 63.47950174329621
53.0 64.89008713978473
54.5 66.48613629291106
56.0 68.08355501144551
58.0 69.63552410981733
60.0 71.05040623917694
61.5 72.41518231808219
63.0 73.67761310655762
65.0 74.80815311032909
67.0 75.90259101253571
69.0 76.9611875729977
71.0 77.95838195924867
73.0 78.69788108172739
75.0 79.37089759043626
77.5 79.94078230729843
80.0 80.35714074955959
82.5 80.82117215043174
85.0 81.3319041058792
87.5 81.71922206369065
90.0 81.97903646898709
92.5 82.20172858365396
95.0 82.33606886451003
97.5 82.60222005054938
100.0 82.92551630405441
103.0 83.16819903375017
106.0 83.35485321227094
109.0 83.65216646994449
112.0 83.92587551175436
115.0 84.08310000257444
118.0 84.19521676697731
122.0 84.32819875702211
125.0 84.39669440730708
128.0 84.33291726951049
132.0 84.36624397487618
136.0 84.37441687325074
140.0 84.33011375719539
145.0 84.29450436489321
150.0 84.28342566814385
155.0 84.26883291133615
160.0 84.34374575391264
165.0 84.42632022150211
170.0 84.46008123959814
175.0 84.50309451104346
180.0 84.52206463332477
185.0 84.49835899418704
190.0 84.33209343923059
195.0 84.1885046903955
200.0 84.07109492725226
206.0 84.01835741008185
212.0 84.00111848102672
218.0 83.96173056307092
224.0 84.01583580250747
230.0 84.03379966254481
236.0 84.0913259764444
240.0 84.11751091561499
250.0 84.07559653320897
258.0 84.02212579874643
265.0 83.91264524859443
272.0 83.81494961306383
280.0 83.65884059337978
290.0 83.4938007309852
300.0 83.31165843631234
307.0 83.1254564198235
315.0 82.90163574931934
325.0 82.74825290675832
335.0 82.63480375984224
345.0 82.55608048142089
355.0 82.54987398250078
365.0 82.61893745525056
375.0 82.68386837024997
387.0 82.76559152392493
400.0 82.7722597277112
412.0 82.80138645805464
425.0 82.76187633414935
437.0 82.5604659426399
450.0 82.4493762689811
462.0 82.20418592654059
475.0 82.00358721848792
487.0 81.69001210793473
500.0 81.55781818427462
515.0 81.5458076959507
530.0 81.5881605952465
545.0 81.65276065313553
560.0 81.68334361962468
580.0 81.67062802973763
600.0 81.54231220712833
615.0 81.34813489170368
630.0 81.2368024928025
650.0 81.24342344047575
670.0 81.30796651220304
690.0 81.40788750314351
710.0 81.46065215551826
730.0 81.3898426257594
750.0 81.0440634781024
775.0 80.52282382206235
800.0 80.2587444714543
825.0 80.24441935558485
850.0 80.27789549105033
875.0 80.19842358113587
900.0 79.88119606686264
925.0 79.74921994154366
950.0 79.81894199887523
975.0 79.8591766017788
1000.0 79.79810827883388
1030.0 79.28265812167149
1060.0 78.83510053657514
1090.0 79.16764435395932
1120.0 79.68631688793016
1150.0 79.94466620135196
1180.0 79.82708620000875
1220.0 79.57102124663734
1250.0 79.37715344296578
1280.0 79.07258624186933
1320.0 78.7594498556376
1360.0 78.67199449614981
1400.0 78.60776490130527
1450.0 78.52593791508737
1500.0 78.49370781930672
1550.0 78.50565859017411
1600.0 78.3900097686519
1650.0 78.23229525777768
1700.0 78.27331812222491
1750.0 78.29682498074153
1800.0 78.32680892160391
1850.0 78.29109539131642
1900.0 78.15325972045049
1950.0 78.13004256515853
2000.0 78.15365626374911
2060.0 78.27556159881784
2120.0 78.37841087554719
2180.0 78.59923680031886
2240.0 78.6524650252672
2300.0 78.46164881464694
2360.0 78.4131566733326
2400.0 78.85037371246791
2500.0 79.55260309683024
2580.0 79.89813976389266
2650.0 79.62734752327688
2720.0 79.0546647954788
2800.0 78.39431878773794
2900.0 77.99521416625987
3000.0 77.83914554755557
3070.0 78.03374428618093
3150.0 78.45897487351091
3250.0 78.58228461478052
3350.0 78.2681713207289
3450.0 78.20529582265947
3550.0 79.10675175404074
3650.0 79.90059177770452
3750.0 80.07829191336924
3870.0 79.63255832381088
4000.0 78.78740200746796
4120.0 78.10159706938211
4250.0 78.19923625397776
4370.0 78.6876168317871
4500.0 79.05542019664314
4620.0 79.0752484234447
4750.0 78.77669989536699
4870.0 78.47232106928632
5000.0 78.25914485271677
5150.0 78.01985365915341
5300.0 77.93614732335658
5450.0 78.13644081951718
5600.0 78.5943785521899
5800.0 78.91749326559004
6000.0 78.8600898786629
6150.0 78.71120292885072
6300.0 78.64491189133614
6500.0 78.53825982316263
6700.0 78.71657224915805
6900.0 79.03984651308281
7100.0 78.96111098938715
7300.0 78.64608900127027
7500.0 78.68402996046451
7750.0 79.04658537625293
8000.0 79.47403527690595
8250.0 79.63673956004511
8500.0 79.37098936450055
8750.0 79.07805026675604
9000.0 79.04899714948178
9250.0 78.98445558662613
9500.0 78.59045578130686
9750.0 78.43198086028727
10000.0 79.24579305423029
10300.0 79.87833313179449
10600.0 79.85821097367537
10900.0 79.1887439907351
11200.0 78.43127440539664
11500.0 77.86516429326898
11800.0 77.8235866999654
12200.0 77.9664190803519
12500.0 77.79194140410131
12800.0 77.60471377161721
13200.0 77.32797383194728
13600.0 76.37209089142014
14000.0 75.99388556962603
14500.0 76.57042543007107
15000.0 75.53295717558211
15500.0 74.70477144022934
16000.0 74.17450013410074
16500.0 74.15408337155667
17000.0 75.99548056525005
17500.0 73.96150364986586
18000.0 73.21221968961594
18500.0 70.18758033693472
19000.0 68.76680467944945
19500.0 67.0371016772901
