Freq,Floor Bounce,Ceiling Bounce,Front Wall Bounce,Side Wall Bounce,Rear Wall Bounce,Total Early Reflection
20.5078125,71.22720768677928,68.26636020199848,64.25615440681024,64.24018371371152,64.13849122229932,67.46425109124341
23.4375,72.37282994019716,69.41198245541638,66.09150444343135,66.07553375033258,65.97384125892042,68.8169558746192
26.3671875,73.38309147584177,70.42224399106098,68.09702049567743,68.0810498025787,67.97935731116652,70.16815223685005
29.296875,74.28549626099796,71.32464877621719,70.02799736335314,70.0120266702544,69.91033417884223,71.47862232167185
32.2265625,75.09972813355658,72.13888064877578,71.76361595466174,71.747645261563,71.64595277015081,72.70879171847015
35.15625,75.84031346070496,72.87946597592418,73.28195701911493,73.2659863260162,73.16429383460402,73.8383571948312
38.0859375,76.51825382935736,73.55740634457656,74.59661613776724,74.5806454446685,74.47895295325631,74.86059349914969
41.015625,77.14207127320498,74.18122378842419,75.72698723151724,75.7110165384185,75.60932404700631,75.77476696415967
43.9453125,77.71846440064637,74.7576169158656,76.69300590827504,76.6770352151763,76.57534272376411,76.58424699403476
46.875,78.25281956422067,75.29197207943987,77.51487480475944,77.49890411166069,77.39721162024851,77.29594758766343
49.8046875,78.74947788941597,75.78863040463517,78.21165977790395,78.1956890848052,78.09399659339302,77.91868732036123
52.734375,79.21202519166208,76.25117770688128,78.80045830085314,78.7844876077544,78.68279511634222,78.46187460373278
55.6640625,79.69792801923337,76.64385112390691,79.26878622507805,79.23878149360945,79.08941122514156,78.90940993611727
58.59375,80.11745411620906,77.00903985803227,79.67075602984934,79.63177648821865,79.44300967825845,79.2992718990097
61.5234375,80.4850170675109,77.34891669990162,80.01989275692462,79.9752132393445,79.75348405924022,79.64258448878222
64.453125,80.81099196342255,77.66536272165135,80.32598099681438,80.27658676948799,80.02659212586005,79.94697682697795
67.3828125,81.10240464803121,77.96001025799106,80.59586716259652,80.54056147127925,80.26508096177642,80.21741859413548
70.3125,81.3636959267926,78.23430371190635,80.83426297456427,80.7703347464098,80.46977479909722,80.457085820042
73.2421875,81.59752542826021,78.48952740824167,81.04453421401284,80.96861895216743,80.64042559445208,80.66811084871257
76.171875,81.80561359547008,78.7268131955031,81.22947144677724,81.13834778693986,80.7769517481058,80.85235543380686
79.1015625,81.98918190492668,78.94719626436274,81.3916311834155,81.28272617592013,80.88055743217568,81.01182358367616
82.03125,82.14913882486935,79.1515924025043,81.53323417258314,81.4047668784601,80.95409432445804,81.14863463747538
84.9609375,82.28638478029802,79.34085626970736,81.65604023202215,81.5069052729984,81.0018437219754,81.26493005166519
87.890625,82.40229693122201,79.51576333137729,81.7615034073774,81.59098559525171,81.0291061484174,81.3629237883536
90.8203125,82.49910500103519,79.67703347814,81.85082920503343,81.65837655736075,81.04134133453634,81.444865023833
93.75,82.58000124762073,79.82534041238239,81.92519385397836,81.71027400136616,81.04307197142111,81.51298375694546
96.6796875,82.64898954205547,79.96130961418423,81.98613932430122,81.74809122460553,81.03723273062123,81.56952397903751
99.609375,82.71012059493899,80.08554591952414,82.03571069824774,81.77362948820596,81.02512074554227,81.61663261006176
102.5390625,82.76377024960857,80.19301891868821,82.07270437821178,81.78520187056851,81.00443130332793,81.6526510600073
105.46875,82.81526045423031,80.29590603193776,82.10548493262499,81.79088595254024,80.9778802592888,81.68465382749913
108.3984375,82.86090931046324,80.388681219651,82.13070252304883,81.78728352203304,80.94241993395846,81.70894707385315
111.328125,82.89918239161258,80.4718674037514,82.14848458194034,81.77484150094452,80.89739135644813,81.7252221412147
114.2578125,82.92902781618145,80.54597481637676,82.15894606434422,81.75442579406429,80.843093411669,81.73353397444369
117.1875,82.95071691198005,80.61149832337905,82.1625397888704,81.72753033190206,80.78077709560576,81.73462995134786
120.1171875,82.96589193585443,80.66893468083275,82.16016246765857,81.6960903417352,80.71229333284805,81.72988934817752
123.046875,82.97702005739177,80.71877379785009,82.15308457512707,81.66206488351729,80.6396608094234,81.72101050051303
125.9765625,82.98645442895672,80.76149690710074,82.14280631358896,81.62704258726218,80.56462401070429,81.70958580508965
128.90625,82.99560766534535,80.7975903815167,82.1309375999197,81.5919968614707,80.48837252658645,81.69677051206297
131.8359375,83.00461069513864,80.8275274737765,82.11902617276156,81.55729160391975,80.41136621458088,81.68312895726508
134.765625,83.0125830158409,80.85178383060418,82.10835904731688,81.5228328678133,80.33332472568217,81.66869719436241
137.6953125,83.01841983391834,80.87083818650557,82.0998215619396,81.48834833025853,80.2533261048867,81.6532387549106
140.625,83.02162440225523,80.88515453097686,82.0937647214202,81.45362503789788,80.17009099378951,81.63653380396326
143.5546875,83.02282667110684,80.89519882320384,82.0899317212279,81.41865113471557,80.0823573831155,81.61859570576269
146.484375,83.02364369498339,80.90141715406978,82.08757234845233,81.38364970027412,79.98938060406552,81.59973357984663
149.4140625,83.02616041830443,80.90426908873526,82.08566321626493,81.34912620638013,79.89144027885501,81.58053718615302
152.34375,83.03219976095662,80.90418361497176,82.08330709535743,81.31586118389602,79.79017956394264,81.56178759587029
155.2734375,83.04273171349686,80.90158393417774,82.08009027607493,81.28489484339669,79.68854413079329,81.54434683238942
158.203125,83.05772243144952,80.89687782576372,82.0762652077663,81.25739403841773,79.59021260495092,81.52903602170672
161.1328125,83.07635053874118,80.89045380399057,82.07275854206408,81.2344106368211,79.4987057414156,81.51652647236513
164.0625,83.09748831320253,80.88268633601784,82.07091981773452,81.21662921682619,79.41650638798113,81.50726509667551
166.9921875,83.12017331533673,80.87392036695903,82.07216660335051,81.20418770255833,79.34455429225493,81.50144605985763
169.921875,83.14388562837914,80.86448342937071,82.07772504502798,81.19671714651896,79.28227964107451,81.4990660579014
172.8515625,83.16851383945894,80.85467208751984,82.08838293555412,81.19352842561796,79.22813986452296,81.49997113961184
175.78125,83.19411288846051,80.84476532715557,82.10443026804859,81.19386903499056,79.18032353214373,81.50391241694278
178.7109375,83.22056313252013,80.83500029598831,82.12557647980299,81.1970928724152,79.13730037115818,81.51051637980397
181.640625,83.24731631120098,80.82559862208134,82.15091870321453,81.20263894265871,79.0979654110861,81.51921178113083
184.5703125,83.27335764381677,80.81675151079016,82.17890021513428,81.20985514173805,79.0613414734525,81.52913015919911
187.5,83.29731946621685,80.8086291321187,82.20735037286092,81.21774377849809,79.02608135587832,81.5390404499813
190.4296875,83.31776725292292,80.80136252180475,82.23368353908536,81.22479998346714,78.99011455488692,81.54740682000612
193.359375,83.33340219565123,80.79506434544307,82.25523844151193,81.229039440802,78.95064331933497,81.5525407769942
196.2890625,83.3431826069009,80.78983652310744,82.26973462657847,81.22824084967603,78.90451127581548,81.5528386553464
199.21875,83.34635318411065,80.78574369191072,82.27567449774824,81.22034666918898,78.84880377439974,81.54702846329191
202.1484375,83.342427940238,80.78284365037312,82.272652672734,81.20398285207648,78.78147271107545,81.53441270547782
205.078125,83.33125844811549,80.78117304412906,82.26141601942544,81.17890722938056,78.7018130508877,81.51503568164553
208.0078125,83.31318045775954,80.78076562044909,82.2437122976747,81.14628867724116,78.61071495373103,81.48976722505658
210.9375,83.2892361030332,80.7816276895886,82.22198057935803,81.10872807663974,78.5106302118203,81.4602804557389
213.8671875,83.2612926282617,80.78377843491731,82.1989598982257,81.06991840112941,78.40522942033654,81.42888879480513
216.796875,83.23194570277026,80.78721665735567,82.17735486922473,81.03405523083812,78.29882612848543,81.39825223145972
219.7265625,83.20418013842685,80.79194314351217,82.1595528106642,81.00511338389899,78.19562863347515,81.37099784942482
222.65625,83.18081173638195,80.79795476794705,82.14742156112125,80.98619190979674,78.09906314870389,81.34931774444318
225.5859375,83.1638769540704,80.80524986129286,82.14218531902851,80.97911780970581,78.0113596661333,81.33465181363273
228.515625,83.1542040111511,80.813827168766,82.14427042117542,80.98436715789977,77.93351506005725,81.32751307171706
231.4453125,83.15126887375655,80.82368610409702,82.15323338970846,81.00127106093643,77.86565158809084,81.32750476379807
234.375,83.15343170042856,80.83481565605916,82.16779905145775,81.02836079726558,77.80759084223939,81.333516479396
237.3046875,83.15841092786407,80.84722214821738,82.18603553731019,81.06369916162963,77.7593893274237,81.34402129547776
240.234375,83.1638792440629,80.86089601174639,82.20572363821312,81.10509430308448,77.7215996826842,81.3573986258666
243.1640625,83.16792617366629,80.87583595185711,82.22474404335051,81.15020481575911,77.69514788432924,81.3721793656453
246.09375,83.16936351890922,80.89203334653443,82.24141302720786,81.1965674321678,77.68088576202449,81.38718434807757
249.0234375,83.16779266785001,80.90947130957669,82.25462978863538,81.24164871502647,77.67903590749866,81.4015444509633
251.953125,83.16351990673557,80.92814119273882,82.26380501762507,81.28293701906365,77.68876712771623,81.41464275655458
254.8828125,83.15741206424555,80.94800551239443,82.26869173078107,81.31814883692714,77.70814650974542,81.42605778251034
257.8125,83.1507682074585,80.96903643499283,82.26924068426409,81.3454979024886,77.73453128413884,81.43558042971357
260.7421875,83.14524820758287,80.99118678988968,82.26554655480966,81.3639093992542,77.76528264991354,81.44327681604452
263.671875,83.14279572614684,81.01439879371533,82.25793544847782,81.37316006278232,77.79856143349296,81.44958649735274
266.6015625,83.14553787008184,81.03860187500237,82.24712224977945,81.3737940001517,77.83384530101125,81.45536369349036
269.53125,83.15559818619468,81.06372094784693,82.23433155194803,81.36692701018147,77.87195369196851,81.46182212808307
272.4609375,83.1748612721229,81.0896553858732,82.22131763206416,81.35398197339009,77.91442772198772,81.47036426168677
275.390625,83.20472874863442,81.11630456062134,82.21029475158436,81.33649569659221,77.96253301143695,81.48237107455596
278.3203125,83.24604016245836,81.14354728828768,82.20376808203731,81.31621699650488,78.01623750993235,81.49905590191499
281.25,83.29899354500407,81.17124777666115,82.20433703069561,81.29532479944804,78.07359459414513,81.52136735846915
284.1796875,83.36312229490692,81.19927122368993,82.21435808287997,81.27660160530469,78.13082597312741,81.54992678016362
287.109375,83.43731413121453,81.22745865653675,82.23555518084571,81.26330947933761,78.1831994963765,81.58497828824109
290.0390625,83.52013616785634,81.25565955885244,82.26883524142669,81.25886045699194,78.22628026518866,81.62650103394057
292.96875,83.61006037972335,81.28370748297702,82.31416568893073,81.26624312323422,78.25693001312676,81.67424496493335
295.8984375,83.7049481755309,81.31143155259963,82.37028745952075,81.28722373514013,78.27361957178027,81.72740707870535
298.828125,83.80111904080103,81.33866237950248,82.43419179595465,81.32144641489332,78.27646900270466,81.78406152715618
301.7578125,83.89346937349576,81.36523455011455,82.50134649612212,81.36620026631131,78.26739049013226,81.84119833246137
304.6875,84.01199269913617,81.40303283689363,82.59657327444013,81.44467821639914,78.23884187179289,81.91994737293953
307.6171875,84.04376121750691,81.4146498229212,82.62435748676792,81.47204703092335,78.227736842708,81.9427621294384
310.546875,84.1093454038959,81.43816646384194,82.68107098588666,81.5272821936194,78.20564918210123,81.98958392791185
313.4765625,84.16696295960283,81.4603932377158,82.73296489659522,81.58292888769529,78.1825038749273,82.03257632731327
316.40625,84.21790156132958,81.48118698733549,82.78005359226738,81.63769802179559,78.15881628439976,82.0719217351239
319.3359375,84.2631331820126,81.50042226108097,82.82233802477027,81.69011285080119,78.13439910572798,82.10761334109527
322.265625,84.30304970205952,81.51798457878506,82.85952404969207,81.738263722994,78.10882414491415,82.13929087343674
325.1953125,84.33767447225159,81.53376671437128,82.8911801333921,81.77998872647207,78.08171700581558,82.166398985582
328.125,84.3669263065801,81.54768384177761,82.91701272751047,81.81331080272386,78.05266880376223,82.1884137573179
331.0546875,84.3907329665243,81.55965497374902,82.93702820389234,81.83687227074346,78.0210855484636,82.20498606773157
333.984375,84.40915742280032,81.56962678322621,82.95165136456903,81.85022011075752,77.98624975908814,82.21607692638509
336.9140625,84.42262883171138,81.57754734322305,82.96186535315067,81.85404470088443,77.94757197559458,82.22212840319239
339.84375,84.43217014084803,81.5833901047305,82.96931965151212,81.85019834002283,77.90488960609771,82.22419490300074
342.7734375,84.43943308574994,81.58713173347071,82.97623914339346,81.84150853923022,77.85871295993364,82.22391132290163
345.703125,84.44650332573366,81.58877616533431,82.98516427989532,81.83135784028195,77.81033363237066,82.22329868740337
348.6328125,84.45563055555932,81.58833039887976,82.99859162401931,81.823134157918,77.76174360686635,82.22447613445175
351.5625,84.46890927001186,81.58581929357892,83.01861282958617,81.81977160211129,77.7152992531355,82.22936285753089
354.4921875,84.4878883018737,81.5812695030204,83.04656377737963,81.82333628543832,77.67318399841093,82.23934852884038
357.421875,84.5133474470803,81.57473584527827,83.08281646828765,81.83487281489842,77.63690747955404,82.25511078029787
360.3515625,84.54515197177601,81.56626053742522,83.1266961625834,81.85441619449995,77.60693958331335,82.27651450158177
363.28125,84.58232638639002,81.55591151267762,83.17661080221134,81.88121434179625,77.58265205654772,82.30270614550967
366.2109375,84.62328019400378,81.54375157282983,83.23029369491172,81.91400359557113,77.56261351497112,82.33230684338706
369.140625,84.66609990562597,81.52985666998855,83.28516765143539,81.95132140113013,77.54513019417725,82.3636896920864
372.0703125,84.70889692839597,81.51430112893763,83.33872528403977,81.99172709807964,77.52889272544262,82.39526754378089
375.0,84.75006712447676,81.4971637538026,83.38883108545241,82.03391964044756,77.51342639828201,82.4257070837723
377.9296875,84.78840182816815,81.47852037539607,83.43391341357069,82.07670367662246,77.49923812729229,82.45401851291409
380.859375,84.8231101256851,81.45845743760388,83.47300284204572,82.11890764001035,77.48758563369522,82.47954865938075
383.7890625,84.8537443477902,81.43704651916711,83.50567458870582,82.1592918530218,77.47993669390894,82.50188987350201
386.71875,84.88007933661598,81.41436695255378,83.53189310287087,82.19650370466506,77.47735469714513,82.52076016978455
389.6484375,84.90204542322296,81.39049089188872,83.55187156374036,82.2291602895593,77.48002076192851,82.53593109685785
392.578125,84.91972350182438,81.36548101055979,83.56598835561876,82.25599869319788,77.4870730988636,82.54722499981398
395.5078125,84.93335436413452,81.33940260004883,83.57476686956822,82.27612436907889,77.49681954120489,82.55457609203314
398.4375,84.9433942466588,81.31231994703639,83.57890636657838,82.28921196882463,77.50720893732661,82.55812478782849
401.3671875,84.95053024827664,81.28427539732542,83.57929124566608,82.29561982388864,77.5164035419413,82.55828025660325
404.296875,84.95563605304757,81.25532705176562,83.57699262836725,82.29634103624306,77.5232182439891,82.55573018730949
407.2265625,84.95970417524356,81.2255055693311,83.57314291271216,82.2928190003924,77.52732517139681,82.55135770115763
410.15625,84.9637127882716,81.19485045043625,83.56881609070788,82.28663460262517,77.5291409863977,82.54610427872427
413.0859375,84.96852215184258,81.16339238476712,83.56482044801514,82.2792056637172,77.5295437024224,82.54080374148892
416.015625,84.97476205606604,81.13115420130508,83.5615643874264,82.27150190955048,77.52948791068818,82.5360304607763
418.9453125,84.98275875831656,81.09816568670335,83.55901214065118,82.26394211918844,77.52969723686938,82.5320248934637
421.875,84.99249265431966,81.06443699658045,83.5566966792115,82.25642040814273,77.53049413434543,82.5286710176316
424.8046875,85.00362813939125,81.02998770287002,83.55387809273493,82.24849427559018,77.53178800375524,82.52558427126907
427.734375,85.01555401088082,80.99483192322036,83.54974306197491,82.23964532164138,77.53322757291137,82.52223131620771
430.6640625,85.02748059273942,80.95898056161694,83.5436395146526,82.22955568753171,77.5343760869521,82.51808568419699
433.59375,85.03855681627877,80.92244824807374,83.53525855157649,82.21828879662858,77.53489040470195,82.51276029644585
436.5234375,85.04795055584903,80.88525407323623,83.52474121708515,82.20633302735355,77.53457461186406,82.50607370640158
439.453125,85.05490456640679,80.84740722836806,83.51266763051241,82.19451028752177,77.53333776112058,82.49804506337689
442.3828125,85.0587357385336,80.80892674197523,83.49992414221931,82.18374544469066,77.53104409857178,82.48881088815486
445.3125,85.05882716113412,80.76983730604444,83.487479992219,82.17476765704605,77.5273469904814,82.47850062617802
448.2421875,85.05459467266591,80.73016068212279,83.47618027314537,82.16787916248074,77.52156502077051,82.46712273033614
451.171875,85.04548734529385,80.68992604291729,83.46655131425521,82.16279545787022,77.51268098455719,82.45448981944575
454.1015625,85.03105025076057,80.64916712515546,83.45869449738736,82.15863559749423,77.49946398709939,82.44022180256216
457.03125,85.01100071796708,80.60792168266578,83.45230128991561,82.15404705173806,77.48065236273618,82.42381216920911
459.9609375,84.98534707023472,80.56623638536612,83.44672264124533,82.14738092112361,77.45517111973741,82.40473405265244
462.890625,84.95441927530867,80.52415079103488,83.44109018999175,82.13691059993266,77.42226737757464,82.38252641914491
465.8203125,84.91890393416142,80.48172731722212,83.4344045033677,82.12098211816127,77.38155153876939,82.35686047181653
468.75,84.87974980535425,80.43901420823029,83.42559727502369,82.09811630462092,77.3329336019109,82.32752893563817
471.6796875,84.83808272416042,80.39608405735767,83.41355504033965,82.06703726697326,77.27653104341505,82.29442499182794
474.609375,84.79505254990109,80.35298959371337,83.397122533816,82.02671642094965,77.21257944561232,82.25748630597833
477.5390625,84.75174148397515,80.30980740756856,83.37514097369892,81.97639046886972,77.14146552306318,82.21668665118587
480.46875,84.70905407939625,80.26660956609173,83.34646659645729,81.91563098521812,77.06379074832518,82.17201946131921
483.3984375,84.66772654753049,80.22347727722679,83.31010101415514,81.84445692130033,76.98057345077098,82.12357515854472
486.328125,84.62830724801307,80.18047323204648,83.26530159228979,81.76345701820135,76.89335002927231,82.07159112059003
489.2578125,84.59113605152439,80.13768854215915,83.21173277221861,81.673854687024,76.8042471703229,82.01650539522264
492.1875,84.55631630952273,80.09520117649097,83.14952553750018,81.57756647289652,76.71587990572932,81.95895576143785
495.1171875,84.52373523972888,80.05309615293939,83.07937258306511,81.47716611677207,76.63117821133218,81.89978758641915
498.046875,84.4931163075316,80.01144531805032,83.00259275691407,81.37582023051421,76.55318005030274,81.84005048884316
500.9765625,84.46414119685693,79.97034411526428,82.92117786331859,81.27710433401793,76.48479499062817,81.78100059018553
503.90625,84.42365044333692,79.91043300071793,82.79799848469969,81.1476474232827,76.41253208799468,81.69890474611894
506.8359375,84.39737620676773,79.87108472056342,82.71916064370865,81.07186971782326,76.37775931955426,81.64820011669471
509.765625,84.37180145938726,79.83257358406614,82.64638983160722,81.0090595303417,76.35755031110776,81.60267547515298
