Freq "Rear Wall Bounce"
20.5078125 64.13849122229932
23.4375 65.97384125892042
26.3671875 67.97935731116652
29.296875 69.91033417884223
32.2265625 71.64595277015081
35.15625 73.16429383460402
38.0859375 74.47895295325631
41.015625 75.60932404700631
43.9453125 76.57534272376411
46.875 77.39721162024851
49.8046875 78.09399659339302
52.734375 78.68279511634222
55.6640625 79.08941122514156
58.59375 79.44300967825845
61.5234375 79.75348405924022
64.453125 80.02659212586005
67.3828125 80.26508096177642
70.3125 80.46977479909722
73.2421875 80.64042559445208
76.171875 80.7769517481058
79.1015625 80.88055743217568
82.03125 80.95409432445804
84.9609375 81.0018437219754
87.890625 81.0291061484174
90.8203125 81.04134133453634
93.75 81.04307197142111
96.6796875 81.03723273062123
99.609375 81.02512074554227
102.5390625 81.00443130332793
105.46875 80.9778802592888
108.3984375 80.94241993395846
111.328125 80.89739135644813
114.2578125 80.843093411669
117.1875 80.78077709560576
120.1171875 80.71229333284805
123.046875 80.6396608094234
125.9765625 80.56462401070429
128.90625 80.48837252658645
131.8359375 80.41136621458088
134.765625 80.33332472568217
137.6953125 80.2533261048867
140.625 80.17009099378951
143.5546875 80.0823573831155
146.484375 79.98938060406552
149.4140625 79.89144027885501
152.34375 79.79017956394264
155.2734375 79.68854413079329
158.203125 79.59021260495092
161.1328125 79.4987057414156
164.0625 79.41650638798113
166.9921875 79.34455429225493
169.921875 79.28227964107451
172.8515625 79.22813986452296
175.78125 79.18032353214373
178.7109375 79.13730037115818
181.640625 79.0979654110861
184.5703125 79.0613414734525
187.5 79.02608135587832
190.4296875 78.99011455488692
193.359375 78.95064331933497
196.2890625 78.90451127581548
199.21875 78.84880377439974
202.1484375 78.78147271107545
205.078125 78.7018130508877
208.0078125 78.61071495373103
210.9375 78.5106302118203
213.8671875 78.40522942033654
216.796875 78.29882612848543
219.7265625 78.19562863347515
222.65625 78.09906314870389
225.5859375 78.0113596661333
228.515625 77.93351506005725
231.4453125 77.86565158809084
234.375 77.80759084223939
237.3046875 77.7593893274237
240.234375 77.7215996826842
243.1640625 77.69514788432924
246.09375 77.68088576202449
249.0234375 77.67903590749866
251.953125 77.68876712771623
254.8828125 77.70814650974542
257.8125 77.73453128413884
260.7421875 77.76528264991354
263.671875 77.79856143349296
266.6015625 77.83384530101125
269.53125 77.87195369196851
272.4609375 77.91442772198772
275.390625 77.96253301143695
278.3203125 78.01623750993235
281.25 78.07359459414513
284.1796875 78.13082597312741
287.109375 78.1831994963765
290.0390625 78.22628026518866
292.96875 78.25693001312676
295.8984375 78.27361957178027
298.828125 78.27646900270466
301.7578125 78.26739049013226
304.6875 78.23884187179289
307.6171875 78.227736842708
310.546875 78.20564918210123
313.4765625 78.1825038749273
316.40625 78.15881628439976
319.3359375 78.13439910572798
322.265625 78.10882414491415
325.1953125 78.08171700581558
328.125 78.05266880376223
331.0546875 78.0210855484636
333.984375 77.98624975908814
336.9140625 77.94757197559458
339.84375 77.90488960609771
342.7734375 77.85871295993364
345.703125 77.81033363237066
348.6328125 77.76174360686635
351.5625 77.7152992531355
354.4921875 77.67318399841093
357.421875 77.63690747955404
360.3515625 77.60693958331335
363.28125 77.58265205654772
366.2109375 77.56261351497112
369.140625 77.54513019417725
372.0703125 77.52889272544262
375.0 77.51342639828201
377.9296875 77.49923812729229
380.859375 77.48758563369522
383.7890625 77.47993669390894
386.71875 77.47735469714513
389.6484375 77.48002076192851
392.578125 77.4870730988636
395.5078125 77.49681954120489
398.4375 77.50720893732661
401.3671875 77.5164035419413
404.296875 77.5232182439891
407.2265625 77.52732517139681
410.15625 77.5291409863977
413.0859375 77.5295437024224
416.015625 77.52948791068818
418.9453125 77.52969723686938
421.875 77.53049413434543
424.8046875 77.53178800375524
427.734375 77.53322757291137
430.6640625 77.5343760869521
433.59375 77.53489040470195
436.5234375 77.53457461186406
439.453125 77.53333776112058
442.3828125 77.53104409857178
445.3125 77.5273469904814
448.2421875 77.52156502077051
451.171875 77.51268098455719
454.1015625 77.49946398709939
457.03125 77.48065236273618
459.9609375 77.45517111973741
462.890625 77.42226737757464
465.8203125 77.38155153876939
468.75 77.3329336019109
471.6796875 77.27653104341505
474.609375 77.21257944561232
477.5390625 77.14146552306318
480.46875 77.06379074832518
483.3984375 76.98057345077098
486.328125 76.89335002927231
489.2578125 76.8042471703229
492.1875 76.71587990572932
495.1171875 76.63117821133218
498.046875 76.55318005030274
500.9765625 76.48479499062817
503.90625 76.41253208799468
506.8359375 76.37775931955426
509.765625 76.35755031110776
512.6953125 76.36038817052527
515.625 76.36015775904276
518.5546875 76.37193418856971
521.484375 76.39381062819902
524.4140625 76.42357408319889
527.34375 76.45892180153986
530.2734375 76.49762295713249
533.203125 76.53761816097644
536.1328125 76.57712736662072
539.0625 76.6147454367081
541.9921875 76.64948707948577
544.921875 76.68079349330489
547.8515625 76.70850383600354
550.78125 76.7327976191272
553.7109375 76.75414050388956
556.640625 76.77315922306144
559.5703125 76.79056208993283
562.5 76.80700962242477
565.4296875 76.82302381870561
568.359375 76.83890863532702
571.2890625 76.85471515385622
574.21875 76.87023640818849
577.1484375 76.88506895715919
580.078125 76.8987116531953
583.0078125 76.91068927604127
585.9375 76.92068486262492
588.8671875 76.92857966160949
591.796875 76.93447042379958
594.7265625 76.9387163005977
597.65625 76.94203117527879
600.5859375 76.94548145207428
603.515625 76.9504117570529
606.4453125 76.95824695370324
609.375 76.97033845709313
612.3046875 76.98782734775946
615.234375 77.01148782241914
618.1640625 77.04150827582374
621.09375 77.0773388942825
624.0234375 77.11768291284606
626.953125 77.16064187767736
629.8828125 77.20392669792544
632.8125 77.24504827737718
635.7421875 77.28153356930856
638.671875 77.31112122638194
641.6015625 77.3318939946453
644.53125 77.3423964332117
647.4609375 77.3416801675475
650.390625 77.32932527518655
653.3203125 77.30543284560899
656.25 77.27056813012823
659.1796875 77.22568016556977
662.109375 77.17202736452914
665.0390625 77.11108228114404
667.96875 77.04445291749528
670.8984375 76.97376925211039
673.828125 76.90061537562774
676.7578125 76.82646676771607
679.6875 76.75266823845098
682.6171875 76.68041255353508
685.546875 76.61076989133191
688.4765625 76.54469452875837
691.40625 76.48308627565748
694.3359375 76.42681197236101
697.265625 76.37671961083015
700.1953125 76.33363218279675
703.125 76.29831273835545
706.0546875 76.26704520065782
708.984375 76.25348401141703
711.9140625 76.24863744726377
714.84375 76.25206722654558
717.7734375 76.26170816866555
720.703125 76.27471638022435
723.6328125 76.29279433985762
726.5625 76.31414626177568
729.4921875 76.3366956716947
732.421875 76.35817306769694
735.3515625 76.37622210265378
738.28125 76.38853300215938
741.2109375 76.39296731997207
744.140625 76.3877031741381
747.0703125 76.37135127502467
750.0 76.34307151778529
752.9296875 76.30264916715481
755.859375 76.25054129218621
758.7890625 76.18787964100515
761.71875 76.11645411258935
764.6484375 76.03859201862497
767.578125 75.95702888018364
770.5078125 75.87472873032026
773.4375 75.79466703000794
776.3671875 75.71960901057429
779.296875 75.6518924026124
782.2265625 75.59324478849925
785.15625 75.54466467941424
788.0859375 75.50634538076112
791.015625 75.4776672518715
793.9453125 75.45729007862992
796.875 75.44326463781265
799.8046875 75.43323056616553
802.734375 75.42459668815557
805.6640625 75.41475658141275
808.59375 75.40127962884078
811.5234375 75.38208187774408
814.453125 75.35553889655625
817.3828125 75.32055354126811
820.3125 75.27657720512057
823.2421875 75.22359003712886
826.171875 75.16207594128355
829.1015625 75.09295182868883
832.03125 75.01750913412508
834.9609375 74.93730977303721
837.890625 74.85408243335387
840.8203125 74.7696176443182
843.75 74.68569637646718
846.6796875 74.6039894331489
849.609375 74.52599644631728
852.5390625 74.45293069467776
855.46875 74.38567517174732
858.3984375 74.32472913414907
861.328125 74.27021784978614
864.2578125 74.22192762783256
867.1875 74.17933114986765
870.1171875 74.14166247441251
873.046875 74.10797332660742
875.9765625 74.07723152083206
878.90625 74.04842195503723
881.8359375 74.0206441563359
884.765625 73.99317175172264
887.6953125 73.96551100783805
890.625 73.93740157733441
893.5546875 73.90880459831074
896.484375 73.87984841950207
899.4140625 73.85077366209715
902.34375 73.82183400419815
905.2734375 73.79321932813629
908.203125 73.75137538392333
911.1328125 73.72308632434601
914.0625 73.69430929037733
916.9921875 73.66450394056194
919.921875 73.64746450259399
922.8515625 73.61428939568091
925.78125 73.57866504958879
928.7109375 73.54018518366473
931.640625 73.49860146910109
934.5703125 73.45384721575572
937.5 73.40604782139131
940.4296875 73.35550561053216
943.359375 73.30265755769182
946.2890625 73.24799910160907
949.21875 73.19200217539381
952.1484375 73.13504417383933
955.078125 73.07730927584753
958.0078125 73.01876808821284
960.9375 72.95914430428013
963.8671875 72.89794233497494
966.796875 72.83451211267719
969.7265625 72.7681660568475
972.65625 72.69830951306594
975.5859375 72.62458412940788
978.515625 72.54702903602079
981.4453125 72.46618730438628
984.375 72.38317074857717
987.3046875 72.29964110191763
990.234375 72.21773390484755
993.1640625 72.13986929653694
996.09375 72.06855553118174
999.0234375 72.00612568237091
1001.953125 71.95448836314235
1004.8828125 71.91492267366972
1007.8125 71.88795132619755
1010.7421875 71.87327797993304
1013.671875 71.86983874725948
1016.6015625 71.87585645497762
1019.53125 71.88896431385501
1022.4609375 71.90633874241864
1025.390625 71.92488876514075
1028.3203125 71.94143859238663
1031.25 71.9529606047029
1034.1796875 71.95677998458919
1037.109375 71.95080274378242
1040.0390625 71.93368659199625
1042.96875 71.90493333267507
1045.8984375 71.86490372315687
1048.828125 71.81477108820593
1051.7578125 71.75641768185315
1054.6875 71.6923192392092
1057.6171875 71.62535266862285
1060.546875 71.55860564966927
1063.4765625 71.49514883609594
1066.40625 71.43780847657915
1069.3359375 71.388961610002
1072.265625 71.35037975872271
1075.1953125 71.32320090825083
1078.125 71.30791736197155
1081.0546875 71.30447258648191
1083.984375 71.31228920390974
1086.9140625 71.33036935012811
1089.84375 71.35736492025516
1092.7734375 71.39168787674491
1095.703125 71.43163619397389
1098.6328125 71.47554274777049
1101.5625 71.52193102132513
1104.4921875 71.56964818215509
1107.421875 71.61791678013735
1110.3515625 71.6895779387717
1113.28125 71.73922019632384
1116.2109375 71.79003705773603
1119.140625 71.84274043245061
1122.0703125 71.89816397131393
1125.0 71.92988767623301
1127.9296875 71.99138233201423
1130.859375 72.05695338791173
1133.7890625 72.12676594676405
1136.71875 72.20059253167747
1139.6484375 72.27777873949165
1142.578125 72.35721379767008
1145.5078125 72.43734113268096
1148.4375 72.51616208165359
1151.3671875 72.5913193451015
1154.296875 72.66019503307484
1157.2265625 72.72008532886038
1160.15625 72.7683598882273
1163.0859375 72.80268993483621
1166.015625 72.82119913268266
1168.9453125 72.82269735699543
1171.875 72.80682888408072
1174.8046875 72.77418683501003
1177.734375 72.72636883508034
1180.6640625 72.6659113575801
1183.59375 72.59614848263932
1186.5234375 72.52098609564655
1189.453125 72.44459958578038
1192.3828125 72.37110770168944
1195.3125 72.30427363596613
1198.2421875 72.24728631136036
1201.171875 72.20257694555828
1204.1015625 72.17168024753214
1207.03125 72.15511561348318
1209.9609375 72.15232802574975
1212.890625 72.16168475589691
1215.8203125 72.18051531191165
1218.75 72.20527982682036
1221.6796875 72.23187114868388
1224.609375 72.2560297181341
1227.5390625 72.27382024277982
1230.46875 72.28212118987032
1233.3984375 72.27897208001052
1236.328125 72.26382081581639
1239.2578125 72.23750947689031
1242.1875 72.20216050571297
1245.1171875 72.16089271978802
1248.046875 72.11748097366703
1250.9765625 72.07594458416251
1253.90625 72.04022145223462
1256.8359375 72.01386354955956
1259.765625 71.99980159467249
1262.6953125 72.00017400269014
1265.625 72.01619079802332
1268.5546875 72.04803813599621
1271.484375 72.0948901377696
1274.4140625 72.1549878526482
1277.34375 72.22584092341734
1280.2734375 72.30450803990314
1283.203125 72.38793408513506
1286.1328125 72.47329497667764
1289.0625 72.55824950237702
1291.9921875 72.64108705047781
1294.921875 72.72072245989143
1297.8515625 72.7966135864687
1300.78125 72.86860983908629
1303.7109375 72.93681283285855
1306.640625 73.00140254821984
1309.5703125 73.0882691628481
1312.5 73.14340744345982
1315.4296875 73.19441464540341
1318.359375 73.24104255308693
1321.2890625 73.28299666110951
1324.21875 73.32000076662796
1327.1484375 73.35185156912225
1330.078125 73.35709240540916
1333.0078125 73.38143603080226
1335.9375 73.40121642336685
1338.8671875 73.4167296889394
1341.796875 73.42837401914757
1344.7265625 73.4366360195464
1347.65625 73.44205061213856
1350.5859375 73.44516092797681
1353.515625 73.44647203538652
1356.4453125 73.4463967324056
1359.375 73.44524584438763
1362.3046875 73.44320049743412
1365.234375 73.44032103530635
1368.1640625 73.43658788429353
1371.09375 73.4319299537078
1374.0234375 73.426300525543
1376.953125 73.41969557992007
1379.8828125 73.41216793806007
1382.8125 73.40379018466166
1385.7421875 73.39465718917107
1388.671875 73.3848800864437
1391.6015625 73.37458916628385
1394.53125 73.36393371077344
1397.4609375 73.35307947778901
1400.390625 73.34222343709263
1403.3203125 73.33161065643262
1406.25 73.32153030804231
1409.1796875 73.31230528183546
1412.109375 73.30427592221487
1415.0390625 73.29773886548593
1417.96875 73.29286970483768
1420.8984375 73.28964407620818
1423.828125 73.28780064377119
1426.7578125 73.28689384165916
1429.6875 73.28639688965232
1432.6171875 73.28578141555988
1435.546875 73.28462121472809
1438.4765625 73.2826343223096
1441.40625 73.27975995135537
1444.3359375 73.27619587153792
1447.265625 73.27244621727411
1450.1953125 73.26930099917148
1453.125 73.26781337827042
1456.0546875 73.26921368168308
1458.984375 73.27483202243221
1461.9140625 73.28602224217256
1464.84375 73.30404844420015
1467.7734375 73.32998814468003
1470.703125 73.36460826923336
1473.6328125 73.40828814744683
1476.5625 73.46098108195027
1479.4921875 73.52219627752577
1482.421875 73.59098349406473
1485.3515625 73.66592899685998
1488.28125 73.74514078237785
1491.2109375 73.82631620173578
1494.140625 73.90682864660612
1497.0703125 73.98388456020017
1500.0 74.05466843685154
1502.9296875 74.11653005631932
1505.859375 74.16711544867817
1508.7890625 74.20455361545274
1511.71875 74.20890236258158
1514.6484375 74.21138590555039
1517.578125 74.20132381383208
1520.5078125 74.18001824663463
1523.4375 74.14919329530251
1526.3671875 74.11086293886807
1529.296875 74.06717859276661
1532.2265625 74.02034089481687
1535.15625 74.00020840610672
1538.0859375 73.9559659743763
1541.015625 73.91234792715807
1543.9453125 73.8706251743893
1546.875 73.83177519469902
1549.8046875 73.79649185669754
1552.734375 73.7651860314083
1555.6640625 73.7379807412553
1558.59375 73.71471091253515
1561.5234375 73.6949258733678
1564.453125 73.67789768942434
1567.3828125 73.66271590633276
1570.3125 73.64839137731128
1573.2421875 73.63395616268697
1576.171875 73.61856761287805
1579.1015625 73.6015674698136
1582.03125 73.58251582950139
1584.9609375 73.56121810811827
1587.890625 73.53770155688149
1590.8203125 73.51219135038433
1593.75 73.48504910838777
1596.6796875 73.45671931147237
1599.609375 73.42765816405593
1602.5390625 73.39826479752263
1605.46875 73.36882746038847
1608.3984375 73.33946874958009
1611.328125 73.3101589821151
1614.2578125 73.28072178480448
1617.1875 73.25087952300056
1620.1171875 73.22030997799702
1623.046875 73.18870981406583
1625.9765625 73.15583917537742
1628.90625 73.12159311329525
1631.8359375 73.08601397782658
1634.765625 73.04931661216126
1637.6953125 73.01185502844254
1640.625 72.97412714898783
1643.5546875 72.93672656391824
1646.484375 72.90030884083572
1649.4140625 72.86555095638597
1652.34375 72.83310583555063
1655.2734375 72.80353453216672
1658.203125 72.7772800276539
1661.1328125 72.75459335936495
1664.0625 72.73552027338732
1666.9921875 72.7198673572045
1669.921875 72.70720143640617
1672.8515625 72.69687406861992
1675.78125 72.68804430697749
1678.7109375 72.67973224016468
1681.640625 72.67085863261093
1684.5703125 72.66030171244543
1687.5 72.64693584030535
1690.4296875 72.62968802556514
1693.359375 72.60758090944611
1696.2890625 72.57976999621972
1699.21875 72.54557722208398
1702.1484375 72.50454963448617
1705.078125 72.4565009478818
1708.0078125 72.40157219801326
1710.9375 72.3402616388153
1713.8671875 72.22935036581417
1716.796875 72.15919494547684
1719.7265625 72.08715791749789
1722.65625 72.01472694536056
1725.5859375 71.94345761975102
1728.515625 71.87491292263725
1731.4453125 71.81064201777994
1734.375 71.75212089163713
1737.3046875 71.739750077735
1740.234375 71.69457948202948
1743.1640625 71.65778091785887
1746.09375 71.63023262186591
1749.0234375 71.61261783747251
1751.953125 71.60542417073808
1754.8828125 71.60892596922052
1757.8125 71.62317582969088
1760.7421875 71.64796942624879
1763.671875 71.68281890124389
1766.6015625 71.72695848576778
1769.53125 71.77938548931309
1772.4609375 71.83889366100856
1775.390625 71.90413207408248
1778.3203125 71.97365450963254
1781.25 72.0459641936476
1784.1796875 72.11957970883851
1787.109375 72.19309278797697
1790.0390625 72.26521623380697
1792.96875 72.33482769523775
1795.8984375 72.4009897271326
1798.828125 72.46296674115091
1801.7578125 72.52024105928776
1804.6875 72.57248496151944
1807.6171875 72.61956053795
1810.546875 72.66150328747155
1813.4765625 72.69850077006215
1816.40625 72.73091361937622
1819.3359375 72.7592376577518
1822.265625 72.78405813043307
1825.1953125 72.80602642551153
1828.125 72.82579887285897
1831.0546875 72.84403880216374
1833.984375 72.86139931847494
1836.9140625 72.87847461413436
1839.84375 72.89578603318522
1842.7734375 72.91373448912871
1845.703125 72.9325789033768
1848.6328125 72.95242345033567
1851.5625 72.9731832854714
1854.4921875 72.99460813973805
1857.421875 73.01627711086216
1860.3515625 73.03760055500697
1863.28125 73.05784193175349
1866.2109375 73.07614444453598
1869.140625 73.09161247423204
1872.0703125 73.10335817503396
1875.0 73.11054462377277
1877.9296875 73.11246503439924
1880.859375 73.10860336432715
1883.7890625 73.09869224171365
1886.71875 73.08272660242325
1889.6484375 73.06097058236698
1892.578125 73.0339692812273
1895.5078125 73.00249434963673
1898.4375 72.96745932276735
1901.3671875 72.92981668160677
1904.296875 72.8904799852914
1907.2265625 72.85025610351047
1910.15625 72.80980778188827
1913.0859375 72.76963287255795
1916.015625 72.71617584560161
1918.9453125 72.67861147672814
1921.875 72.64178666151808
1924.8046875 72.6059026121264
1927.734375 72.57112347406043
1930.6640625 72.53756740929248
1933.59375 72.50529523491876
1936.5234375 72.47428041266421
1939.453125 72.44438655424283
1942.3828125 72.42858646543804
1945.3125 72.39830158843408
1948.2421875 72.36849606386812
1951.171875 72.33885266406757
1954.1015625 72.30904472388873
1957.03125 72.27880781076108
1959.9609375 72.24800268770163
1962.890625 72.21667420140122
1965.8203125 72.18505252669551
1968.75 72.15356027602108
1971.6796875 72.12277665387639
1974.609375 72.09339674552557
1977.5390625 72.06616870694504
1980.46875 72.04182739855364
1983.3984375 72.02105353637835
1986.328125 72.00443919672304
1989.2578125 71.99247582275778
1992.1875 71.98554485381923
1995.1171875 71.98391707578385
1998.046875 71.98774554155925
2000.9765625 71.99706968111958
2003.90625 72.01180399882068
2006.8359375 72.03175424192892
2009.765625 72.05659531353665
