Freq,On Axis,Listening Window,Sound Power,Early Reflections,Early Reflections DI,Sound Power DI,DI offset
20.5078,56.2154,55.790561779653174,61.78754072124893,59.5743618649564,36.21619991469677,34.003021058404244,40
21.9727,59.88369999999999,59.75956194825348,65.24437715469729,63.22719778742287,36.53236416083061,34.51518479355619,40
23.4375,61.1639,61.034862659854994,66.02712637685129,64.12436760596994,36.91049505388506,35.00773628300371,40
24.9023,63.55900000000001,63.53204453539938,68.23172819442064,66.436626603237,37.09541793216238,35.30031634097874,40
26.3672,66.2714,66.27516716580502,69.74183341012485,68.31717488158945,37.957992284215564,36.53333375568016,40
27.832,67.8359,67.82565773509788,71.02110392980659,69.67147646321563,38.15418127188225,36.80455380529129,40
29.2969,69.7065,69.71533083704843,72.53415426257216,71.31665226355322,38.398678573495204,37.18117657447627,40
30.7617,70.9032,70.91856998739502,73.512578386693,72.38312378783921,38.53544619955581,37.40599160070202,40
32.2266,72.4187,72.44057512045822,74.8110643860528,73.76357676341811,38.676998357040105,37.629510734405414,40
33.6914,73.82949999999998,73.8648629221711,76.11915519950068,75.11683002569312,38.74803289647798,37.74570772267042,40
35.1562,75.236,75.27623471534433,77.33166498750585,76.41193627072575,38.86429844461858,37.944569727838484,40
36.6211,76.5754,76.61309400673643,78.39690315057835,77.58272163699041,39.03037236974602,38.21619085615808,40
38.0859,77.6837,77.72271458716094,79.35436852732246,78.60347829074631,39.11923629641463,38.36834605983847,40
39.5508,78.7983,78.83886024657698,80.3396843766877,79.64410467024088,39.19475557633611,38.499175869889285,40
41.0156,79.7148,79.75205992235135,81.06601680787799,80.44962631328539,39.30243360906596,38.686043114473364,40
42.4805,80.4512,80.4894455826305,81.73301597482667,81.14603565856231,39.34340992406818,38.756429607803824,40
43.9453,81.15759999999999,81.19528072035216,82.34033078851164,81.79664965505111,39.398631065301046,38.85494993184052,40
45.4102,81.7965,81.834926967125,82.91493887329257,82.4003358878095,39.434591079315496,38.91998809383243,40
46.875,82.4297,82.46633166569944,83.44094098514455,82.9730409412423,39.49329072445714,39.02539068055489,40
48.3398,82.934,82.96839428933147,83.84983938640036,83.42293849445367,39.545455794877796,39.11855490293111,40
51.2695,83.6966,83.73113888060708,84.52411299638976,84.13756125029256,39.59357763031451,39.207025884217316,40
52.7344,84.01110000000001,84.04440061347054,84.76857175141488,84.41421267199227,39.63018794147827,39.27582886205566,40
54.1992,84.3022,84.33280352283377,84.97625389130386,84.65839686636129,39.674406656472485,39.356549631529916,40
55.6641,84.5579,84.58560471754141,85.12690835487571,84.8576773994568,39.72792731808461,39.458696362665705,40
58.5938,85.0358,85.06103391645667,85.51943565691334,85.2855452208928,39.775488695563865,39.54159825954332,40
60.0586,85.2888,85.31113873384346,85.69872621999,85.49874588115986,39.8123928526836,39.61241251385347,40
62.9883,85.5531,85.57564377895785,85.9291232024246,85.744831526499,39.830812252458855,39.64652057653325,40
64.4531,85.68749999999999,85.71015660264563,86.05743596801302,85.87527224105956,39.83488436158606,39.6527206346326,40
67.3828,85.8019,85.82598694002968,86.17699795342976,85.99130685452859,39.83468008550109,39.64898898659992,40
68.8477,85.897,85.92337757383106,86.30468348101715,86.10556505116661,39.817812522664454,39.61869409281391,40
71.7773,86.0833,86.10762843310887,86.41994788676024,86.25569604407355,39.851932389035326,39.68768054634863,40
74.707,86.3135,86.33539924248448,86.57670982011702,86.44636599062777,39.889033251856716,39.75868942236747,40
77.6367,86.5895,86.60756384874746,86.78608140073678,86.68536986833595,39.92219398041151,39.821482448010684,40
79.1016,86.6972,86.7094559209319,86.78587344963394,86.73396891233885,39.97548700859305,39.92358247129796,40
82.0312,86.6907,86.70128240945202,86.72119894819146,86.6963708015837,40.00491160786832,39.98008346126056,40
84.9609,86.7895,86.80065993795773,86.81117062190782,86.78741084030331,40.01324909765442,39.98948931604991,40
87.8906,87.0123,87.01692137185364,86.92529042366026,86.95091146087763,40.06600991097601,40.091630948193384,40
90.8203,87.3365,87.33795575394397,87.13889417149359,87.21936303662761,40.11859271731636,40.19906158245038,40
95.2148,86.8898,86.90019161084459,86.98295664239252,86.92182225784605,39.97836935299854,39.917234968452064,40
98.1445,87.11119999999998,87.11431255607336,87.04553251497806,87.05822184324326,40.0560907128301,40.068780041095295,40
101.074,87.0225,87.02404890142081,86.93540356606947,86.95699255444735,40.06705634697346,40.088645335351345,40
105.469,87.468,87.46057155610681,87.14064243641647,87.28698592860594,40.17358562750087,40.31992911969034,40
108.398,87.623,87.60991026662593,87.24862943823196,87.40893384356663,40.2009764230593,40.36128082839397,40
112.793,87.6459,87.62618040453332,87.18660885643821,87.38342696054364,40.24275344398967,40.4395715480951,40
117.188,87.76780000000001,87.74899065938878,87.1692591018116,87.44718757211658,40.301803087272205,40.579731557577176,40
120.117,87.7248,87.71165906583818,87.20784780354758,87.44696496984061,40.26469409599757,40.5038112622906,40
124.512,87.62500000000001,87.61167639182169,87.2434758804656,87.40359456541114,40.20808182641055,40.36820051135609,40
128.906,87.6797,87.66192314976992,87.25285123849837,87.43076391139788,40.231159238372044,40.40907191127155,40
133.301,87.6981,87.67738854063768,87.21928688536848,87.42102162207561,40.256366918562065,40.4581016552692,40
139.16,87.7084,87.68046784038854,87.13171873230975,87.37593060654218,40.30453723384636,40.548749108078795,40
143.555,87.6652,87.63375707530427,87.0633759631175,87.31357136616768,40.320185709136595,40.57038111218678,40
147.949,87.6519,87.61629129483289,86.98674781608129,87.2640173320789,40.352273962754,40.6295434787516,40
153.809,87.6839,87.64062945352778,86.91319974556251,87.23770600133507,40.40292345219271,40.72742970796527,40
159.668,87.7771,87.73487514182345,87.01685151115657,87.33693290427897,40.397942237544484,40.71802363066688,40
165.527,87.6898,87.64598168890274,87.00476291894249,87.28468770178658,40.361293987116156,40.64121876996025,40
171.387,87.79799999999999,87.73862967138038,86.87615625833482,87.27154878059793,40.467080890782455,40.862473413045564,40
177.246,87.6074,87.55055635439862,86.6600478212682,87.06520900564483,40.48534734875379,40.89050853313043,40
183.105,87.5736,87.50491710574128,86.56594171969417,86.98368700531249,40.521230100428795,40.93897538604712,40
188.965,87.67039999999999,87.59495624966948,86.48751036675799,87.00007285511455,40.59488339455493,41.10744588291149,40
196.289,87.7229,87.64417020570095,86.3993676459584,86.99512118618422,40.649049019516724,41.24480255974254,40
203.613,87.6414,87.55310085404103,86.20774107256354,86.85863489152409,40.694465962516944,41.3453597814775,40
210.938,87.6052,87.52710227739972,86.16175191310191,86.83093465991907,40.696167617480654,41.36535036429781,40
218.262,87.4047,87.32283613658909,86.100368374266,86.69199485734786,40.630841279241224,41.22246776232309,40
225.586,87.4954,87.39536990121383,85.9852414771997,86.67953321827426,40.71583668293957,41.41012842401413,40
232.91,87.5654,87.47145621225295,85.8037809796485,86.6591163806592,40.81233983159375,41.66767523260445,40
241.699,87.3354,87.24901573772418,85.61200816942147,86.44999478989654,40.79902094782764,41.63700756830271,40
250.488,87.58740000000002,87.47497639625382,85.60961615031036,86.53788625832053,40.937090137933296,41.865360245943464,40
259.277,87.4395,87.33904676141714,85.59889159356884,86.45486492667757,40.884181834739564,41.7401551678483,40
268.066,87.2101,87.11637017827935,85.30524099434164,86.19504928860884,40.92132088967051,41.81112918393771,40
276.855,87.2856,87.1627338656667,85.2409020432848,86.19257839051973,40.97015547514697,41.92183182238189,40
287.109,86.7207,86.661084317702,85.08014845730271,85.84137842576202,40.81970589193999,41.58093586039929,40
297.363,87.2607,87.12124951499307,84.94187337216748,86.05125892589213,41.06999058910094,42.17937614282559,40
307.617,86.0045,85.87351079205816,84.58590946740601,85.19060878056075,40.682902011497404,41.287601324652144,40
319.336,88.148,87.88337334721062,85.2122538368978,86.42657704963302,41.4567962975776,42.67111951031282,40
329.59,87.9701,87.83612019631572,85.23099730884468,86.5692785916549,41.26684160466081,42.60512288747104,40
341.309,87.5338,87.3453916388665,84.7992320704372,86.07808554338932,41.26730609547718,42.5461595684293,40
353.027,87.5228,87.3967163158163,84.58799683234982,86.05534909417204,41.34136722164426,42.80871948346649,40
366.211,87.596,87.47054438360962,84.48895870676924,86.06114138620144,41.40940299740818,42.98158567684038,40
379.395,87.6164,87.50364491834007,84.69516927614642,86.25443731772354,41.24920760061653,42.808475642193656,40
392.578,86.80840000000002,86.70979894439023,84.20059727773689,85.61625542108918,41.09354352330105,42.50920166665334,40
405.762,86.7393,86.53429372148373,83.69122083514984,85.23680939669616,41.297484324787575,42.8430728863339,40
420.41,87.2717,87.091152928286,84.31922547575253,85.80731509536358,41.283837832922416,42.77192745253346,40
435.059,87.9535,87.7257934980397,84.83241613279056,86.19827633709896,41.52751716094075,42.89337736524915,40
451.172,88.92799999999998,88.64316467687388,84.93677886932748,86.84700379440729,41.796160882466594,43.7063858075464,40
465.82,88.7441,88.5292425098955,84.88533408554459,86.75924463513606,41.76999787475944,43.64390842435091,40
483.398,88.3235,88.13381316218486,84.622437770942,86.3835453882172,41.750267773967664,43.511375391242865,40
499.512,88.4713,88.23753573063807,84.495098846305,86.3740998919164,41.86343583872167,43.742436884333074,40
517.09,88.6703,88.45041336404553,84.79139454895503,86.56892659857783,41.8814867654677,43.659018815090505,40
536.133,88.5927,88.37425871943252,84.47262291481829,86.2486973763913,42.12556134304121,43.90163580461423,40
555.176,87.4735,87.66799638109786,84.9097620511713,86.27830797151312,41.38968840958475,42.758234329926566,40
574.219,85.6521,86.01124841934127,87.16487491023456,87.59431309041534,38.41693532892593,38.84637350910671,40
594.727,87.3524,86.64283042643221,87.62013854540517,88.16748089879883,38.475349527633384,39.02269188102704,40
615.234,87.9868,87.1958125782755,86.53248465295732,87.49326695497803,39.70254562329747,40.66332792531817,40
637.207,91.0639,90.1769380998934,87.02054177179248,88.52177265351017,41.655165446383236,43.156396328100925,40
659.18,90.6097,90.05689179335735,86.0270258961818,87.5854586452838,42.47143314807356,44.029865897175554,40
682.617,89.6763,89.38017679432839,84.68912870566784,86.48282223057159,42.89735456375681,44.69104808866055,40
707.52,88.6374,88.53118949267173,83.79191492312218,85.9022478752644,42.628941617407335,44.73927456954955,40
732.422,87.67219999999999,87.53110005524404,83.2246015250944,85.11320388596916,42.41789616927488,44.30649853014964,40
757.324,87.1134,86.93203636786849,82.96011800637483,84.94350067556395,41.98853569230454,43.971918361493664,40
785.156,88.3396,88.03493094824165,84.03921937225904,85.53024812000217,42.50468282823948,43.99571157598261,40
811.523,87.9064,87.40482282735782,82.11063036843956,84.76002993026454,42.64479289709328,45.29419245891826,40
840.82,88.1822,87.55307856338108,82.68472468439127,84.87817170834619,42.67490685503489,44.86835387898981,40
870.117,88.5135,87.81569118914916,82.13412802902387,85.06657797625606,42.74911321289311,45.68156316012529,40
900.879,88.43999999999998,87.82378499006242,83.51019655275336,85.12766863022345,42.69611635983897,44.313588437309065,40
933.105,87.52830000000002,87.26282013956053,82.62217820791211,84.86692711651001,42.39589302305052,44.64064193164842,40
965.332,89.01619999999998,88.06216441161875,82.596527552058,85.33962520848081,42.72253920313794,45.465636859560746,40
1000.49,90.167,88.99149562964064,84.14395291971387,86.2861268463353,42.70536878330533,44.84754270992677,40
1035.64,89.7272,88.90160812197402,83.52222597417268,86.11534041975361,42.786267702220414,45.37938214780134,40
1072.27,87.947,87.93281638748098,83.45081472330585,84.67906954904151,43.25374683843947,44.48200166417513,40
1108.89,86.3614,86.68214419655999,82.9591425246335,84.24426030417196,42.43788389238803,43.72300167192648,40
1148.44,87.9968,87.32327472242143,82.4695954786482,84.95243391602884,42.37084080639259,44.85367924377323,40
1189.45,87.2098,86.75751061060139,82.3838952569929,84.52623490524311,42.23127570535827,44.373615353608486,40
1230.47,86.8412,86.4971021810176,81.60006279981008,83.82462097313,42.6724812078876,44.89703938120752,40
1274.41,87.4615,87.03933839386323,81.42672020065754,83.42346059043562,43.61587780342761,45.61261819320569,40
1319.82,87.18419999999999,86.95018060555451,80.43159934172606,83.4862628839283,43.4639177216262,46.51858126382845,40
1366.7,87.6667,86.95952915048744,80.38883215928847,83.52070896023722,43.438820190250226,46.57069699119897,40
1413.57,87.4266,86.88969306327375,80.13359523946447,83.38690070610694,43.50279235716681,46.756097823809284,40
1463.38,87.1158,86.24331432414075,80.02233849889912,83.50284209822249,42.74047222591827,46.22097582524164,40
1516.11,86.5193,85.35341283545353,78.87379711972238,82.30066069292593,43.052752142527595,46.47961571573114,40
1568.85,84.8871,84.28767630784297,77.86669433035615,80.92860601536212,43.35907029248085,46.42098197748682,40
1624.51,85.33649999999999,85.13152707561939,78.21732669629152,81.48917438329191,43.64235269232748,46.914200379327866,40
1681.64,87.2735,86.58961998818528,79.44073976555582,82.53539484938096,44.05422513880431,47.14888022262946,40
1741.7,87.53680000000001,86.87670172931848,79.72292003361163,82.82719344330866,44.049508286009825,47.153781695706854,40
1803.22,87.8873,87.20927978393249,80.00911267923594,82.98169431464383,44.227585469288655,47.20016710469655,40
1866.21,87.0285,86.57148220351728,79.68678450589593,82.5050799914547,44.06640221206257,46.88469769762135,40
1932.13,86.2057,85.66453959063638,78.97449127555076,81.52738410893856,44.13715548169782,46.69004831508562,40
1999.51,85.594,85.61485840101078,78.96497268241036,81.52476657007453,44.090091830936245,46.649885718600416,40
2069.82,86.7649,86.10973065981327,79.18760145731336,81.86219556293715,44.24753509687612,46.9221292024999,40
2143.07,87.0579,86.3640726478555,79.37133571918041,82.28313260521752,44.08094004263798,46.992736928675086,40
2219.24,86.29639999999999,85.82149650265222,78.93078794950486,81.87882552945271,43.94267097319951,46.89070855314736,40
2296.88,85.3152,85.07509601986028,78.47609088203728,81.08891608681034,43.98617993304994,46.599005137823,40
2378.91,86.0736,85.32093203707755,78.5879656513022,81.14633531885623,44.17459671822132,46.732966385775356,40
2462.4,87.75769999999999,86.84824019859299,79.59034620224182,82.4180811296966,44.43015906889639,47.25789399635117,40
2548.83,87.46489999999999,86.81854802905806,79.73806318478067,82.5637208512369,44.25482717782117,47.08048484427739,40
2639.65,85.8138,85.53163729928106,79.31162253985487,81.89567369731051,43.635963601970545,46.22001475942619,40
2731.93,85.7387,85.10541016957504,79.09057524950897,81.73852239120423,43.36688777837081,46.014834920066065,40
2828.61,85.9055,85.64945993227315,79.55775038280592,82.33813815468646,43.311321777586684,46.091709549467225,40
2928.22,86.44,86.55390231220566,80.29759157562395,83.23465569787741,43.31924661432825,46.25631073658171,40
3030.76,86.5782,86.72640101911274,80.86351661945447,83.70644343898024,43.0199575801325,45.86288439965827,40
3137.7,86.4042,86.85235220280067,81.18955004602047,83.99937550489662,42.852976697904055,45.6628021567802,40
3249.02,87.16880000000002,86.91113994228292,81.33971660107827,84.23161360201276,42.67952634027016,45.57142334120465,40
3363.28,88.2024,87.59915199864047,81.53145871305671,84.61492784961644,42.98422414902403,46.06769328558376,40
3481.93,88.9532,87.98311836440301,81.79943206501109,85.02315762327866,42.95996074112435,46.18368629939192,40
3604.98,89.1923,87.95806047501985,82.00398393365298,85.17979966759943,42.77826080742042,45.954076541366874,40
3732.42,88.7821,88.07168599516297,82.00951702275142,85.20834546155882,42.863340533604145,46.06216897241154,40
3864.26,87.85510000000001,87.15959234109319,81.51817642221657,84.92283323584913,42.23675910524406,45.64141591887662,40
4000.49,87.5167,86.527484469232,81.21538328876575,84.46623503218711,42.06124943704488,45.31210118046624,40
4141.11,87.333,86.70556490641756,81.50558806841688,84.74188638883537,41.963678517582196,45.19997683800068,40
4287.6,86.7197,86.59038723749846,81.77771126564629,84.853298453238,41.737088784260465,44.81267597185217,40
4438.48,87.4763,86.97880355415623,81.87411587706443,84.92731518761504,42.05148836654119,45.1046876770918,40
4595.21,86.5212,86.46492445926157,81.79074074718459,84.75385789109866,41.711066568162906,44.67418371207698,40
4756.35,87.7936,87.38446110345818,81.94197583164002,85.02911747168511,42.35534363177307,45.44248527181816,40
4924.8,88.2572,87.843189337507,81.92297330960439,85.09680152584284,42.746387811664164,45.92021602790261,40
5097.66,87.9495,87.19678255604373,81.43102679276505,84.9860972317685,42.21068532427523,45.765755763278676,40
5277.83,87.9704,87.58772872888251,81.39641495827101,84.9814568927986,42.606271836083906,46.1913137706115,40
5463.87,87.6182,87.24237720677175,81.37043020358497,84.59214673071219,42.65023047605956,45.871947003186776,40
5657.23,87.7493,87.28328396546333,81.14442943340424,84.58803317405582,42.6952507914075,46.138854532059085,40
5856.45,88.0219,87.23024053429448,81.08354869758304,84.68592200648256,42.544318527811924,46.14669183671144,40
6062.99,88.23030000000001,87.50767977537251,80.99693554352466,84.56274393785208,42.94493583752043,46.51074423184785,40
6276.86,88.1395,87.48879126619143,80.5067468144427,84.00095769370938,43.487833572482046,46.98204445174872,40
6498.05,87.95019999999998,87.55258702506866,80.60902281732281,84.23830882819159,43.31427819687707,46.94356420774585,40
6726.56,88.5927,87.58493508298388,80.63232272600405,84.35305078349599,43.23188429948789,46.95261235697983,40
6963.87,88.0451,87.22524997271721,80.371470014462,84.21820193562604,43.00704803709117,46.8537799582552,40
7209.96,87.47010000000002,86.94603952536826,80.14411428890263,83.74608497268143,43.19995455268683,46.801925236465635,40
7464.84,87.265,86.57887220394343,79.49751983552468,83.12736297186106,43.45150923208237,47.08135236841875,40
7727.05,86.6492,86.35891033518088,79.24739660720441,83.12419739202205,43.234712943158826,47.11151372797647,40
7999.51,86.0175,85.86237215799045,79.12174068024193,83.0559201270438,42.806452030946645,46.74063147774852,40
8282.23,85.5938,85.67989561709356,78.79353108463039,82.50403067193626,43.1758649451573,46.886364532463176,40
8573.73,85.6535,85.71634325205547,78.55970330126192,82.2262838987733,43.49005935328216,47.15663995079355,40
8876.95,86.1784,85.5220811940596,78.29422780070263,82.10577714733499,43.416304046724605,47.227853393356966,40
9188.96,87.135,86.06359552216085,78.14409682519226,82.11764246751794,43.945953054642914,47.91949869696859,40
9514.16,88.0305,86.52890893722257,78.14319582649368,82.4368451075769,44.09206382964567,48.38571311072889,40
9849.61,88.617,86.89820742709006,78.08341199459305,82.60906600450969,44.28914142258037,48.81479543249701,40
10196.8,88.98020000000001,87.2750308093676,78.1644180921303,82.8034225893356,44.47160822003201,49.1106127172373,40
10555.7,88.9743,87.38238224445003,78.09879197459156,82.88861196677169,44.49377027767834,49.283590269858465,40
10927.7,89.1587,87.50621492906318,77.86945466630911,82.81934932576142,44.686865603301754,49.636760262754066,40
11313.0,89.2764,87.65390774055037,77.64556724437008,82.64374207198505,45.01016566856532,50.00834049618028,40
11712.9,89.555,87.82216386365901,77.60790242789044,82.76908440820058,45.05307945545843,50.21426143576858,40
12126.0,89.6367,87.83946662613326,77.48457814063615,82.6883824449707,45.15108418116256,50.35488848549711,40
12553.7,89.499,87.61237710217287,77.16323153284665,82.38002248405752,45.23235461811535,50.44914556932622,40
