Freq "On Axis"
20.5078 56.50861818181819
21.9727 60.17691818181818
23.4375 61.45711818181819
24.9023 63.8522181818182
26.3672 66.56461818181819
27.832 68.12911818181819
29.2969 69.9997181818182
30.7617 71.19641818181819
32.2266 72.71191818181819
33.6914 74.12271818181817
35.1562 75.5292181818182
36.6211 76.86861818181819
38.0859 77.97691818181819
39.5508 79.09151818181819
41.0156 80.00801818181819
42.4805 80.74441818181819
43.9453 81.45081818181818
45.4102 82.08971818181818
46.875 82.72291818181819
48.3398 83.22721818181819
51.2695 83.9898181818182
52.7344 84.3043181818182
54.1992 84.59541818181819
55.6641 84.8511181818182
58.5938 85.32901818181818
60.0586 85.58201818181819
62.9883 85.84631818181819
64.4531 85.98071818181818
67.3828 86.0951181818182
68.8477 86.1902181818182
71.7773 86.37651818181818
74.707 86.6067181818182
77.6367 86.88271818181819
79.1016 86.99041818181819
82.0312 86.9839181818182
84.9609 87.0827181818182
87.8906 87.30551818181819
90.8203 87.62971818181819
95.2148 87.18301818181818
98.1445 87.40441818181817
101.074 87.31571818181818
105.469 87.7612181818182
108.398 87.9162181818182
112.793 87.93911818181819
117.188 88.0610181818182
120.117 88.01801818181819
124.512 87.9182181818182
128.906 87.97291818181819
133.301 87.99131818181819
139.16 88.00161818181819
143.555 87.95841818181819
147.949 87.94511818181819
153.809 87.97711818181818
159.668 88.0703181818182
165.527 87.9830181818182
171.387 88.09121818181818
177.246 87.90061818181819
183.105 87.86681818181819
188.965 87.96361818181818
196.289 88.01611818181819
203.613 87.9346181818182
210.938 87.89841818181819
218.262 87.6979181818182
225.586 87.7886181818182
232.91 87.85861818181819
241.699 87.6286181818182
250.488 87.8806181818182
259.277 87.73271818181819
268.066 87.50331818181819
276.855 87.57881818181819
287.109 87.01391818181818
297.363 87.55391818181819
307.617 86.29771818181818
319.336 88.44121818181819
329.59 88.26331818181819
341.309 87.82701818181819
353.027 87.8160181818182
366.211 87.8892181818182
379.395 87.90961818181819
392.578 87.10161818181821
405.762 87.03251818181819
420.41 87.56491818181819
435.059 88.2467181818182
451.172 89.22121818181817
465.82 89.0373181818182
483.398 88.61671818181819
499.512 88.76451818181819
517.09 88.96351818181819
536.133 88.88591818181818
555.176 87.76671818181819
574.219 85.9453181818182
594.727 87.6456181818182
615.234 88.28001818181819
637.207 91.3571181818182
659.18 90.9029181818182
682.617 89.96951818181819
707.52 88.93061818181819
732.422 87.96541818181818
757.324 87.40661818181819
785.156 88.6328181818182
811.523 88.1996181818182
840.82 88.47541818181818
870.117 88.80671818181818
900.879 88.73321818181817
933.105 87.8215181818182
965.332 89.30941818181817
1000.49 90.46021818181819
1035.64 90.02041818181819
1072.27 88.2402181818182
1108.89 86.6546181818182
1148.44 88.29001818181818
1189.45 87.50301818181819
1230.47 87.13441818181819
1274.41 87.75471818181819
1319.82 87.47741818181818
1366.7 87.9599181818182
1413.57 87.71981818181818
1463.38 87.40901818181818
1516.11 86.81251818181819
1568.85 85.1803181818182
1624.51 85.62971818181818
1681.64 87.56671818181819
1741.7 87.8300181818182
1803.22 88.18051818181819
1866.21 87.32171818181818
1932.13 86.49891818181818
1999.51 85.88721818181818
2069.82 87.05811818181819
2143.07 87.3511181818182
2219.24 86.58961818181818
2296.88 85.6084181818182
2378.91 86.36681818181819
2462.4 88.05091818181818
2548.83 87.75811818181818
2639.65 86.10701818181819
2731.93 86.03191818181818
2828.61 86.1987181818182
2928.22 86.73321818181819
3030.76 86.87141818181819
3137.7 86.6974181818182
3249.02 87.46201818181821
3363.28 88.49561818181819
3481.93 89.24641818181819
3604.98 89.4855181818182
3732.42 89.07531818181819
3864.26 88.1483181818182
4000.49 87.80991818181819
4141.11 87.62621818181819
4287.6 87.0129181818182
4438.48 87.76951818181819
4595.21 86.81441818181818
4756.35 88.08681818181819
4924.8 88.55041818181819
5097.66 88.24271818181819
5277.83 88.26361818181819
5463.87 87.91141818181819
5657.23 88.0425181818182
5856.45 88.31511818181819
6062.99 88.5235181818182
6276.86 88.43271818181819
6498.05 88.24341818181817
6726.56 88.88591818181818
6963.87 88.3383181818182
7209.96 87.7633181818182
7464.84 87.55821818181819
7727.05 86.94241818181818
7999.51 86.31071818181819
8282.23 85.88701818181819
8573.73 85.94671818181818
8876.95 86.47161818181819
9188.96 87.4282181818182
9514.16 88.3237181818182
9849.61 88.9102181818182
10196.8 89.2734181818182
10555.7 89.26751818181819
10927.7 89.45191818181819
11313.0 89.56961818181819
11712.9 89.8482181818182
12126.0 89.9299181818182
12553.7 89.79221818181819
12996.1 89.48431818181821
13454.6 88.65991818181818
13929.2 87.39941818181819
14419.9 85.5561181818182
14928.2 83.96151818181819
15455.6 83.45381818181819
16000.5 84.16871818181819
16564.5 85.20541818181819
17148.9 85.92791818181819
17752.4 86.29921818181819
18379.4 86.37501818181819
19026.9 86.25191818181818
19697.8 86.08671818181818
19999.5 85.99681818181817
