Freq "Ceiling Bounce"
20.5078 51.496234861894735
21.9727 54.10127327833037
23.4375 56.7331976673798
24.9023 58.69332045627608
26.3672 60.68488756504554
27.832 62.76496203360615
29.2969 64.56790143129888
30.7617 66.43309177284478
32.2266 68.09839474942844
33.6914 69.71745813339454
35.1563 71.35157438142068
36.6211 72.8266338616606
38.0859 74.23364795662793
39.5508 75.3430494862758
41.0156 76.2923189544189
42.4805 77.3672524642794
43.9453 78.38741601945836
45.4102 79.09236564492662
46.875 79.78978132020191
48.3398 80.32931746149173
51.2695 81.23796529343859
52.7344 81.60577575111427
54.1992 81.94871438306565
55.6641 82.19723653006123
58.5938 82.67452096675963
60.0586 82.89017898378297
62.9883 83.27898362954654
64.4531 83.41229816909124
67.3828 83.67301089019911
68.8477 83.78471238688185
71.7773 84.06576183874618
74.707 84.34772971539867
77.6367 84.51896713327858
79.1016 84.57927073632798
82.0313 84.82747564217875
84.9609 85.06658506972622
87.8906 84.99592014409758
90.8203 84.5886225239149
95.2148 85.68454961900814
98.1445 85.26155457238724
101.074 85.26588698714268
105.469 85.49806552042132
108.398 85.51386405733143
112.793 85.73670200191701
117.188 85.83479358257303
120.117 86.17869078481924
124.512 86.00243140287499
128.906 85.78085627394516
133.301 85.78762196355144
139.16 85.68799664960325
143.555 85.67810064080626
147.949 85.67691950424803
153.809 85.77436133869499
159.668 85.9404641512323
165.527 85.76941676845986
171.387 85.61104093480338
177.246 85.45315495229893
183.105 85.14324848869393
188.965 85.03644368373686
196.289 85.17568499629202
203.613 85.10437678575715
210.938 85.05037948007974
218.262 85.1721759837457
225.586 85.06769989025287
232.91 85.32881324015949
241.699 85.32242878290289
250.488 85.22940617743195
259.277 85.42598217666597
268.066 85.00440607717731
276.855 85.17055246087456
287.109 85.3565153142735
297.363 85.27942299675566
307.617 85.41440160486259
319.336 85.28131163058896
329.59 85.27909217644337
341.309 84.80026215665119
353.027 84.77201760977262
366.211 84.99433687972729
379.395 85.51681522962727
392.578 85.0110511829797
405.762 84.54043646635625
420.41 85.20071674499233
435.059 84.86254387928018
451.172 84.93831133713347
465.82 85.21093660268546
483.398 84.68381602853592
499.512 84.55082333103542
517.09 84.84804582972248
536.133 83.68590899393966
555.176 84.26102012259358
574.219 84.14933166827895
594.727 84.05574790298364
615.234 83.45694608333837
637.207 82.49240386227397
659.18 83.92411513317762
682.617 85.13961905451497
707.52 86.06846719465993
732.422 86.34424692247917
757.324 85.56661861798986
785.156 84.00117069818238
811.523 82.52368644860229
840.82 82.27285009092913
870.117 82.28027772722255
900.879 81.25341551218871
933.105 80.84387015558796
965.332 80.78604126119662
1000.49 80.83086078150572
1035.64 81.19230760318568
1072.27 80.1527727404201
1108.89 79.88142036244585
1148.44 80.58476131458615
1189.45 81.06171930219739
1230.47 80.67106206386379
1274.41 80.12970710719333
1319.82 80.28055805103614
1366.7 79.99048578517151
1413.57 80.11536858065993
1463.38 79.90795508099205
1516.11 78.73925302480603
1568.85 77.46358461960122
1624.51 76.53853876155334
1681.64 74.91618196865555
1741.7 72.45378920983775
1803.22 70.32510678717813
1866.21 70.06787683030845
1932.13 71.2257086859374
1999.51 72.79785698118046
2069.82 75.49863194164344
2143.07 77.8022606999994
2219.24 78.41556637997266
2296.88 78.95490986805848
2378.91 81.06773417426164
2462.4 81.41647003623669
2548.83 82.07506327414363
2639.65 82.5285343286178
2731.93 82.33363176961716
2828.61 82.58352802123521
2928.22 82.72647328309105
3030.76 83.12816773292552
3137.7 83.56637154277816
3249.02 83.73989498922843
3363.28 83.84779427641594
3481.93 83.9376708147898
3604.98 83.68198461821594
3732.42 83.16307671579305
3864.26 82.67944528962828
4000.49 82.40403005146489
4141.11 82.38487588504455
4287.6 82.3324553458309
4438.48 82.19856812491561
4595.21 82.18565145004591
4756.35 82.06705111411524
4924.8 82.05896118582913
5097.66 82.19080825564315
5277.83 82.14333212308873
5463.87 82.28261470858266
5657.23 82.38121221812622
5856.45 82.72729461653988
6062.99 82.94824958207356
6276.86 83.03607504618734
6498.05 82.42721199602943
6726.56 81.75914057738788
6963.87 81.5497844014798
7209.96 81.26879102991911
7464.84 80.76053058104657
7727.05 80.71567653569369
7999.51 81.10352633107343
8282.23 81.16263247159445
8573.73 80.68897081552159
8876.95 79.90912357222734
9188.96 79.68471014139517
9514.16 79.22122863872708
9849.61 78.72828146499657
10196.8 78.32311243854282
10555.7 77.82245757813571
10927.7 77.55824587803464
11313.0 77.08912173264014
11712.9 76.53696520344853
12126.0 76.05277800135457
12553.7 75.68184819605864
12996.1 75.44676409812922
13454.6 74.60927498756392
13929.2 73.20262680201982
14419.9 73.21068244723153
14928.2 73.0346536041552
15455.6 71.52673986647386
16000.5 69.3493720963669
16564.5 68.66004070522924
17148.9 68.52524851440965
17752.4 67.43701870862134
18379.4 66.6210494439519
19026.9 67.8329817197598
19697.8 67.73353171845436
19999.5 67.0481707683294
