Freq "Side Wall Bounce"
20.5078 53.56739493294167
21.9727 55.744146444727264
23.4375 58.322208010934006
24.9023 59.95725619744486
26.3672 61.830867818447516
27.832 63.75450902681483
29.2969 65.46176893405169
30.7617 67.19208536933228
32.2266 68.7643710185822
33.6914 70.31924855661089
35.1563 71.89630933700273
36.6211 73.32386591971589
38.0859 74.67958028009626
39.5508 75.75596371451415
41.0156 76.69746637340923
42.4805 77.73224646291249
43.9453 78.70732576293345
45.4102 79.38749471527318
46.875 80.06354745783499
48.3398 80.57242210519817
51.2695 81.45754255926215
52.7344 81.81217552689752
54.1992 82.12945036411966
55.6641 82.36582596885482
58.5938 82.82807259106603
60.0586 83.03142074405643
62.9883 83.39529932255515
64.4531 83.52720079008228
67.3828 83.77636999769658
68.8477 83.87407203283033
71.7773 84.12442776625754
74.707 84.37566797783045
77.6367 84.50812147002138
79.1016 84.5760164702809
82.0313 84.79783340965207
84.9609 85.01623534567226
87.8906 84.98805790210018
90.8203 84.69300194456368
95.2148 85.47910661368108
98.1445 85.20541455381968
101.074 85.15740248707532
105.469 85.37351742318542
108.398 85.40573451894772
112.793 85.61411136581835
117.188 85.6673603564937
120.117 85.95210426045388
124.512 85.84401048140876
128.906 85.58954974439467
133.301 85.59757456752034
139.16 85.52149103861369
143.555 85.51730802977467
147.949 85.5024100018842
153.809 85.5718788501135
159.668 85.74222427653751
165.527 85.63009786157069
171.387 85.4142584463025
177.246 85.17345496837379
183.105 84.89374253540812
188.965 84.66042412926464
196.289 84.7699581327716
203.613 84.6726212398073
210.938 84.6450002805535
218.262 84.64165231628427
225.586 84.50732969016862
232.91 84.73112013691623
241.699 84.8343410379895
250.488 84.88041802680925
259.277 85.03401439227294
268.066 84.63880562033593
276.855 84.75957238788936
287.109 84.67525418492295
297.363 84.4771160683607
307.617 84.93846025328915
319.336 84.78024202529697
329.59 85.0637855974732
341.309 84.44028976371094
353.027 84.37233019823032
366.211 84.71677879084838
379.395 85.31743561112832
392.578 84.88570389666187
405.762 84.33904326485347
420.41 85.16144465312976
435.059 84.87444968090777
451.172 85.34659815012968
465.82 85.55126798045269
483.398 85.09475714300251
499.512 85.1102782589023
517.09 85.43732270400034
536.133 84.58345154375203
555.176 85.3751684319078
574.219 85.29031111026148
594.727 84.6401229965487
615.234 83.97344799957429
637.207 83.68903133494021
659.18 84.52510758595984
682.617 85.7391071503479
707.52 86.00622834690446
732.422 85.35482283436228
757.324 84.51696500538455
785.156 83.8773031811259
811.523 82.77195292175094
840.82 82.7763472936346
870.117 82.95976540549589
900.879 82.55936607045122
933.105 82.68974319024805
965.332 82.55150593211913
1000.49 82.23223935460526
1035.64 82.18164247374843
1072.27 81.60719152540561
1108.89 81.85299850682176
1148.44 82.04480112153287
1189.45 81.79521537699874
1230.47 81.68330227316395
1274.41 82.1141027483245
1319.82 81.85856543522462
1366.7 81.29484897696949
1413.57 80.54071537765432
1463.38 80.52590804768806
1516.11 80.84192021244526
1568.85 80.48971819391802
1624.51 80.02349040263194
1681.64 79.86821483673543
1741.7 80.18407899054345
1803.22 80.52287035914465
1866.21 80.16822707759327
1932.13 80.02332714898405
1999.51 80.671121343921
2069.82 81.69907847424477
2143.07 82.21490392869491
2219.24 82.01076568303286
2296.88 81.91866604867883
2378.91 83.08452913626785
2462.4 83.13433163266352
2548.83 82.96232668764445
2639.65 83.41254100158821
2731.93 83.39885103098842
2828.61 83.3802090832655
2928.22 83.48096769949537
3030.76 83.03047894244422
3137.7 82.81262359121588
3249.02 82.33812496183414
3363.28 81.90776024847958
3481.93 81.88171566394745
3604.98 81.97002071180928
3732.42 82.03371834738596
3864.26 82.29001231464898
4000.49 82.57965005147966
4141.11 82.79559745814738
4287.6 82.44872397118168
4438.48 82.7942523968944
4595.21 82.43071366590058
4756.35 81.99843092138246
4924.8 81.34021288337863
5097.66 80.91237252549519
5277.83 80.21794499391711
5463.87 79.65041568019794
5657.23 79.55916583810051
5856.45 79.3390756712809
6062.99 79.53113960283902
6276.86 79.91084114255585
6498.05 80.31921972683895
6726.56 80.62821022584836
6963.87 80.9798238877497
7209.96 80.75982559555875
7464.84 80.43793052137218
7727.05 80.14468525067093
7999.51 79.42739958872986
8282.23 79.3147212542355
8573.73 79.39679367159722
8876.95 78.83137035993906
9188.96 78.00599638265244
9514.16 77.45588631359092
9849.61 77.03625028283956
10196.8 76.60146257931301
10555.7 75.89781519902611
10927.7 74.95337919841025
11313.0 74.5247569206408
11712.9 74.04811994309397
12126.0 73.26521505502575
12553.7 73.02493437242178
12996.1 72.6425379828593
13454.6 71.924324381271
13929.2 70.76208559508198
14419.9 70.85343819846955
14928.2 70.529561700235
15455.6 68.98137199050414
16000.5 68.66477425129897
16564.5 68.61423193499925
17148.9 69.14627370738243
17752.4 71.15196856381695
18379.4 71.81992122909912
19026.9 72.12315493573026
19697.8 72.1106215884668
19999.5 71.90166330409113
