Freq,On Axis,Listening Window,Sound Power,Early Reflections,Early Reflections DI,Sound Power DI,DI offset
22.4,46.39999999999999,46.423765078074894,51.236107508385274,48.74839530081498,17.675369777259917,15.18765756968962,20
23.0,47.10000000000001,47.18307658556567,51.90092336609494,49.463733436237106,17.719343149328566,15.282153219470729,20
23.6,47.89999999999999,47.864360485711586,52.560800421105924,50.14935854853388,17.715001937177703,15.303560064605662,20
24.0,48.60000000000001,48.616785861439965,53.21061402555654,50.83924649379537,17.777539367644593,15.406171835883427,20
25.0,49.3,49.289099971725946,53.81320291040042,51.49507723431019,17.79402273741576,15.475897061325526,20
25.8,50.000000000000014,49.91542442175812,54.36713479167152,52.082253432978376,17.83317098877974,15.5482896300866,20
26.5,50.60000000000001,50.50928288763129,54.91756494903926,52.65395900573358,17.855323881897704,15.591717938592026,20
27.2,51.39999999999999,51.37762099998575,55.67017729051831,53.46084913677093,17.91677186321482,15.70744370946744,20
28.0,52.3,52.16430155359048,56.400606679416214,54.233613125302256,17.93068842828822,15.763694874174263,20
29.0,53.0,52.91701609185955,57.05061537540935,54.92752690498729,17.989489186872262,15.866400716450201,20
30.0,53.7,53.595926092749565,57.6769229161948,55.591365963158296,18.00456012959127,15.919003176554767,20
30.7,54.5,54.39257938163212,58.36283193528206,56.32988408290356,18.062695298728556,16.029747446350058,20
31.5,55.3,55.10363280272354,58.99872586312759,57.010017383526744,18.093615419196794,16.10490693959595,20
32.5,55.89999999999999,55.745949852385294,59.5738103319607,57.60759438972637,18.13835546265892,16.172139520424594,20
33.5,56.7,56.52563891757144,60.26532860100845,58.3614796956865,18.164159221884944,16.260310316562993,20
34.5,57.500000000000014,57.250418549129506,60.889274133312156,59.031445150098975,18.21897339903053,16.36114441581735,20
35.5,58.10000000000001,57.90368727137424,61.45885475733046,59.63559244178403,18.26809482959021,16.44483251404378,20
36.5,58.89999999999999,58.61686763599609,62.07842115503051,60.30444258776727,18.312425048228818,16.538446480965575,20
37.5,59.5,59.26064808149387,62.64637779351466,60.909058095398464,18.351589986095405,16.61427028797921,20
38.7,60.2,59.911466488728166,63.19442398779081,61.499295836128766,18.4121706525994,16.717042500937353,20
40.0,60.89999999999999,60.58759677868217,63.76366849472144,62.12806718066649,18.459529598015678,16.823928283960726,20
41.2,61.499999999999986,61.20123099163335,64.29003392603876,62.69600195652508,18.50522903510827,16.911197065594592,20
42.5,62.2,61.90591275949474,64.87680020092843,63.329426247992274,18.576486511502466,17.02911255856631,20
43.7,62.89999999999999,62.57508001184445,65.45852630969267,63.94646365149022,18.62861636035423,17.116553702151776,20
45.0,63.7,63.368192443927725,66.16673097489023,64.72473552900891,18.643456914918815,17.201461469037497,20
46.2,65.00000000000001,64.63163199962469,67.33223634024745,65.92565589063466,18.70597610899003,17.29939565937724,20
47.5,65.9,65.56688802456526,68.16651042564285,66.79825738448669,18.76863064007857,17.400377598922404,20
48.7,66.0,65.67915865837388,68.16687428317088,66.85060667718847,18.828551981185413,17.512284375202995,20
50.0,66.0,65.67792804602352,68.05686365804503,66.7845082144766,18.89341983154692,17.621064387978493,20
51.5,66.6,66.28421027534696,68.57907665161126,67.36678340215842,18.917426873188546,17.705133623735705,20
53.0,67.3,66.99229340568468,69.17228000022935,68.01064900605827,18.981644399626404,17.820013405455327,20
54.5,67.8,67.4622111709439,69.53250461830532,68.41117681179801,19.051034359145888,17.929706552638578,20
56.0,68.2,67.88090128897035,69.8526854281278,68.78055694849712,19.100344340473228,18.02821586084255,20
58.0,68.7,68.33584789945951,70.19326405723793,69.17267632556097,19.163171573898538,18.142583842221583,20
60.0,69.1,68.76171838464938,70.52797402741069,69.56395314683978,19.197765237809605,18.23374435723869,20
61.5,69.6,69.27222772205077,70.92080372748832,69.99575717023949,19.276470551811286,18.351423994562452,20
63.0,70.09999999999998,69.7475893643092,71.28007595821337,70.4014998793369,19.34608948497231,18.467513406095833,20
65.0,70.5,70.19745802896938,71.63154611317528,70.80555115247098,19.391906876498396,18.565911915794103,20
67.0,71.10000000000001,70.76339001651687,72.07029936827531,71.29954260442393,19.46384741209293,18.69309064824155,20
69.0,71.49999999999999,71.15468340839274,72.39372056251631,71.66456626771247,19.49011714068027,18.760962845876435,20
71.0,71.8,71.43563994163375,72.5499845799681,71.87137042584374,19.564269515790016,18.885655361665656,20
73.0,72.3,72.00351041031502,73.01898468405521,72.39099533854436,19.61251507177066,18.984525726259804,20
75.0,72.8,72.46400451610428,73.38604461576477,72.8116975275483,19.652306988555978,19.077959900339508,20
77.5,73.2,72.86045632085495,73.6493576103535,73.12668919057631,19.733767130278636,19.211098710501446,20
80.0,73.7,73.38681421453848,74.08436702459161,73.6031354666483,19.78367874789018,19.30244718994686,20
82.5,73.7,73.40330797838189,73.9973780780507,73.5624832147581,19.840824763623786,19.405929900331188,20
85.0,74.1,73.81068857551709,74.32461607311757,73.94265064454454,19.868037930972548,19.486072502399523,20
87.5,74.6,74.30717153272225,74.69352475028322,74.36733161573957,19.939839916982677,19.613646782439034,20
90.0,74.6,74.32519745441019,74.6162149207807,74.3335480641535,19.991649390256683,19.70898253362948,20
92.5,74.8,74.48982873355511,74.68698145852726,74.4425874986426,20.04724123491252,19.802847275027858,20
95.0,74.4,74.11083804368087,74.18299865820198,74.00517789378328,20.105660149897588,19.92783938547889,20
97.5,74.7,74.39722896745566,74.41820557120172,74.27406347805905,20.123165489396612,19.979023396253936,20
100.0,75.09999999999998,74.85288208545698,74.76540015684772,74.66655152586092,20.18633055959606,20.087481928609265,20
103.0,75.39999999999999,75.0869075588648,74.90204521959485,74.8498772244075,20.237030334457287,20.18486233926994,20
106.0,75.39999999999999,75.09560178429025,74.82144521289302,74.82144191997683,20.274159864313418,20.274156571397228,20
109.0,75.39999999999999,75.14059290236969,74.77262483533713,74.80385704047505,20.33673586189464,20.367968067032564,20
112.0,75.6,75.34942910993631,74.89417175813351,74.97806879614072,20.37136031379559,20.4552573518028,20
115.0,75.8,75.52783465462728,75.0020764025294,75.12652389686171,20.40131075776557,20.525758252097887,20
118.0,75.9,75.66254978192168,75.05232453419096,75.21833038377191,20.44421939814977,20.610225247730725,20
122.0,75.7,75.4613834008011,74.77513680290265,74.98348191025994,20.477901490541157,20.686246597898446,20
125.0,75.39999999999999,75.11924722604593,74.37038564259957,74.61490280510544,20.504344420940484,20.748861583446356,20
128.0,75.2,74.9525144902815,74.1044928579075,74.39290386858777,20.559610621693736,20.848021632374,20
132.0,74.8,74.56495658154256,73.65527821614081,73.97940030999399,20.58555627154857,20.909678365401746,20
136.0,74.2,74.03439975071298,73.04530851661583,73.40400845981267,20.630391290900306,20.989091234097145,20
140.0,73.99999999999999,73.81123787784547,72.76267346697476,73.16318717598016,20.648050701865316,21.04856441087071,20
145.0,73.99999999999999,73.81386379267006,72.66904757742431,73.11765038686329,20.696213405806773,21.144816215245754,20
150.0,73.8,73.61386379267007,72.41283948784888,72.89381129040204,20.720052502268032,21.20102430482119,20
155.0,73.60000000000001,73.41696838587187,72.15243998636629,72.66025940222673,20.75670898364514,21.26452839950558,20
160.0,73.4,73.1691894649661,71.84247931647366,72.38917850813344,20.780010956832655,21.326710148492438,20
165.0,73.2,73.06430772398348,71.67799533581173,72.25467505436625,20.80963266961723,21.386312388171746,20
170.0,73.2,73.0071901559436,71.58423549998774,72.18306608845194,20.824124067491667,21.422954655955863,20
175.0,73.0,72.80719015594362,71.3195185329525,71.9576973166839,20.84949283925971,21.487671622991115,20
180.0,72.50000000000001,72.3420752234478,70.79801996343403,71.46007507103134,20.882000152416452,21.544055260013764,20
185.0,72.0,71.82927553527351,70.21163855579778,70.90072466644156,20.928550868831948,21.617636979475733,20
190.0,71.9,71.71150205800511,70.04154208708619,70.76481088170897,20.94669117629614,21.669959970918924,20
195.0,71.8,71.65175967987453,69.93392356881137,70.68270247018059,20.969057209693943,21.717836111063164,20
200.0,71.6,71.42125485417618,69.69101924387407,70.45287434272397,20.96838051145221,21.730235610302117,20
206.0,71.40000000000002,71.23407816814456,69.45042898304212,70.24762691643484,20.986451251709724,21.783649185102448,20
212.0,71.0,70.9226512138513,69.06697507973331,69.89710799672382,21.025543217127478,21.855676134117985,20
218.0,70.2,70.04400619108709,68.15600241420738,68.99736379928632,21.046642391800773,21.888003776879714,20
224.0,70.09999999999998,69.94400619108708,68.01503639163714,68.87714083810248,21.066865352984607,21.928969799449945,20
230.0,70.00000000000001,69.87679347519044,67.91796920373473,68.79699272695068,21.079800748239762,21.95882427145571,20
236.0,69.9,69.77679347519044,67.78031117806191,68.66875536803829,21.108038107152154,21.996482297128537,20
240.0,69.7,69.59839328374336,67.59014025916491,68.49766729743048,21.10072598631288,22.00825302457845,20
250.0,69.5,69.40863600889763,67.36573037433135,68.27953825040238,21.12909775849525,22.04290563456628,20
258.0,69.3,69.18338985789765,67.1073819124951,68.03503595158564,21.14835390631201,22.07600794540255,20
265.0,68.99999999999999,68.88338985789764,66.81796955371733,67.7503355239003,21.133054333997336,22.065420304180307,20
272.0,68.7,68.59390710627184,66.51244218902444,67.43752091115608,21.156386195115758,22.081464917247402,20
280.0,68.3,68.27024522445205,66.18415227433756,67.1024062096793,21.167839014772753,22.08609295011449,20
290.0,68.0,67.93632274646012,65.86073927772524,66.7796866430599,21.156636103400217,22.075583468734877,20
300.0,67.59999999999998,67.58705341747802,65.53916609341884,66.43131092657812,21.155742490899897,22.047887324059175,20
307.0,67.2,67.21704661258194,65.2090838627277,66.06959900487978,21.147447607702162,22.007962749854244,20
315.0,66.8,66.8718933299562,64.91549535509611,65.74288668053418,21.12900664942201,21.95639797486008,20
325.0,66.40000000000002,66.51214226462506,64.63978602159612,65.4157283148746,21.096413949750456,21.872356243028932,20
335.0,66.0,66.16217291067022,64.38086226839945,65.11588825769853,21.046284652971693,21.781310642270768,20
345.0,65.6,65.81201720024015,64.08338890325459,64.81748825113267,20.994528949107476,21.728628296985562,20
355.0,65.2,65.41042612699843,63.56470213311131,64.42942634494555,20.980999782052876,21.84572399388712,20
365.0,64.7,64.8716599573185,62.52263192135537,63.78701373982719,21.08464621749131,22.34902803596313,20
375.0,64.2,64.16358112013381,61.050954270843135,62.89650045302689,21.267080667106924,23.112626849290677,20
387.0,63.7,63.45350368373357,59.779881962467,62.00249393447481,21.45100974925876,23.67362172126657,20
400.0,63.2,62.83158991731638,58.93750494975042,61.27269361272171,21.55889630459467,23.89408496756596,20
412.0,62.7,62.35420098157297,58.42316294229987,60.742447896108516,21.611753085464457,23.931038039273105,20
425.0,62.500000000000014,62.10856566346746,58.19890072177991,60.46413118524502,21.644434478222436,23.909664941687552,20
437.0,62.60000000000001,62.17620635328102,58.319382918847225,60.51873280599891,21.65747354728211,23.856823434433792,20
450.0,63.0,62.6307333476157,58.81367518369947,60.95948218189098,21.671251165724726,23.81705816391623,20
462.0,63.8,63.38663707404652,59.59512588289614,61.70468438885939,21.681952685187127,23.791511191150377,20
475.0,64.7,64.263879826234,60.51288708951613,62.56866501398768,21.69521481224632,23.750992736717876,20
487.0,65.6,65.16549215046408,61.42335023277636,63.45967656929143,21.705815581172644,23.742141917687718,20
500.0,66.3,65.91345615850824,62.19575415705086,64.21743587223632,21.696020286271917,23.717702001457383,20
515.0,66.9,66.49492996251239,62.78665150117652,64.80346677799282,21.691463184519563,23.708278461335865,20
530.0,67.3,66.85619603150404,63.15487556468216,65.18084860884368,21.675347422660366,23.701320466821883,20
545.0,67.50000000000001,66.97714703994465,63.28292045774121,65.32115778385814,21.655989256086514,23.69422658220344,20
560.0,67.4,66.87882275420831,63.14750721028618,65.21621995410301,21.662602800105304,23.731315543922136,20
580.0,67.0,66.51642671330796,62.77118673629555,64.88790799581822,21.62851871748974,23.745239977012417,20
600.0,66.49999999999999,65.95948562824302,62.182431140264896,64.36440246207061,21.5950831661724,23.77705448797812,20
615.0,65.9,65.36009923734746,61.51329554192172,63.75033221674674,21.609767020600714,23.846803695425734,20
630.0,65.39999999999999,64.86776303643957,60.94757611821667,63.23226751684935,21.635495519590222,23.920186918222896,20
650.0,65.2,64.7382347284069,60.72017276179962,63.043526589510435,21.69470813889646,24.018061966607277,20
670.0,65.5,65.06806216565779,60.921560209317136,63.229120166995784,21.83894199866201,24.146501956340657,20
690.0,66.10000000000001,65.63071054815136,61.349908122833796,63.645508863256055,21.9852016848953,24.28080242531756,20
710.0,66.6,66.18145988201242,61.747170981559634,64.03035822027061,22.151101661741805,24.434288900452785,20
730.0,66.8,66.45220669219125,61.8862084676834,64.14672478708714,22.305481905104116,24.56599822450785,20
750.0,66.7,66.33748119623776,61.63787214170428,63.90959275346776,22.427888442769998,24.699609054533482,20
775.0,66.2,65.84062221087716,60.99094053264314,63.30905382203504,22.531568388842118,24.84968167823402,20
800.0,65.2,64.95323387499437,60.0113154885894,62.38657603647145,22.566657838522914,24.941918386404964,20
825.0,64.2,64.04830158117939,59.03176723787037,61.49489061989212,22.55341096128727,25.01653434330902,20
850.0,63.7,63.71042025717513,58.62988246445336,61.17014471665297,22.54027554052216,25.08053779272177,20
875.0,64.1,64.28573654535937,59.16305148189055,61.76911168590938,22.51662485944999,25.122685063468822,20
900.0,64.8,65.2788297884153,60.13537566834047,62.76282656902153,22.516003219393767,25.14345412007482,20
925.0,65.3,65.98916449980305,60.796805238097434,63.39966169612573,22.58950280367732,25.19235926170562,20
950.0,65.2,65.97196082402365,60.7377015796617,63.29653589498824,22.675424929035415,25.23425924436195,20
975.0,63.999999999999986,64.94262678425497,59.69462324427171,62.22076834417307,22.721858440081903,25.24800353998326,20
1000.0,61.7,62.69891965575799,57.51284639459331,60.016293214943275,22.682626440814715,25.18607326116468,20
1030.0,58.60000000000001,59.64753026943485,54.697527689764556,57.16690875009682,22.48062151933803,24.950002579670297,20
1060.0,58.8,60.04264514642479,55.605145999049654,58.01158959487269,22.0310555515521,24.437499147375135,20
1090.0,62.60000000000001,64.00286182941527,60.60508862573353,62.80446569554509,21.198396133870176,23.397773203681737,20
1120.0,65.5,66.96528518753877,65.09845717726445,67.01774725672884,19.94753793080993,21.866828010274318,20
1150.0,67.50000000000001,68.10296047120107,67.0322776605786,68.76369255162905,19.339267919572023,21.070682810622472,20
1180.0,68.60000000000001,68.45023637351257,66.35251661928685,68.21109185706415,20.23914451644842,22.09771975422572,20
1220.0,69.3,68.83443852318496,65.12151116703569,67.32192073509525,21.51251778808971,23.712927356149265,20
1250.0,69.8,69.20003884280528,64.13871081421864,66.76400864619066,22.436030196614624,25.061328028586644,20
1280.0,70.3,69.55906334344436,63.48987149732045,66.54701240108832,23.01205094235604,26.069191846123914,20
1320.0,70.6,69.75724991286518,62.9625955822699,66.42536916536478,23.331880747500392,26.79465433059528,20
1360.0,70.5,69.5045656444672,62.2707885923454,66.02538030674985,23.479185337717354,27.23377705212181,20
1400.0,69.6,68.56401568939471,61.168971342892135,65.02837763435106,23.53563805504365,27.395044346502573,20
1450.0,68.1,66.89465554453993,59.63106114583148,63.364107737071166,23.530547807468764,27.26359439870845,20
1500.0,66.9,65.48519447380046,58.565165688398665,61.99969283725741,23.48550163654305,26.920028785401797,20
1550.0,67.50000000000001,65.74632704021774,59.269308932741225,62.40539644416383,23.34093059605391,26.47701810747651,20
1600.0,68.60000000000001,66.62578723341657,60.39905755616486,63.33840517015291,23.287382063263664,26.22672967725171,20
1650.0,68.99999999999999,66.84102878625302,60.645322680255475,63.49407728602745,23.346951500225572,26.195706105997544,20
1700.0,68.5,66.38876613879083,60.0462831595879,62.93834246939083,23.450423669399996,26.342482979202927,20
1750.0,67.89999999999999,65.8026929859423,59.23572765028129,62.2841825251452,23.518510460797103,26.56696533566101,20
1800.0,67.3,65.39802484321645,58.89378761261695,61.922054332642546,23.4759705105739,26.5042372305995,20
1850.0,66.9,65.24573491136599,59.319103815224054,61.996210008720055,23.24952490264593,25.926631096141932,20
1900.0,66.9,65.44425631885038,60.10066672750243,62.493937586690734,22.950318732159644,25.34358959134795,20
1950.0,66.8,65.31956869976786,60.19896462535762,62.56812328747881,22.751445412289044,25.120604074410238,20
2000.0,65.7,64.12387320930198,59.13168602556938,61.54147819997411,22.58239500932787,24.992187183732597,20
2060.0,64.3,62.72173529196685,58.38077541912027,60.667171612025484,22.054563679941367,24.340959872846582,20
2120.0,64.8,63.03782026019498,59.89416369739028,62.149171886267496,20.88864837392748,23.143656562804694,20
2180.0,65.7,63.763477328957975,61.570948275276834,64.05542762535988,19.708049703598093,22.19252905368114,20
2240.0,65.9,63.83176910193467,62.027730966055444,64.75910040493424,19.072668697000424,21.804038135879225,20
2300.0,65.09999999999998,63.178042745354716,61.16246290316323,64.06075851578184,19.117284229572874,22.015579842191485,20
2360.0,63.999999999999986,62.301681836724626,59.70441288067639,62.74885853601633,19.552823300708297,22.59726895604824,20
2400.0,63.999999999999986,62.214328052304225,59.412822598804354,62.53664952351129,19.67767852879294,22.80150545349987,20
2500.0,63.8,61.67774961275518,58.674355652545415,61.88490177292344,19.792847839831737,23.003393960209763,20
2580.0,63.2,60.69515577307696,57.09606200418817,60.46819995082663,20.226955822250332,23.599093768888793,20
2650.0,64.4,61.53436083538524,57.49053694999402,61.0047236532142,20.529637182171044,24.04382388539122,20
2720.0,66.6,63.710458137798895,59.321721920955895,62.966248622752104,20.74420951504679,24.388736216843,20
2800.0,67.7,64.79126979587527,59.47515202292608,63.39281547628933,21.398454319585937,25.316117772949184,20
2900.0,68.1,65.20521979115989,58.93073889752968,63.175903669532175,22.029316121627716,26.274480893630212,20
3000.0,69.8,67.18384691858417,59.9916080027497,64.35876055971734,22.825086358866827,27.192238915834466,20
3070.0,70.2,67.78476332918636,59.73315865855726,64.25217504602844,23.53258828315792,28.051604670629104,20
3150.0,69.2,66.95388375819543,58.5028419138702,63.12888762479875,23.82499613339668,28.451041844325232,20
3250.0,68.4,66.2435748516502,57.6519990231473,62.193191712382585,24.05038313926761,28.591575828502897,20
3350.0,67.2,65.32468482185881,56.34214401415589,60.84554071887196,24.47914410298685,28.982540807702918,20
3450.0,66.7,65.43466011721873,56.404118601381,60.79523154555268,24.639428571666045,29.030541515837726,20
3550.0,67.7,66.85487701222127,58.15132351555714,62.30896576463404,24.545911247587227,28.703553496664128,20
3650.0,67.4,66.60435347570926,58.477622660534124,62.3233494311162,24.28100404459306,28.126730815175137,20
3750.0,68.1,67.05969877454703,59.36367619186515,62.90850267529915,24.151196099247883,27.696022582681877,20
3870.0,68.99999999999999,67.82599384392927,60.44996920425676,63.852742796825794,23.973251047103474,27.376024639672508,20
4000.0,69.4,68.15955960554771,60.70702919287717,64.13500016358651,24.024559441961202,27.45253041267054,20
4120.0,69.4,68.1720622543517,60.291035784628875,63.93584819586836,24.23621405848334,27.881026469722826,20
