Freq "On Axis"
22.4 49.29113924050631
23.0 49.99113924050633
23.6 50.79113924050631
24.0 51.49113924050633
25.0 52.19113924050632
25.8 52.891139240506334
26.5 53.49113924050633
27.2 54.29113924050631
28.0 55.19113924050632
29.0 55.89113924050632
30.0 56.59113924050632
30.7 57.39113924050632
31.5 58.19113924050632
32.5 58.79113924050631
33.5 59.59113924050632
34.5 60.391139240506334
35.5 60.99113924050633
36.5 61.79113924050631
37.5 62.39113924050632
38.7 63.09113924050632
40.0 63.79113924050631
41.2 64.3911392405063
42.5 65.09113924050632
43.7 65.79113924050631
45.0 66.59113924050632
46.2 67.89113924050633
47.5 68.79113924050633
48.7 68.89113924050632
50.0 68.89113924050632
51.5 69.49113924050631
53.0 70.19113924050632
54.5 70.69113924050632
56.0 71.09113924050632
58.0 71.59113924050632
60.0 71.99113924050631
61.5 72.49113924050631
63.0 72.9911392405063
65.0 73.39113924050632
67.0 73.99113924050633
69.0 74.3911392405063
71.0 74.69113924050632
73.0 75.19113924050632
75.0 75.69113924050632
77.5 76.09113924050632
80.0 76.59113924050632
82.5 76.59113924050632
85.0 76.99113924050631
87.5 77.49113924050631
90.0 77.49113924050631
92.5 77.69113924050632
95.0 77.29113924050633
97.5 77.59113924050632
100.0 77.9911392405063
103.0 78.29113924050631
106.0 78.29113924050631
109.0 78.29113924050631
112.0 78.49113924050631
115.0 78.69113924050632
118.0 78.79113924050633
122.0 78.59113924050632
125.0 78.29113924050631
128.0 78.09113924050632
132.0 77.69113924050632
136.0 77.09113924050632
140.0 76.8911392405063
145.0 76.8911392405063
150.0 76.69113924050632
155.0 76.49113924050633
160.0 76.29113924050633
165.0 76.09113924050632
170.0 76.09113924050632
175.0 75.89113924050632
180.0 75.39113924050633
185.0 74.89113924050632
190.0 74.79113924050633
195.0 74.69113924050632
200.0 74.49113924050631
206.0 74.29113924050634
212.0 73.89113924050632
218.0 73.09113924050632
224.0 72.9911392405063
230.0 72.89113924050633
236.0 72.79113924050633
240.0 72.59113924050632
250.0 72.39113924050632
258.0 72.19113924050632
265.0 71.8911392405063
272.0 71.59113924050632
280.0 71.19113924050632
290.0 70.89113924050632
300.0 70.4911392405063
307.0 70.09113924050632
315.0 69.69113924050632
325.0 69.29113924050634
335.0 68.89113924050632
345.0 68.49113924050631
355.0 68.09113924050632
365.0 67.59113924050632
375.0 67.09113924050632
387.0 66.59113924050632
400.0 66.09113924050632
412.0 65.59113924050632
425.0 65.39113924050633
437.0 65.49113924050633
450.0 65.89113924050632
462.0 66.69113924050632
475.0 67.59113924050632
487.0 68.49113924050631
500.0 69.19113924050632
515.0 69.79113924050633
530.0 70.19113924050632
545.0 70.39113924050633
560.0 70.29113924050633
580.0 69.89113924050632
600.0 69.3911392405063
615.0 68.79113924050633
630.0 68.29113924050631
650.0 68.09113924050632
670.0 68.39113924050632
690.0 68.99113924050633
710.0 69.49113924050631
730.0 69.69113924050632
750.0 69.59113924050632
775.0 69.09113924050632
800.0 68.09113924050632
825.0 67.09113924050632
850.0 66.59113924050632
875.0 66.99113924050631
900.0 67.69113924050632
925.0 68.19113924050632
950.0 68.09113924050632
975.0 66.8911392405063
1000.0 64.59113924050632
1030.0 61.49113924050633
1060.0 61.69113924050632
1090.0 65.49113924050633
1120.0 68.39113924050632
1150.0 70.39113924050633
1180.0 71.49113924050633
1220.0 72.19113924050632
1250.0 72.69113924050632
1280.0 73.19113924050632
1320.0 73.49113924050631
1360.0 73.39113924050632
1400.0 72.49113924050631
1450.0 70.99113924050631
1500.0 69.79113924050633
1550.0 70.39113924050633
1600.0 71.49113924050633
1650.0 71.8911392405063
1700.0 71.39113924050632
1750.0 70.79113924050631
1800.0 70.19113924050632
1850.0 69.79113924050633
1900.0 69.79113924050633
1950.0 69.69113924050632
2000.0 68.59113924050632
2060.0 67.19113924050632
2120.0 67.69113924050632
2180.0 68.59113924050632
2240.0 68.79113924050633
2300.0 67.9911392405063
2360.0 66.8911392405063
2400.0 66.8911392405063
2500.0 66.69113924050632
2580.0 66.09113924050632
2650.0 67.29113924050633
2720.0 69.49113924050631
2800.0 70.59113924050632
2900.0 70.99113924050631
3000.0 72.69113924050632
3070.0 73.09113924050632
3150.0 72.09113924050632
3250.0 71.29113924050633
3350.0 70.09113924050632
3450.0 69.59113924050632
3550.0 70.59113924050632
3650.0 70.29113924050633
3750.0 70.99113924050631
3870.0 71.8911392405063
4000.0 72.29113924050633
4120.0 72.29113924050633
4250.0 72.9911392405063
4370.0 72.19113924050632
4500.0 70.99113924050631
4620.0 71.49113924050633
4750.0 74.09113924050632
4870.0 74.89113924050632
5000.0 74.09113924050632
5150.0 71.99113924050631
5300.0 69.89113924050632
5450.0 71.09113924050632
5600.0 72.59113924050632
5800.0 71.19113924050632
6000.0 69.19113924050632
6150.0 68.99113924050633
6300.0 72.49113924050631
6500.0 74.79113924050633
6700.0 74.49113924050631
6900.0 74.19113924050632
7100.0 74.69113924050632
7300.0 74.99113924050631
7500.0 73.39113924050632
7750.0 73.59113924050632
8000.0 73.29113924050631
8250.0 72.49113924050631
8500.0 72.19113924050632
8750.0 71.8911392405063
9000.0 72.19113924050632
9250.0 72.39113924050632
9500.0 72.39113924050632
9750.0 73.19113924050632
10000.0 73.59113924050632
10300.0 73.89113924050632
10600.0 75.09113924050632
10900.0 73.99113924050633
11200.0 73.79113924050633
11500.0 75.39113924050633
11800.0 75.39113924050633
12200.0 73.19113924050632
12500.0 74.69113924050632
12800.0 73.69113924050632
13200.0 72.19113924050632
13600.0 71.69113924050632
14000.0 72.09113924050632
14500.0 72.69113924050632
15000.0 70.79113924050631
15500.0 72.09113924050632
16000.0 71.39113924050632
16500.0 71.59113924050632
17000.0 69.09113924050632
17500.0 69.49113924050631
18000.0 70.69113924050632
18500.0 73.79113924050633
19000.0 75.29113924050633
19500.0 75.09113924050632
