Freq "Sound Power"
20.5078 77.0864187633451
21.9727 78.50289456950755
23.4375 78.5450947437981
24.9023 79.53634438118186
26.3672 80.20477743426054
27.832 81.423714460074
29.2969 82.05492527322616
30.7617 82.86235833246627
32.2266 83.47327785051675
33.6914 84.08178063128904
35.1562 84.73230509940191
36.6211 85.41398526620014
38.0859 85.89180979889673
39.5508 86.389339317304
41.0156 86.82940287714585
42.4805 87.28387411763832
43.9453 87.59789093402411
45.4102 87.96816730887399
46.875 88.43622538387561
48.3398 88.68075933764054
51.2695 89.3165159065438
52.7344 89.57027497937368
54.1992 89.76104896401833
55.6641 89.920783207768
58.5938 90.25754338113978
60.0586 90.3740482636796
62.9883 90.45542630243025
64.4531 90.59965415176123
67.3828 90.86551969478789
68.8477 90.90010712735824
71.7773 90.88366571547289
74.707 90.82462831382
77.6367 90.73869120413697
79.1016 90.64922075779319
82.0312 90.48857990245581
84.9609 90.32562555233353
87.8906 90.49831265950687
90.8203 90.79977208915645
95.2148 90.49189788502723
98.1445 90.28067303663556
101.074 90.07468229969217
105.469 89.86233946010998
108.398 89.77561531902369
112.793 89.26888298559307
117.188 88.79791231316025
120.117 89.23891999035689
124.512 89.67160797889994
128.906 89.4538337059291
133.301 89.20626213460076
139.16 88.64034874817415
143.555 88.29837327162048
147.949 88.8191315669075
153.809 88.68110532416932
159.668 88.32608571734798
165.527 87.77143568276222
171.387 88.65514464357013
177.246 88.32860864619747
183.105 88.04300722716596
188.965 88.17581463361645
196.289 87.72212441081642
203.613 87.16123082523549
210.938 87.33804507341851
218.262 87.14131450743841
225.586 87.05446477855041
232.91 86.38017407987954
241.699 86.8152214540516
250.488 86.62951678285884
259.277 86.69519190122351
268.066 87.95128135198709
276.855 86.70089578552486
287.109 86.20813900846551
297.363 86.98964699513272
307.617 87.2714064565339
319.336 86.65608685921002
329.59 86.68412258048247
341.309 85.65945875806024
353.027 85.4245252551433
366.211 85.42210230535026
379.395 85.4968876224501
392.578 84.9093240152399
405.762 84.97517735960712
420.41 83.97510578216982
435.059 84.27070654056882
451.172 83.74009384708124
465.82 84.28760319530987
483.398 85.61668090870796
499.512 84.41708919263439
517.09 84.99894950073092
536.133 84.57429469267748
555.176 84.25686993030489
574.219 85.77833698955756
594.727 85.13236921801624
615.234 84.6826801793142
637.207 84.68962409061399
659.18 84.6927915028486
682.617 84.57422558768498
707.52 84.74705030870525
732.422 85.25297634260508
757.324 85.21544860037102
785.156 85.09131977717486
811.523 85.53630083995654
840.82 84.66699215872515
870.117 85.00760261377985
900.879 84.24577176316957
933.105 84.77273176408525
965.332 84.8207385794747
1000.49 84.5037804828599
1035.64 84.02824498056489
1072.27 84.13934377975517
1108.89 83.84771365643334
1148.44 83.77094493582328
1189.45 83.05921396227785
1230.47 82.53735991462986
1274.41 82.02839210821554
1319.82 81.96166590594262
1366.7 82.72502141316127
1413.57 82.4237871162284
1463.38 81.92827245168101
1516.11 81.35455420070971
1568.85 80.88667917865779
1624.51 81.12163450931209
1681.64 81.523196328875
1741.7 81.57507103531579
1803.22 81.87748691883897
1866.21 81.96926157581547
1932.13 81.94766774626981
1999.51 82.30297199825317
2069.82 82.9555013807283
2143.07 83.29096297654849
2219.24 83.23860345644349
2296.88 82.8748801982406
2378.91 82.7860203351506
2462.4 82.16672184502146
2548.83 81.88956240127654
2639.65 81.96920885167268
2731.93 81.79398996918296
2828.61 81.70531147147408
2928.22 81.2560127593672
3030.76 81.26580933726905
3137.7 81.34093634001842
3249.02 81.1247043385653
3363.28 81.25366033694677
3481.93 81.24198405125618
3604.98 81.38834753973194
3732.42 81.11016333322637
3864.26 81.08241792957367
4000.49 80.82549136593704
4141.11 80.73972671710864
4287.6 80.58641577235991
4438.48 80.35842795490511
4595.21 80.23356203187501
4756.35 80.37867981567119
4924.8 80.13802244483236
5097.66 80.51034669399044
5277.83 80.54741595259702
5463.87 80.45790582965786
5657.23 80.70307532779339
5856.45 80.47995269989421
6062.99 80.41250959896196
6276.86 80.44997029867439
6498.05 80.49334061213438
6726.56 80.59615456172664
6963.87 80.68483619325805
7209.96 80.71967452833009
7464.84 80.7582262555067
7727.05 80.77231782227202
7999.51 80.74661646921841
8282.23 80.76447707593816
8573.73 80.78583753791322
8876.95 80.38030381233342
9188.96 79.4300316894768
9514.16 78.86149166811634
9849.61 78.5858814781405
10196.8 77.99336647725355
10555.7 76.96875528396853
10927.7 78.24286016901996
11313.0 79.67974245058062
11712.9 80.07471517059143
12126.0 79.87406478810165
12553.7 79.9065893728872
12996.1 79.95946227106279
13454.6 80.10591579815275
13929.2 80.54695486873291
14419.9 80.96965952279945
14928.2 81.64605725916601
15455.6 81.42802319199814
16000.5 80.98908057458546
16564.5 81.16614083586498
17148.9 80.57756522608047
17752.4 80.67259848377147
18379.4 83.07302225054369
19026.9 85.42662058541659
19697.8 85.26575678870215
19999.5 85.44582329408414
