Freq "Side Wall Bounce"
22.4 49.109366791037345
23.0 49.4486878967697
23.6 50.41118415208025
24.0 50.182646847489636
25.0 49.35929007237313
25.8 48.42494858827162
26.5 47.6008694052601
27.2 47.68418758905331
28.0 48.56813431484035
29.0 49.220701881212406
30.0 50.034416850171326
30.7 50.89805014496487
31.5 51.39805014496484
32.5 52.09805014496486
33.5 52.99117509502737
34.5 53.63441685017132
35.5 54.372213721048595
36.5 55.252269593526265
37.5 56.17680320017618
38.7 57.212352015415505
40.0 58.45034056676337
41.2 59.609206111804085
42.5 60.44530504353962
43.7 61.425236672707115
45.0 62.48526041028545
46.2 63.60598456990742
47.5 64.96764513750081
48.7 66.3722137210486
50.0 67.57221372104858
51.5 68.55226959352626
53.0 69.4722137210486
54.5 70.23441685017131
56.0 70.93441685017132
58.0 71.5722137210486
60.0 72.0722137210486
61.5 72.4944829039731
63.0 72.83441685017131
65.0 73.09805014496487
67.0 73.37680320017618
69.0 73.67680320017618
71.0 74.02070188121242
73.0 74.32070188121241
75.0 74.7207018812124
77.5 75.08505351870532
80.0 75.40352961026535
82.5 75.72070188121242
85.0 76.04222438693196
87.5 76.28505351870533
90.0 76.50830075647112
92.5 76.67161637108524
95.0 76.81313953999233
97.5 76.93677387477598
100.0 76.93677387477598
103.0 76.9786299082622
106.0 76.92043663028578
109.0 76.78264684748963
112.0 76.56648157916895
115.0 76.21069317386166
118.0 75.83276641677857
122.0 75.55740017519265
125.0 75.36429849938318
128.0 75.17202552445372
132.0 75.009097646702
136.0 74.85690409354568
140.0 74.58255283808309
145.0 74.4508253968645
150.0 74.2906216214993
155.0 74.11039079867912
160.0 73.99062162149929
165.0 73.81039079867914
170.0 73.63631489701508
175.0 73.51039079867913
180.0 73.49062162149927
185.0 73.49062162149927
190.0 73.49986737502549
195.0 73.41219806381524
200.0 73.23217511486439
206.0 73.06890554090863
212.0 73.12783218957027
218.0 73.34340895570864
224.0 73.67550352616176
230.0 73.97604918841145
236.0 74.10524571781296
240.0 74.06890554090863
250.0 74.11001022169904
258.0 74.12509602033073
265.0 74.2439258831567
272.0 74.51350532758387
280.0 74.87082123630394
290.0 75.19783021785342
300.0 75.62766781417328
307.0 76.04917095218246
315.0 76.50171217257027
325.0 76.94876483651218
335.0 77.2487648365122
345.0 77.38322833102775
355.0 77.38322833102775
365.0 77.21703620089033
375.0 76.94446105034545
387.0 76.57554330581942
400.0 76.24861554577772
412.0 75.69201108580354
425.0 74.82846171655372
437.0 74.01222506277352
450.0 73.37025473289108
462.0 73.07907158330646
475.0 73.23758920389362
487.0 73.30059882192806
500.0 72.96338217055853
515.0 72.52669347763413
530.0 71.7627274511354
545.0 70.73601818299122
560.0 69.4572355085545
580.0 68.18905644567099
600.0 67.21447394323236
615.0 66.63122839165459
630.0 66.48437151634174
650.0 66.47877545829164
670.0 66.46349775179428
690.0 66.35288418432654
710.0 66.06672431355118
730.0 65.8972220737432
750.0 65.97761238283684
775.0 66.22927216021553
800.0 66.8052478112497
825.0 67.3198520106408
850.0 67.67050411220829
875.0 67.96290096195314
900.0 68.20042766277643
925.0 68.35244740888815
950.0 68.37588029136808
975.0 68.31319267183555
1000.0 68.3219885752764
1030.0 68.40501484476367
1060.0 68.46451915201705
1090.0 68.30977901860463
1120.0 68.03916646441044
1150.0 67.96506471385219
1180.0 68.33842839908986
1220.0 69.11637529227886
1250.0 70.05559647534344
1280.0 70.69384972565655
1320.0 71.06508588040944
1360.0 71.16677564582466
1400.0 70.97091234173253
1450.0 70.57765158835493
1500.0 70.03355161200366
1550.0 69.41672417152809
1600.0 68.69507787785088
1650.0 68.11309674532951
1700.0 67.61039811128224
1750.0 67.19880552035663
1800.0 67.01411302138061
1850.0 66.88121532490511
1900.0 66.67927369329591
1950.0 66.19433175281752
2000.0 65.50676508913641
2060.0 64.78700328294873
2120.0 64.63904081633119
2180.0 64.69919271917152
2240.0 64.77590874152206
2300.0 64.6637154407201
2360.0 64.31083361540003
2400.0 63.784186338482115
2500.0 63.26820900944519
2580.0 62.906055170974966
2650.0 62.53881735336306
2720.0 62.487243166840116
2800.0 62.713899534106886
2900.0 62.80373797231489
3000.0 62.82417988164488
3070.0 63.18418842246969
3150.0 63.48596423677186
3250.0 63.81622252934076
3350.0 63.948941721176055
3450.0 63.36968919487657
3550.0 62.75058312502581
3650.0 62.36902624271913
3750.0 61.96065539999242
3870.0 61.700100417093296
4000.0 61.56005534587355
4120.0 61.97299223029769
4250.0 63.22461709285811
4370.0 64.36377803090424
4500.0 64.89296243430746
4620.0 64.78586168866376
4750.0 64.51018748432259
4870.0 64.38219965070617
5000.0 64.25396033731523
5150.0 63.89264090609541
5300.0 63.46630367432488
5450.0 63.09623151757452
5600.0 62.98122280010516
5800.0 63.240392715033295
6000.0 63.45047798309312
6150.0 63.376875111068244
6300.0 63.582630276765016
6500.0 64.09344571605855
6700.0 64.27159287511142
6900.0 64.53397091263061
7100.0 64.61758600738744
7300.0 64.0608431752026
7500.0 63.688224072448236
7750.0 63.92252894176583
8000.0 64.1633269465196
8250.0 64.77320461675862
8500.0 65.08814244313277
8750.0 65.00276417383336
9000.0 64.35503836111263
9250.0 63.185262733912595
9500.0 61.591414875903226
9750.0 60.23093886119729
10000.0 59.48747859807277
10300.0 59.569679818064756
10600.0 60.38110333131263
10900.0 60.848622811050475
11200.0 61.2360083563501
11500.0 61.59359049297868
11800.0 61.64241031813138
12200.0 61.93499454054813
12500.0 62.20478125493062
12800.0 62.34073908815877
13200.0 62.49272882893689
13600.0 62.47079807298255
14000.0 62.186211059804506
14500.0 61.47894982647982
15000.0 60.52451742154044
15500.0 59.6877788687721
16000.0 58.863268316846145
16500.0 58.8434769293941
17000.0 59.036454801032946
17500.0 59.15422423439472
18000.0 59.02608864624281
18500.0 58.26097025671008
19000.0 57.309592824785696
19500.0 56.37671202876787
