Freq "Floor Bounce"
20.5078 53.315971872193984
21.9727 56.09490924660028
23.4375 56.15631161172155
24.9023 58.2985692953211
26.3672 59.83360410952007
27.832 61.49833374146097
29.2969 63.0836607412072
30.7617 65.37536654868828
32.2266 66.97171694861268
33.6914 68.38065294397659
35.1562 70.2458840252684
36.6211 71.40947492096399
38.0859 73.06737874902197
39.5508 74.15169572432274
41.0156 75.27462722117447
42.4805 76.38340083533718
43.9453 77.18688583749056
45.4102 77.80675731755677
46.875 78.50879909392941
48.3398 79.10427772346097
51.2695 80.07715682250641
52.7344 80.36865186956906
54.1992 80.5956092594212
55.6641 80.88251146787593
58.5938 81.25115526858066
60.0586 81.40683708642209
62.9883 81.69901908799602
64.4531 81.86633380713658
67.3828 82.07212063895648
68.8477 82.08701948794794
71.7773 82.17165404839949
74.707 82.3013650814712
77.6367 82.30310548539605
79.1016 82.25680652842668
82.0312 82.1790623892776
84.9609 82.19132206313898
87.8906 82.37465394583262
90.8203 82.36328880972955
95.2148 82.23700806454038
98.1445 82.14400430906201
101.074 81.98631947633423
105.469 81.94173729779799
108.398 81.75838539975118
112.793 81.53961173180505
117.188 81.58760202071406
120.117 81.55343124199153
124.512 81.30502376621567
128.906 81.25203708788504
133.301 81.1809415758101
139.16 80.82049298403346
143.555 80.73280507216575
147.949 80.82120528778464
153.809 80.72652438380379
159.668 80.26182949610903
165.527 79.89378620035808
171.387 79.9068536033337
177.246 79.73637078252729
183.105 79.72773949915855
188.965 79.71296019704934
196.289 79.38688850311277
203.613 79.62324699717887
210.938 79.86555918427574
218.262 79.6429712943409
225.586 79.5989644808474
232.91 79.8845824556612
241.699 79.65025303468323
250.488 79.85918424482426
259.277 80.6052260499151
268.066 80.3690640870879
276.855 80.00873589540383
287.109 80.41855126361774
297.363 80.77882282824501
307.617 80.5352087340442
319.336 80.40088224966976
329.59 79.83487033952852
341.309 79.89152158759029
353.027 80.3223715004958
366.211 79.94282090641158
379.395 79.39262517286498
392.578 78.66578833655417
405.762 79.35784849350861
420.41 79.81301785804281
435.059 79.03041136902975
451.172 78.25934314915193
465.82 78.08414823295065
483.398 78.6866956914557
499.512 77.8277751873972
517.09 77.43770131679014
536.133 76.80111847196684
555.176 75.83811708597484
574.219 75.49124278248814
594.727 75.40727081299157
615.234 74.68700847338926
637.207 76.94420982537667
659.18 77.52936911772656
682.617 75.15115363169065
707.52 74.5495723212314
732.422 74.62880277498789
757.324 74.16650460645937
785.156 74.29622509763566
811.523 74.79667247193504
840.82 75.75795954883856
870.117 77.06888564154025
900.879 76.81025067842675
933.105 77.97237327218832
965.332 77.44045667367027
1000.49 78.46109620520726
1035.64 77.49461865253656
1072.27 78.2894923195922
1108.89 78.55610906097345
1148.44 78.46803906333292
1189.45 78.838416494921
1230.47 78.56855310094332
1274.41 78.70498635193417
1319.82 78.52844868261906
1366.7 78.18449696282816
1413.57 78.22872739592005
1463.38 78.32082300517857
1516.11 78.17710346307183
1568.85 77.9614511454712
1624.51 77.52309855948012
1681.64 77.22541903663077
1741.7 77.09048360787222
1803.22 76.9405249252304
1866.21 76.37918227726155
1932.13 75.9023615412802
1999.51 75.58644672708287
2069.82 75.40729366541896
2143.07 74.6567453716668
2219.24 74.57562535031173
2296.88 74.41671824932305
2378.91 72.82602064776222
2462.4 72.42412122419668
2548.83 73.3716323598893
2639.65 71.91654253413338
2731.93 71.74590051784233
2828.61 71.63260284594205
2928.22 70.28153822683623
3030.76 69.92661323436549
3137.7 70.63041702480785
3249.02 70.13668305681496
3363.28 70.23909529320073
3481.93 70.87195382436516
3604.98 72.1698173075208
3732.42 71.17554437200701
3864.26 71.15806116922981
4000.49 70.96900831357434
4141.11 70.85142978046332
4287.6 72.99832293187654
4438.48 74.31318016980535
4595.21 74.673228140198
4756.35 74.80820012862031
4924.8 74.41903149325157
5097.66 74.72725836981715
5277.83 74.80540142612823
5463.87 75.39620179070042
5657.23 75.296015453188
5856.45 75.13265669712831
6062.99 74.60983539167741
6276.86 73.9307040006471
6498.05 73.47746405656164
6726.56 72.90870691863299
6963.87 74.41120295606727
7209.96 76.31036891016014
7464.84 77.80304421100608
7727.05 78.55039710296606
7999.51 79.31963485127476
8282.23 79.92809446906581
8573.73 80.22310110307649
8876.95 80.18978906910213
9188.96 80.0001681851422
9514.16 79.76041623338237
9849.61 79.74076047487073
10196.8 79.67261006371784
10555.7 79.79154586161502
10927.7 79.838233789199
11313.0 79.69056579234034
11712.9 79.49356984546174
12126.0 79.61839445718631
12553.7 79.43642493112159
12996.1 79.08627282183109
13454.6 79.14430176138134
13929.2 79.14663075280343
14419.9 79.04309520659194
14928.2 78.84867460182588
15455.6 78.92579500274337
16000.5 78.51927712650563
16564.5 77.82792800676464
17148.9 77.29133846634913
17752.4 76.56424461038463
18379.4 75.49313166499346
19026.9 74.12931415249943
19697.8 72.64862001751855
19999.5 71.75360713207158
