Freq "Total Early Reflection"
20.5078 54.597922084284704
21.9727 56.47061459370548
23.4375 56.96403011148686
24.9023 59.54716989283577
26.3672 60.63137768871459
27.832 62.53774577019513
29.2969 64.11521733773404
30.7617 66.06361045632349
32.2266 67.56284735688476
33.6914 68.91711565429539
35.1562 70.539792351109
36.6211 71.77338029090704
38.0859 73.28954816638648
39.5508 74.24958780585163
41.0156 75.32933583797714
42.4805 76.37435594477236
43.9453 77.11689185750365
45.4102 77.74408467405371
46.875 78.4054828925276
48.3398 78.94380220440742
51.2695 79.80378247707557
52.7344 80.0627678657605
54.1992 80.28816224477991
55.6641 80.5388016513185
58.5938 80.85464147093082
60.0586 80.97713841178256
62.9883 81.21574702117064
64.4531 81.3678697573238
67.3828 81.50939168114891
68.8477 81.50589105391411
71.7773 81.55758268540073
74.707 81.6479183393985
77.6367 81.6544229970497
79.1016 81.60183920414602
82.0312 81.46934605627143
84.9609 81.43894469024735
87.8906 81.61663560749491
90.8203 81.59523055687116
95.2148 81.41151744560152
98.1445 81.29774384929948
101.074 81.1435636856918
105.469 81.06628224945447
108.398 80.90331062947635
112.793 80.62531857488977
117.188 80.63757072602773
120.117 80.62764789957298
124.512 80.37806268318394
128.906 80.2852267742113
133.301 80.1562337623529
139.16 79.80853644221821
143.555 79.70997814065078
147.949 79.78235747082485
153.809 79.64898205480327
159.668 79.22264159142793
165.527 78.86823401579717
171.387 78.73880412193915
177.246 78.51741437790038
183.105 78.40086676065239
188.965 78.38837598597996
196.289 78.13304528798557
203.613 78.10810306935458
210.938 78.24491462458323
218.262 78.11067887888024
225.586 78.15205088481028
232.91 78.24034397917694
241.699 77.96732923446038
250.488 78.07950074176644
259.277 78.78019332555186
268.066 78.72873865149498
276.855 78.32200279585932
287.109 78.57035351253877
297.363 79.0636342238408
307.617 79.11173891949815
319.336 79.20996109097254
329.59 78.91884398044884
341.309 78.87712090733832
353.027 79.0962201189356
366.211 79.25564254067919
379.395 78.68246101269057
392.578 78.12107601604004
405.762 78.16404619602133
420.41 79.11630072262321
435.059 78.64310198302219
451.172 78.37858233328777
465.82 78.17760410414368
483.398 78.64238328251693
499.512 78.23597626293477
517.09 77.99722958806956
536.133 77.96271981068253
555.176 77.6247049613576
574.219 77.27749072028146
594.727 77.45444987679093
615.234 76.85344790122275
637.207 76.72580601060221
659.18 77.11800698950233
682.617 76.50118825343591
707.52 77.03159239983452
732.422 76.73397823071733
757.324 76.78368119125861
785.156 76.70591759900537
811.523 76.74689009564159
840.82 76.8488779668081
870.117 76.8137931908629
900.879 76.68472362386481
933.105 76.65182064816966
965.332 76.380824779954
1000.49 76.59235709795541
1035.64 76.51621169892543
1072.27 76.64920359240838
1108.89 76.64474972238142
1148.44 76.623070956833
1189.45 76.94895467701262
1230.47 76.73363964465086
1274.41 76.58845647107233
1319.82 76.6457368630025
1366.7 76.47255481436363
1413.57 76.69292330167559
1463.38 76.87855551655986
1516.11 76.32669886892764
1568.85 75.92349263830158
1624.51 75.94963695321196
1681.64 75.92617966480701
1741.7 75.56103078579326
1803.22 75.17902332907282
1866.21 74.97265023421124
1932.13 75.039165675213
1999.51 74.86787408875185
2069.82 74.69792982505501
2143.07 74.93674761985156
2219.24 75.12158619407974
2296.88 74.7571660220932
2378.91 74.95173512065537
2462.4 75.56150140896693
2548.83 75.36017693678336
2639.65 75.07276744787828
2731.93 75.09209599517456
2828.61 75.49373163467303
2928.22 75.08113457686346
3030.76 75.21651854195576
3137.7 75.62524114390158
3249.02 75.4471752811481
3363.28 75.86687822034983
3481.93 75.94650632278136
3604.98 76.17019166106492
3732.42 75.5274645579206
3864.26 75.12469330220762
4000.49 73.98850553636193
4141.11 74.34769768766351
4287.6 75.10417013307352
4438.48 75.71883298422823
4595.21 75.87424561660907
4756.35 75.9481983674045
4924.8 76.04585090262701
5097.66 75.9357509059659
5277.83 76.2980544602432
5463.87 76.60414190832263
5657.23 77.01492148800057
5856.45 77.43526162873971
6062.99 77.55273557800467
6276.86 77.72616094912095
6498.05 77.69901642166377
6726.56 77.79543737924871
6963.87 78.16171868336231
7209.96 78.44720068722745
7464.84 78.59990461274639
7727.05 78.72944665766913
7999.51 78.77528908245259
8282.23 78.62789226369706
8573.73 78.38651340075934
8876.95 77.85231395621764
9188.96 77.62516054276004
9514.16 77.42936830096353
9849.61 77.46924912034278
10196.8 77.4488361953361
10555.7 77.51139853278639
10927.7 77.45992622954364
11313.0 77.32181456579275
11712.9 77.10933639813996
12126.0 76.97566846601887
12553.7 76.86434408674015
12996.1 76.70248533535816
13454.6 76.66840564274904
13929.2 76.67111679303396
14419.9 76.63017511643227
14928.2 76.45009311952714
15455.6 76.42216687753837
16000.5 76.13016769632836
16564.5 75.53947182848984
17148.9 74.96817997218888
17752.4 74.33420448707446
18379.4 73.50442773694493
19026.9 72.52883813487497
19697.8 71.49102214561441
19999.5 71.15383362008498
