Freq,On Axis,Listening Window,Sound Power,Early Reflections,Early Reflections DI,Sound Power DI,DI offset
22.4,25.593670886075913,25.245068174301835,22.251907609109892,23.708153519321385,31.53691465498045,32.99316056519194,30
23.0,27.093670886075913,26.754956729320398,23.775559946456312,25.22583383055023,31.52912289877017,32.979396782864086,30
23.6,28.493670886075947,28.201292784750436,25.25208536533738,26.696473225397128,31.504819559353308,32.94920741941306,30
24.0,30.493670886075947,30.23113214389103,27.28879226675845,28.72112929621501,31.51000284767602,32.94233987713258,30
25.0,32.29367088607593,31.991171394849616,29.08940052200198,30.507033909209596,31.48413748564002,32.901770872847635,30
25.8,33.79367088607593,33.5225617541346,30.63690940731611,32.046056281691264,31.476505472443336,32.88565234681849,30
26.5,35.193670886075935,34.93986161909409,32.05638316320817,33.470824809300964,31.469036809793124,32.88347845588592,30
27.2,37.09367088607591,36.772893313019566,33.91830796900366,35.3160304111524,31.45686290186717,32.8545853440159,30
28.0,38.693670886075935,38.421787739201605,35.59846869106862,36.979601553620014,31.44218618558159,32.82331904813299,30
29.0,40.193670886075935,39.872527386236996,37.060132282549674,38.43746353439737,31.43506385183963,32.81239510368732,30
30.0,41.693670886075935,41.35499836808661,38.55544383024046,39.92335722860243,31.431641139484185,32.79955453784615,30
30.7,43.393670886075924,43.06509390594523,40.29374518076007,41.63944117194312,31.425652734002114,32.77134872518516,30
31.5,44.893670886075924,44.57297734906403,41.80520692183397,43.15072121451543,31.422256134548604,32.76777042723006,30
32.5,46.193670886075935,45.90449901180001,43.181105758807334,44.50798245743859,31.396516554361426,32.72339325299268,30
33.5,47.893670886075924,47.587495674837,44.886607981798804,46.2248556743706,31.3626400004664,32.7008876930382,30
34.5,49.393670886075924,49.10575569616448,46.3937743054686,47.714826132143244,31.390929564021235,32.71198139069588,30
35.5,50.693670886075935,50.47734693155924,47.78253114197658,49.092325522790915,31.385021408768324,32.69481578958266,30
36.5,52.29367088607593,51.9891449601722,49.33994215468694,50.63262464125786,31.356520318914335,32.64920280548526,30
37.5,53.693670886075935,53.407822319332965,50.770483727833735,52.06277979266069,31.345042526672273,32.63733859149923,30
38.7,54.99367088607592,54.761008282054235,52.10317099865627,53.38598134610346,31.37502693595077,32.65783728339797,30
40.0,56.393670886075924,56.09159813402671,53.49228937138365,54.76760290046052,31.323995233566194,32.59930876264306,30
41.2,57.59367088607593,57.36384978216073,54.76832302490776,56.036280194376744,31.327569587783984,32.59552675725297,30
42.5,58.79367088607593,58.56384978216073,55.99656987201645,57.24994729110499,31.313902491055742,32.56727991014428,30
43.7,59.99367088607592,59.74819916417535,57.19499426784195,58.442509132304025,31.305690031871322,32.5532048963334,30
45.0,61.09367088607591,60.84819916417534,58.30507902688383,59.55078266515427,31.297416499021068,32.54312013729151,30
46.2,62.193670886075935,61.96749125468979,59.42994739573824,60.65979912474663,31.307692129943163,32.53754385895155,30
47.5,63.193670886075935,62.96254739665021,60.45197705589594,61.67192296724798,31.29062442940223,32.51057034075427,30
48.7,64.19367088607594,63.96254739665021,61.493738592433516,62.6870401002987,31.275507296351506,32.46880880421669,30
50.0,65.19367088607594,64.93722516947467,62.4446921118638,63.652011193643304,31.28521397583137,32.49253305761087,30
51.5,66.09367088607591,65.83722516947466,63.36679374348694,64.57404699417881,31.26317817529585,32.47043142598773,30
53.0,66.89367088607592,66.68938693706535,64.23088382811285,65.42555827396345,31.263828663101904,32.4585031089525,30
54.5,67.69367088607594,67.48938693706536,65.04925496608845,66.2227793178247,31.26660761924066,32.44013197097691,30
56.0,68.49367088607595,68.25274857121657,65.82529870347672,66.98808946537102,31.264659105845553,32.42744986773985,30
58.0,69.19367088607594,68.99637652708763,66.61248963998608,67.77214933609865,31.224227190988984,32.38388688710155,30
60.0,69.99367088607592,69.73844071680323,67.35193160018962,68.50910142174367,31.22933929505956,32.38650911661361,30
61.5,70.69367088607594,70.46063340901851,68.08804464334885,69.24033428076012,31.22029912825839,32.37258876566966,30
63.0,71.29367088607593,71.12677602669552,68.77631858281349,69.91229597738202,31.214480049313508,32.350457443882036,30
65.0,71.99367088607593,71.80225389307328,69.44652281381359,70.59202299279151,31.210230900281772,32.3557310792597,30
67.0,72.59367088607593,72.36688341931263,70.05934098914524,71.18535795492394,31.181525464388685,32.30754243016739,30
69.0,73.09367088607593,72.91271038134339,70.616111376023,71.73161383370719,31.1810965476362,32.29659900532039,30
71.0,73.59367088607591,73.44164011573686,71.13647430081586,72.25934819417358,31.182291921563277,32.305165814921,30
73.0,74.09367088607593,73.89892075704515,71.6247507783894,72.73891204815894,31.16000870888621,32.27416997865575,30
75.0,74.49367088607593,74.34164011573687,72.07148484891628,73.1710926224096,31.170547493327263,32.27015526682058,30
77.5,74.89367088607592,74.70589527471533,72.44716264701825,73.54328650492725,31.16260876978808,32.258732627697086,30
80.0,75.19367088607594,75.02825447169117,72.76980504094044,73.85558391794255,31.172670553748617,32.25844943075073,30
82.5,75.49367088607593,75.32825447169115,73.09347501326653,74.17047278499926,31.15778168669189,32.234779458424626,30
85.0,75.79367088607593,75.62825447169116,73.40493750285833,74.47992837891795,31.148326092773218,32.22331696883283,30
87.5,76.09367088607591,75.91513354202861,73.7051555647675,74.77328772277647,31.14184581925214,32.20997797726112,30
90.0,76.29367088607593,76.18118686372921,73.9886298427314,75.04330320610437,31.13788365762484,32.19255702099781,30
92.5,76.59367088607593,76.4151335420286,74.23926240067173,75.28187959070858,31.133253951320015,32.175871141356865,30
95.0,76.79367088607593,76.66822512053118,74.51355198889557,75.5534525622915,31.11477255823968,32.154673131635604,30
97.5,77.09367088607594,76.90227286908352,74.74603095157038,75.7911446402952,31.111128228788317,32.15624191751314,30
100.0,77.29367088607593,77.1151335420286,74.99358023798773,76.02388267564028,31.09125086638832,32.12155330404087,30
103.0,77.49367088607592,77.36822512053115,75.23697396791341,76.25907832183744,31.109146798693715,32.131251152617736,30
106.0,77.69367088607594,77.59077859700086,75.46352917155747,76.46729619393595,31.123482403064912,32.127249425443395,30
109.0,77.89367088607592,77.77814031404586,75.66956486235166,76.67221439025016,31.105925923795695,32.10857545169419,30
112.0,78.09367088607593,77.97814031404586,75.89833060588164,76.89724016711244,31.080900146933416,32.07980970816422,30
115.0,78.29367088607593,78.17814031404585,76.09238544780796,77.07761553844439,31.100524775601457,32.08575486623789,30
118.0,78.39367088607592,78.30013157391026,76.2444002667095,77.22405080182115,31.076080772089114,32.05573130720076,30
122.0,78.59367088607591,78.47814031404585,76.44174366077407,77.41914829324152,31.058992020804325,32.03639665327178,30
125.0,78.69367088607594,78.61083654890406,76.57862024946573,77.54502413247191,31.065812416432152,32.03221629943833,30
128.0,78.79367088607593,78.70013157391027,76.68977622818922,77.64203665084884,31.058094923061432,32.01035534572105,30
132.0,78.89367088607592,78.81083654890406,76.79318075927316,77.74249050705545,31.068346041848613,32.01765578963091,30
136.0,78.99367088607593,78.86722957610225,76.86742514583048,77.81553013844756,31.05169943765469,31.999804430271766,30
140.0,78.99367088607593,78.89854334646436,76.92141277497187,77.86034580132677,31.038197545137592,31.977130571492495,30
145.0,78.99367088607593,78.94374005582867,76.94850247490272,77.88460793402756,31.059132121801113,31.995237580925945,30
150.0,78.99367088607593,78.94374005582867,76.95988997194236,77.88795209542918,31.055787960399485,31.98385008388631,30
155.0,78.99367088607593,78.90051867909862,76.9216403215185,77.84318493640367,31.05733374269495,31.97887835758013,30
160.0,78.89367088607592,78.85458476274468,76.86188546555132,77.78510141151575,31.069483351228925,31.992699297193354,30
165.0,78.89367088607592,78.7884770777224,76.77852704893755,77.71484274987199,31.073634327850414,32.00995002878486,30
170.0,78.79367088607593,78.66837127748398,76.64862762378326,77.58258480503461,31.08578647244937,32.01974365370073,30
175.0,78.69367088607594,78.60242383230866,76.52200976150323,77.47093007007201,31.131493762236644,32.08041407080543,30
180.0,78.59367088607591,78.47102467490436,76.34562222994036,77.3113976723086,31.159627002595755,32.125402444963996,30
185.0,78.49367088607595,78.34836811143326,76.15603380424116,77.15031495196244,31.198053159470817,32.1923343071921,30
190.0,78.29367088607593,78.23699535138881,75.95413968321391,76.99039433648365,31.246601014905167,32.2828556681749,30
195.0,78.19367088607594,78.10584604615549,75.72005290246682,76.80174938273824,31.304096663417255,32.38579314368867,30
200.0,78.19367088607594,77.97571423343135,75.4789759767407,76.61368710235874,31.362027131072608,32.49673825669065,30
206.0,78.09367088607593,77.87571423343134,75.23422827720405,76.44355844432347,31.432155789107867,32.641485956227285,30
212.0,78.09367088607593,77.82301134714206,74.97301646031006,76.2766576739853,31.54635367315676,32.84999488683199,30
218.0,77.99367088607593,77.72301134714205,74.69558184308906,76.10266560109953,31.620345746042517,33.02742950405299,30
224.0,77.99367088607593,77.68242973086882,74.42383366715289,75.94377618239206,31.738653548476762,33.25859606371593,30
230.0,77.89367088607592,77.58242973086882,74.08908019242499,75.73526695763748,31.847162773231346,33.49334953844384,30
236.0,77.89367088607592,77.47297063871648,73.76407162343843,75.54150591647208,31.9314647222444,33.70889901527805,30
240.0,77.69367088607594,77.32484384819465,73.39200840739994,75.29106113100933,32.03378271718532,33.932835440794705,30
250.0,77.49367088607592,77.07937642642348,72.9719361617238,74.98400100242735,32.09537542399613,34.107440264699676,30
258.0,77.29367088607593,76.78020166316398,72.51338013021727,74.62688895657456,32.15331270658942,34.26682153294671,30
265.0,76.99367088607593,76.48785666203327,72.10191441563346,74.2958662597983,32.191990402234964,34.38594224639981,30
272.0,76.89367088607592,76.38785666203326,71.92815340714172,74.18393514861184,32.20392151342142,34.45970325489154,30
280.0,76.79367088607593,76.340974007691,71.83735843233099,74.11628644670718,32.224687560983824,34.503615575360016,30
290.0,76.79367088607593,76.30696849094906,71.83622694879054,74.11436519940335,32.19260329154571,34.47074154215852,30
300.0,76.79367088607593,76.34864317054267,71.92048249306787,74.18101173770081,32.16763143284186,34.42816067747481,30
307.0,76.89367088607592,76.48121774629101,72.09177042568213,74.31812077123516,32.16309697505585,34.38944732060888,30
315.0,76.99367088607593,76.6458710244898,72.33306633664724,74.5219136890221,32.12395733546769,34.31280468784256,30
325.0,77.19367088607594,76.8236025732427,72.58590060850212,74.73124398451738,32.09235858872532,34.23770196474058,30
335.0,77.29367088607593,77.05617025754277,72.83424633907208,74.94860005823698,32.1075701993058,34.221923918470694,30
345.0,77.49367088607592,77.21104871036623,72.97776992467767,75.09137990100707,32.119668809359155,34.233278785688555,30
355.0,77.59367088607593,77.37680101611605,73.0419127079642,75.19135015253067,32.18545086358537,34.33488830815185,30
365.0,77.69367088607594,77.43395468818731,72.94899136675201,75.17167527761721,32.2622794105701,34.4849633214353,30
375.0,77.69367088607594,77.43498034360033,72.78298238293756,75.1016876265646,32.33329271703573,34.65199796066277,30
387.0,77.79367088607593,77.41779540077759,72.59758382382851,75.01530839947749,32.4024870013001,34.82021157694908,30
400.0,77.79367088607593,77.35585084623823,72.47789099626242,74.95218664085725,32.40366420538098,34.87795984997581,30
412.0,77.69367088607594,77.30572132703261,72.39971635142493,74.89338286998719,32.41233845704542,34.906004975607686,30
425.0,77.69367088607594,77.24210940655627,72.39963229459603,74.88723730664218,32.35487209991409,34.842477111960235,30
437.0,77.59367088607593,77.15608031028871,72.40734331982846,74.85958609555895,32.29649421472976,34.74873699046026,30
450.0,77.49367088607592,77.09137185794172,72.45216775804269,74.85165624757,32.23971561037172,34.63920409989903,30
462.0,77.39367088607592,76.99970060123009,72.51450504762367,74.85597403402718,32.143726567202904,34.48519555360642,30
475.0,77.29367088607593,76.91447212601572,72.57113933437,74.85717261069914,32.057299515316586,34.34333279164572,30
487.0,77.09367088607594,76.76889225478351,72.54422575069096,74.77898151695392,31.98991073782959,34.22466650409255,30
500.0,76.99367088607593,76.67895558408087,72.4889323095574,74.71217402398624,31.96678156009463,34.19002327452347,30
515.0,76.79367088607593,76.5127291197636,72.33358448403821,74.56066087654624,31.95206824321737,34.17914463572539,30
530.0,76.59367088607593,76.33009593602439,72.11143974593168,74.398509411319,31.931586524705395,34.218656190092716,30
545.0,76.39367088607592,76.10534891804757,71.78502762771447,74.16561887504984,31.939730042997724,34.3203212903331,30
560.0,76.29367088607593,75.96058287321726,71.48268474933785,73.98388939291989,31.97669348029737,34.47789812387941,30
580.0,76.09367088607591,75.72100613558054,71.16502530952552,73.80741024375358,31.913595891826958,34.55598082605502,30
600.0,75.99367088607595,75.51565245804899,70.90537478479196,73.71508701777171,31.800565440277282,34.61027767325703,30
615.0,75.79367088607593,75.32105811241583,70.66374278737581,73.65354657560034,31.667511536815482,34.65731532504002,30
630.0,75.69367088607594,75.07141777724632,70.32520908425094,73.5414356623668,31.52998211487953,34.74620869299538,30
650.0,75.59367088607593,74.95814654555252,69.87588026402791,73.30133348221766,31.656813063334866,35.08226628152461,30
670.0,75.49367088607593,74.83420204550296,69.20477802641237,72.79478655399406,32.039415491508905,35.62942401909059,30
690.0,75.39367088607592,74.78787754893486,68.54037021056594,72.22810806526793,32.559769483666926,36.24750733836892,30
710.0,75.29367088607593,74.7666954495877,67.99954507506358,71.77410746011124,32.99258798947646,36.76715037452412,30
730.0,75.19367088607594,74.59529825776336,67.50767701361512,71.36114387346343,33.23415438429993,37.08762124414824,30
750.0,75.09367088607593,74.43440744489526,67.11902574246243,71.04895289362078,33.38545455127448,37.31538170243283,30
775.0,75.09367088607593,74.20379178012061,66.81981276160141,70.81745122420682,33.38634055591379,37.3839790185192,30
800.0,74.99367088607592,73.92648656188837,66.71842150991272,70.69294584227579,33.23354071961258,37.20806505197565,30
825.0,74.99367088607592,73.83684733567398,66.9138842497736,70.80802032762949,33.02882700804449,36.92296308590038,30
850.0,74.99367088607592,74.05407318834986,67.22825576409238,71.05868158566274,32.99539160268712,36.82581742425748,30
875.0,74.99367088607592,74.33018186834457,67.24872973305268,71.1504905047238,33.17969136362076,37.08145213529188,30
900.0,74.99367088607592,74.45380291597725,66.8505235251811,70.92304512981507,33.530757786162184,37.603279390796146,30
925.0,75.09367088607593,74.29148628869397,66.24873812567189,70.45545672732106,33.83602956137291,38.04274816302208,30
950.0,75.19367088607594,74.03574743395288,65.94964933962639,70.00399828290558,34.03174915104729,38.08609809432649,30
975.0,75.29367088607593,73.95678099837598,66.29151805986571,69.98502761642544,33.971753381950535,37.66526293851027,30
1000.0,75.39367088607592,74.2605381617023,66.98266865033732,70.42711066506254,33.83342749663976,37.27786951136498,30
1030.0,75.59367088607593,74.74463314422896,67.4309090825257,70.92497378280956,33.8196593614194,37.313724061703255,30
1060.0,75.89367088607592,75.06468445281557,67.44698472323408,71.13884411750183,33.92584033531374,37.61769972958149,30
1090.0,76.19367088607594,75.14033417299541,67.57219051142098,71.27112480847731,33.8692093645181,37.568143661574425,30
1120.0,76.49367088607593,75.40594112153275,68.54417372463261,72.00753065182165,33.398410469711095,36.861767396900134,30
1150.0,76.79367088607593,76.40788598598009,70.4229382224543,73.71823794677621,32.689648039203874,35.98494776352578,30
1180.0,76.99367088607593,77.65329323092713,71.74309142065593,75.22340654064087,32.42988669028627,35.910201810271204,30
1220.0,77.19367088607594,77.47400306619265,70.67161292943565,74.59327964848559,32.88072341770706,36.802390136757,30
1250.0,77.29367088607593,76.42694732743433,68.71400563856285,73.05429994922423,33.372647378210104,37.71294168887148,30
1280.0,77.29367088607593,76.06163866619634,68.21507941682012,72.61783083071111,33.44380783548523,37.84655924937623,30
1320.0,77.19367088607594,76.53936736152552,68.81253227952614,73.09674900761551,33.44261835391001,37.72683508199938,30
1360.0,76.89367088607592,76.579309223381,68.59806622349352,72.82684740345476,33.75246181992624,37.981242999887485,30
1400.0,76.59367088607593,75.59206414526689,67.46588231205708,71.57930936014687,34.01275478512002,38.12618183320981,30
1450.0,76.09367088607591,74.46412658388677,67.04845127748615,70.91009351072951,33.55403307315726,37.415675306400615,30
1500.0,75.59367088607593,74.37458005658787,67.58448570284698,71.33447250918098,33.04010754740689,36.7900943537409,30
1550.0,75.19367088607594,74.54039179295532,66.9733239192689,70.95638123406953,33.584010558885794,37.56706787368641,30
1600.0,74.89367088607592,74.08859896151323,65.33677194970359,69.7389390006426,34.349659960870625,38.75182701180964,30
1650.0,74.69367088607594,73.38198402083371,63.951860053631535,68.73137324722286,34.65061077361085,39.43012396720218,30
1700.0,74.69367088607594,72.69660112782253,63.339502005401,68.3422397559615,34.35436137186103,39.35709912242153,30
1750.0,74.79367088607593,72.65147357856246,63.74761251057261,68.81023690180146,33.841236676761,38.90386106798985,30
1800.0,74.79367088607593,73.02113245653328,63.83925784053366,68.96131739521087,34.05981506132241,39.18187461599962,30
1850.0,74.89367088607592,73.01464625287078,63.24226549912791,68.46393748549194,34.550708767378836,39.772380753742866,30
1900.0,74.89367088607592,72.78760135780972,62.94036958749085,68.22288496621631,34.56471639159341,39.84723177031887,30
1950.0,74.79367088607593,72.4950722306495,62.849886709872635,68.18976750395576,34.305304726693734,39.64518552077686,30
2000.0,74.79367088607593,72.2056412961472,62.83715924373671,68.25903875774067,33.94660253840654,39.3684820524105,30
2060.0,74.69367088607594,71.98365445307066,62.740549594756786,68.14278244632169,33.84087200674897,39.24310485831387,30
2120.0,74.69367088607594,71.87218785756697,62.50816145782572,67.92654784808617,33.9456400094808,39.36402639974125,30
2180.0,74.59367088607594,72.59700333425575,62.987191097473726,68.29151561815875,34.30548771609699,39.60981223678202,30
2240.0,74.39367088607592,72.3886362609882,62.3695830688072,67.65604501289205,34.732591248096156,40.019053192181005,30
2300.0,74.19367088607594,71.39606320963146,61.46521435275268,67.23760175106862,34.15846145856284,39.93084885687878,30
2360.0,74.09367088607593,70.75525016209195,60.414487597033826,66.28681819801712,34.46843196407484,40.34076256505813,30
2400.0,74.29367088607593,70.40568138445197,59.539025902592996,65.85773603119253,34.547945353259436,40.86665548185897,30
2500.0,74.69367088607594,70.67350362209962,60.05167205103615,66.29289970978138,34.380603912318236,40.62183157106347,30
2580.0,75.09367088607593,70.92830421424021,60.212521225286835,66.42332549552806,34.50497871871215,40.71578298895338,30
2650.0,75.29367088607593,70.93955576425914,60.21319136649244,66.55571313884367,34.38384262541547,40.7263643977667,30
2720.0,75.39367088607592,70.81560249517908,60.21983078941605,66.58863831208674,34.226964183092335,40.59577170576303,30
2800.0,75.19367088607594,70.55705453659297,60.05128733144862,66.30546759681503,34.25158693977794,40.50576720514435,30
