Freq "Sound Power"
22.4 22.251907609109892
23.0 23.775559946456312
23.6 25.25208536533738
24.0 27.28879226675845
25.0 29.08940052200198
25.8 30.63690940731611
26.5 32.05638316320817
27.2 33.91830796900366
28.0 35.59846869106862
29.0 37.060132282549674
30.0 38.55544383024046
30.7 40.29374518076007
31.5 41.80520692183397
32.5 43.181105758807334
33.5 44.886607981798804
34.5 46.3937743054686
35.5 47.78253114197658
36.5 49.33994215468694
37.5 50.770483727833735
38.7 52.10317099865627
40.0 53.49228937138365
41.2 54.76832302490776
42.5 55.99656987201645
43.7 57.19499426784195
45.0 58.30507902688383
46.2 59.42994739573824
47.5 60.45197705589594
48.7 61.493738592433516
50.0 62.4446921118638
51.5 63.36679374348694
53.0 64.23088382811285
54.5 65.04925496608845
56.0 65.82529870347672
58.0 66.61248963998608
60.0 67.35193160018962
61.5 68.08804464334885
63.0 68.77631858281349
65.0 69.44652281381359
67.0 70.05934098914524
69.0 70.616111376023
71.0 71.13647430081586
73.0 71.6247507783894
75.0 72.07148484891628
77.5 72.44716264701825
80.0 72.76980504094044
82.5 73.09347501326653
85.0 73.40493750285833
87.5 73.7051555647675
90.0 73.9886298427314
92.5 74.23926240067173
95.0 74.51355198889557
97.5 74.74603095157038
100.0 74.99358023798773
103.0 75.23697396791341
106.0 75.46352917155747
109.0 75.66956486235166
112.0 75.89833060588164
115.0 76.09238544780796
118.0 76.2444002667095
122.0 76.44174366077407
125.0 76.57862024946573
128.0 76.68977622818922
132.0 76.79318075927316
136.0 76.86742514583048
140.0 76.92141277497187
145.0 76.94850247490272
150.0 76.95988997194236
155.0 76.9216403215185
160.0 76.86188546555132
165.0 76.77852704893755
170.0 76.64862762378326
175.0 76.52200976150323
180.0 76.34562222994036
185.0 76.15603380424116
190.0 75.95413968321391
195.0 75.72005290246682
200.0 75.4789759767407
206.0 75.23422827720405
212.0 74.97301646031006
218.0 74.69558184308906
224.0 74.42383366715289
230.0 74.08908019242499
236.0 73.76407162343843
240.0 73.39200840739994
250.0 72.9719361617238
258.0 72.51338013021727
265.0 72.10191441563346
272.0 71.92815340714172
280.0 71.83735843233099
290.0 71.83622694879054
300.0 71.92048249306787
307.0 72.09177042568213
315.0 72.33306633664724
325.0 72.58590060850212
335.0 72.83424633907208
345.0 72.97776992467767
355.0 73.0419127079642
365.0 72.94899136675201
375.0 72.78298238293756
387.0 72.59758382382851
400.0 72.47789099626242
412.0 72.39971635142493
425.0 72.39963229459603
437.0 72.40734331982846
450.0 72.45216775804269
462.0 72.51450504762367
475.0 72.57113933437
487.0 72.54422575069096
500.0 72.4889323095574
515.0 72.33358448403821
530.0 72.11143974593168
545.0 71.78502762771447
560.0 71.48268474933785
580.0 71.16502530952552
600.0 70.90537478479196
615.0 70.66374278737581
630.0 70.32520908425094
650.0 69.87588026402791
670.0 69.20477802641237
690.0 68.54037021056594
710.0 67.99954507506358
730.0 67.50767701361512
750.0 67.11902574246243
775.0 66.81981276160141
800.0 66.71842150991272
825.0 66.9138842497736
850.0 67.22825576409238
875.0 67.24872973305268
900.0 66.8505235251811
925.0 66.24873812567189
950.0 65.94964933962639
975.0 66.29151805986571
1000.0 66.98266865033732
1030.0 67.4309090825257
1060.0 67.44698472323408
1090.0 67.57219051142098
1120.0 68.54417372463261
1150.0 70.4229382224543
1180.0 71.74309142065593
1220.0 70.67161292943565
1250.0 68.71400563856285
1280.0 68.21507941682012
1320.0 68.81253227952614
1360.0 68.59806622349352
1400.0 67.46588231205708
1450.0 67.04845127748615
1500.0 67.58448570284698
1550.0 66.9733239192689
1600.0 65.33677194970359
1650.0 63.951860053631535
1700.0 63.339502005401
1750.0 63.74761251057261
1800.0 63.83925784053366
1850.0 63.24226549912791
1900.0 62.94036958749085
1950.0 62.849886709872635
2000.0 62.83715924373671
2060.0 62.740549594756786
2120.0 62.50816145782572
2180.0 62.987191097473726
2240.0 62.3695830688072
2300.0 61.46521435275268
2360.0 60.414487597033826
2400.0 59.539025902592996
2500.0 60.05167205103615
2580.0 60.212521225286835
2650.0 60.21319136649244
2720.0 60.21983078941605
2800.0 60.05128733144862
2900.0 60.15114881294633
3000.0 59.86707923856433
3070.0 60.153669995548356
3150.0 60.29582970232066
3250.0 60.31292175184463
3350.0 60.44097622733601
3450.0 60.51689744947892
3550.0 60.822961871118
3650.0 61.36602911162957
3750.0 61.64499245616318
3870.0 61.568792229061444
4000.0 61.73019690636049
4120.0 62.070747107669916
4250.0 62.524715058321874
4370.0 62.59546609264042
4500.0 62.47670114634302
4620.0 62.79847374623303
4750.0 62.97210260566585
4870.0 63.439580566847795
5000.0 63.93941693992571
5150.0 64.14335631530348
5300.0 64.09057562237456
5450.0 63.7918241224548
5600.0 62.948744936015004
5800.0 62.579993891188565
6000.0 62.80794730007587
6150.0 63.875904799203525
6300.0 65.37301711477049
6500.0 66.21112940210753
6700.0 66.21420314709962
6900.0 66.65894390639382
7100.0 67.26290862769486
7300.0 67.04369983570216
7500.0 66.6898033802791
7750.0 66.6565897339362
8000.0 66.11566668546436
8250.0 65.61771049835176
8500.0 65.7594200590182
8750.0 65.62784018266254
9000.0 64.90513730907756
9250.0 64.56766864797733
9500.0 65.2410685624601
9750.0 65.04433719985035
10000.0 65.03904799434746
10300.0 65.55816100538446
10600.0 66.17023475322956
10900.0 66.78048971260691
11200.0 67.53096981198867
11500.0 67.8726319475548
11800.0 68.51857267108339
12200.0 68.36366362223539
12500.0 68.32113126738157
12800.0 67.4872743620004
13200.0 67.26551573524354
13600.0 66.94421834081395
14000.0 67.01516480825988
14500.0 66.59473440688821
15000.0 66.77486330845379
15500.0 66.28148073534624
16000.0 64.31720846080455
16500.0 65.39002257720367
17000.0 64.6116977987526
17500.0 61.251587503953104
18000.0 60.793582708612874
18500.0 61.04768069385314
19000.0 60.75025292971158
19500.0 60.0798985715073
