Freq "Ceiling Bounce"
20.5078 58.009595890447926
21.2402 59.054787246544194
21.9727 61.0713549096203
22.7051 61.435142799995546
23.4375 62.6931716615109
24.1699 63.853816678821985
25.6348 65.7407328332216
26.3672 66.8653297054188
27.0996 67.65872054822033
27.832 68.40761950182228
29.2969 70.32799878770193
30.0293 71.07438728455467
31.4941 73.43200002939294
32.2266 74.44253096901329
33.6914 75.77076789063689
34.4238 76.64835781990688
35.8887 78.6365439790852
37.3535 79.95452571624223
38.8184 81.61318166954223
39.5508 82.54440901855583
41.0156 84.18878258732572
42.4805 85.81235693740331
43.9453 87.44266521213983
45.4102 88.87995007589674
47.6074 90.10570336457926
49.0723 91.24662975194545
50.5371 92.25249392521425
52.7344 93.53838990548995
54.1992 94.09402438906376
56.3965 94.74469412600419
58.5938 95.17882650791502
60.0586 95.42032245817533
62.2559 95.68731319073454
64.4531 95.92117636518076
66.6504 96.26632499039464
69.5801 96.89521077719695
71.7773 97.24493705244518
73.9746 97.58830800707095
76.9043 97.9893467683958
79.834 98.39593323340489
82.7637 98.71463469331336
85.6934 99.10287619544296
88.623 99.63302338792295
91.5527 99.9122439033529
94.4824 99.94502574403867
98.1445 99.69312122221451
101.807 99.15451632486521
105.469 98.89397004456957
109.131 98.83667431369582
112.793 97.8850441449025
116.455 96.63702825589867
120.85 96.64860385694004
125.244 96.84874040956429
129.639 96.34982814114659
134.033 96.12513434707034
138.428 95.98688446905798
143.555 95.16621677353221
148.682 95.65533779818048
153.809 95.74337790889625
159.668 95.64771410250054
164.795 95.03898739638707
170.654 96.2718161586505
176.514 97.29134453377453
183.105 95.9334407241803
189.697 95.90379063493295
196.289 97.40666984166182
202.881 95.4344154952299
210.205 96.49420311135226
217.529 95.53133145389667
225.586 98.06507110118825
232.91 100.18313126164301
241.699 99.06502516665901
249.756 99.07087863541524
258.545 100.30242890197832
268.066 99.20037235547382
277.588 96.87151384805479
287.109 98.49705103551905
297.363 95.16486617185002
307.617 94.05821013710953
318.604 90.37570753703851
329.59 89.09298573816498
341.309 87.08369924098788
353.76 90.50173216452573
366.211 91.09272782429481
378.662 92.37552799576345
392.578 92.7495368099946
405.762 92.09721717665582
420.41 93.12088391668145
435.059 91.32784178647063
450.439 91.02630336714962
466.553 90.81498073789005
482.666 91.99803318148066
500.244 89.64001439229061
517.822 89.64417204486125
536.133 89.19533065550654
554.443 87.3188422873522
574.219 86.91852977496391
594.727 85.9428507090874
615.234 86.31271082262728
637.207 89.05314021673873
659.912 88.90862353065647
683.35 87.96124299513328
706.787 86.52837415239446
731.689 89.12731122894863
758.057 88.35340581352717
784.424 87.69577695565947
812.256 87.00816878936367
840.82 85.77906996466014
870.85 83.159143578246
901.611 83.29086615894546
933.105 84.43921833960756
966.064 88.05232626782293
999.756 89.03496121523064
1034.91 90.15026808607402
1071.53 92.50150645299385
1109.62 93.37163125492454
1148.44 94.34701999365558
1189.45 92.76781913899724
1231.2 92.00596628946025
1274.41 91.82684062710969
1319.82 90.7512065578233
1365.97 88.95340078975613
1414.31 88.2483061176452
1464.11 86.93846059815472
1515.38 86.23578947217737
1568.85 85.3376728770502
1624.51 83.37592022149428
1681.64 83.25171588996692
1740.97 82.64261257228661
1802.49 83.70552910580281
1866.21 85.05650018794091
1932.13 85.42286489358722
2000.24 83.67004874204268
2070.56 83.37013411651266
2143.8 83.6203574479173
2219.24 83.36922522132828
2297.61 83.81457813713548
2378.17 84.03923143366676
2462.4 83.07714761258376
2548.83 79.46959200031894
2638.92 75.58324536676263
2731.93 76.11237831873585
2828.61 74.8032101824791
2928.22 76.5206878156104
3031.49 78.63970918580785
3138.43 79.26406815817847
3249.02 81.44963083750609
3363.28 82.77653362483214
3481.93 82.68096321733162
3604.98 83.89082715815987
3732.42 83.17804480666807
3863.53 83.04042903164738
3999.76 82.44863556024917
4141.11 82.37344443114799
4286.87 81.32915485378298
4438.48 80.5431836919061
4594.48 81.19964751203499
4757.08 80.81166036178952
4924.8 80.64432730338719
5098.39 79.92010591827538
5277.83 81.76245537412703
5463.87 81.62710966584787
5656.49 81.74401459759073
5856.45 81.31053498567543
6062.99 80.26805055015534
6276.86 79.48364015007499
6498.05 78.50664445202419
6727.29 76.82028832745455
6964.6 77.82719724932657
7209.96 79.24819234091798
7464.11 79.65756664620297
7727.78 79.7409612580994
8000.24 78.75018317308518
8282.23 77.70082153120141
8574.46 74.76302607421992
8876.22 72.53192418073549
9189.7 75.03059041224432
9513.43 78.2054140704759
9848.88 78.42219804207089
10196.8 76.65663254148846
10556.4 76.45628974287304
10928.5 77.88305350722273
11313.7 78.37651390146415
11712.9 77.74322219586593
12126.0 77.39185349456183
12553.7 78.41751879795602
12996.1 77.767559837394
13454.6 77.87618019271899
13928.5 77.87372303238803
14419.9 76.99414688103393
14928.2 78.75043833597913
15454.8 79.85927926799853
15999.8 79.37490463447618
16564.5 79.80040065800146
17148.2 78.64827304089238
17753.2 77.39867904614458
18379.4 79.41541226202808
19027.6 77.47323529443925
19698.5 73.4398967600549
19999.5 69.52707148101747
