Freq "Side Wall Bounce"
20.5078 57.85226841760975
21.2402 58.678442670612256
21.9727 60.56266452971401
22.7051 60.96599245786108
23.4375 62.22566250916681
24.1699 63.259248858942314
25.6348 65.25943634031775
26.3672 66.41461185887893
27.0996 67.20629189268489
27.832 67.8911466684361
29.2969 69.7797234226678
30.0293 70.54641907818917
31.4941 72.82106943886346
32.2266 73.8383394958787
33.6914 75.21366219028043
34.4238 76.06032332493201
35.8887 78.01778153613868
37.3535 79.36743447734469
38.8184 81.02356601259221
39.5508 81.95143620033556
41.0156 83.5872511323429
42.4805 85.21352438403586
43.9453 86.83904618551601
45.4102 88.1966654272176
47.6074 89.58013697101858
49.0723 90.66353708021478
50.5371 91.54349133629749
52.7344 92.81887007466766
54.1992 93.35085340657731
56.3965 93.970271262262
58.5938 94.37481019718255
60.0586 94.6215814575791
62.2559 94.91343660347947
64.4531 95.16653303759108
66.6504 95.36806906889451
69.5801 96.19281602960592
71.7773 96.49235431201635
73.9746 96.80302104357257
76.9043 97.22063279941389
79.834 97.61474223986095
82.7637 97.89888430031361
85.6934 98.15831410161279
88.623 98.62077204278111
91.5527 99.0101097018405
94.4824 99.0165665739685
98.1445 98.74863700285623
101.807 98.16340098679522
105.469 97.70300716938154
109.131 97.68591383801596
112.793 96.94429652502485
116.455 95.7895201596028
120.85 95.79139178742265
125.244 95.93910350535606
129.639 95.42971567602567
134.033 95.17391316797607
138.428 95.03783733051418
143.555 94.23567288370414
148.682 94.6501791684007
153.809 94.64618472902717
159.668 94.30756512293067
164.795 93.6014511740889
170.654 94.25631011112931
176.514 95.57689487342795
183.105 94.19463219791778
189.697 94.3957485250421
196.289 96.01233278318009
202.881 94.07159416119752
210.205 94.84967089127117
217.529 93.7454253041323
225.586 96.7067669843435
232.91 98.37958056086032
241.699 97.51833992959122
249.756 96.79027572372189
258.545 97.59636299658915
268.066 96.42998130117222
277.588 93.76340916258961
287.109 95.52339135333087
297.363 95.39475954894534
307.617 92.839123611667
318.604 87.51995705635909
329.59 87.41756580465984
341.309 84.97210405186644
353.76 88.87534584234733
366.211 88.64233175816541
378.662 90.05099105896912
392.578 89.68888877142842
405.762 90.03291418349737
420.41 90.85321502849257
435.059 89.6719283523211
450.439 89.32138159738885
466.553 88.16691036575604
482.666 86.77245785179805
500.244 86.54572327078131
517.822 87.1053856145668
536.133 85.73449186984286
554.443 86.44748326337698
574.219 85.45819460461239
594.727 82.89110883632
615.234 84.4818360545359
637.207 86.43197786394994
659.912 85.47229501860558
683.35 85.81950629579285
706.787 85.953362791389
731.689 85.69883647366262
758.057 86.07486386190418
784.424 86.29558425525627
812.256 84.93760416385
840.82 83.87011633679107
870.85 82.11769702983511
901.611 82.4375031912154
933.105 82.99544285206866
966.064 85.54967268788576
999.756 86.89541362210294
1034.91 88.44066037425756
1071.53 89.5853114654081
1109.62 89.88365816418148
1148.44 89.51445291536744
1189.45 89.10080060938179
1231.2 88.3469962933859
1274.41 87.35517910201719
1319.82 87.00754292202878
1365.97 85.98392725017743
1414.31 85.29692768384088
1464.11 84.29168528889183
1515.38 82.7967334376087
1568.85 81.93195667843115
1624.51 81.96466799722661
1681.64 82.15483801997372
1740.97 82.35587578222125
1802.49 81.46562893329435
1866.21 82.37389924775857
1932.13 83.01918762677103
2000.24 82.1757789515809
2070.56 81.575904919417
2143.8 82.21426174092012
2219.24 81.68494523640996
2297.61 81.37763737398832
2378.17 81.4522797618753
2462.4 80.40202664208432
2548.83 76.91772581906339
2638.92 76.08337591675297
2731.93 78.28787271815128
2828.61 78.20696280736863
2928.22 78.58810628784674
3031.49 78.97218008352358
3138.43 78.71559441248519
3249.02 77.87049220163992
3363.28 78.72666376770592
3481.93 78.90021695480867
3604.98 80.09645552527462
3732.42 79.72085166311044
3863.53 80.34682377080652
3999.76 78.16830785759302
4141.11 79.23468259286587
4286.87 78.26013958866518
4438.48 79.3168047991006
4594.48 79.5726340544193
4757.08 79.77483900370136
4924.8 80.08512369278907
5098.39 79.64532214875591
5277.83 81.12729724375366
5463.87 81.40911859437009
5656.49 80.80772875461356
5856.45 80.42314332045765
6062.99 78.81968644153301
6276.86 77.75038595834334
6498.05 76.89641099690603
6727.29 75.81638294190783
6964.6 76.51205450819482
7209.96 77.62307674088338
7464.11 78.94258833873064
7727.78 79.11798395152377
8000.24 77.57960364566758
8282.23 76.58884686030036
8574.46 72.95812152530094
8876.22 72.89859835428162
9189.7 77.1873118465199
9513.43 79.82414375827564
9848.88 79.70041540838767
10196.8 78.8370371424605
10556.4 78.58733668729455
10928.5 80.86786595400916
11313.7 80.47373819749855
11712.9 80.05627417129561
12126.0 80.0318743245336
12553.7 80.95378841687224
12996.1 80.34867067549303
13454.6 80.13997175873097
13928.5 79.7204894235123
14419.9 80.1183743827151
14928.2 81.83044763403235
15454.8 82.85114088464452
15999.8 82.43888485681042
16564.5 82.80644268258885
17148.2 81.67985406117121
17753.2 80.2546448382469
18379.4 81.47850333219839
19027.6 79.73547946873163
19698.5 76.6707755649671
19999.5 73.29649355118066
