Freq "Ceiling Bounce"
22.4 -7.550578185259738
23.0 -6.741964778497376
23.6 -5.471788427972811
24.0 -2.305692554553346
25.0 0.016285111533235863
25.8 1.8078531952534007
26.5 3.2777858943770894
27.2 4.654154306963235
28.0 5.86342139135165
29.0 6.936571236568582
30.0 8.574793701492197
30.7 10.979019697005228
31.5 12.792487996976789
32.5 14.199302297198685
33.5 15.322737196854845
34.5 16.208119067672115
35.5 17.221531126412785
36.5 19.453169280436995
37.5 21.23131298126735
38.7 22.469888629823444
40.0 23.493899376627766
41.2 24.48395269084584
42.5 26.378771147858842
43.7 28.23012177221655
45.0 29.664930353410952
46.2 30.952749942143598
47.5 32.42154865751026
48.7 34.8111531573163
50.0 36.752911400184345
51.5 38.4231203439938
53.0 40.06671702468141
54.5 42.18910921343739
56.0 44.21695395609258
58.0 46.0943086981156
60.0 48.018700131740886
61.5 50.1535511622006
63.0 51.97932883471323
65.0 53.66194697319561
67.0 56.176436178252075
69.0 58.36226044405474
71.0 60.22117243709788
73.0 62.3093740032145
75.0 64.06966078457043
77.5 65.73049751401601
80.0 67.42188682922213
82.5 69.05237800738082
85.0 70.65237800738083
87.5 72.01483523633479
90.0 73.14608461666676
92.5 74.00934661896389
95.0 74.74136150423587
97.5 75.44136150423587
100.0 76.14136150423587
103.0 76.63821129888743
106.0 77.13821129888744
109.0 77.73821129888742
112.0 78.27150800786937
115.0 78.63663575667186
118.0 78.93663575667186
122.0 79.27071732495409
125.0 79.57071732495409
128.0 79.67071732495408
132.0 79.87071732495407
136.0 80.1053180676647
140.0 80.27071732495409
145.0 80.5053180676647
150.0 80.63663575667186
155.0 80.83663575667187
160.0 81.0053180676647
165.0 81.13663575667186
170.0 81.23663575667187
175.0 81.27150800786939
180.0 81.33663575667187
185.0 81.40306957104252
190.0 81.43663575667186
195.0 81.47150800786939
200.0 81.47150800786939
206.0 81.50306957104252
212.0 81.57150800786938
218.0 81.57150800786938
224.0 81.57150800786938
230.0 81.57150800786938
236.0 81.64044167945492
240.0 81.64044167945492
250.0 81.5404416794549
258.0 81.50690501035459
265.0 81.34044167945491
272.0 81.24044167945492
280.0 81.07609175449221
290.0 80.9760917544922
300.0 80.87609175449221
307.0 80.84576719438469
315.0 80.84576719438469
325.0 80.88219967332304
335.0 80.91916705502753
345.0 80.81916705502753
355.0 80.81916705502753
365.0 80.71916705502754
375.0 80.61916705502752
387.0 80.61916705502752
400.0 80.58219967332305
412.0 80.61227178315617
425.0 80.64283030471974
437.0 80.6069050103546
450.0 80.6069050103546
462.0 80.57150800786938
475.0 80.53663575667186
487.0 80.50306957104252
500.0 80.43513059177984
515.0 80.40306957104252
530.0 80.30306957104253
545.0 80.20690501035459
560.0 80.07928732607432
580.0 79.9489851487955
600.0 79.79471929119204
615.0 79.50473530118576
630.0 79.28888547155005
650.0 79.16194867563765
670.0 78.91792789764851
690.0 78.5672655885961
710.0 78.18538710465897
730.0 77.74915203998829
750.0 77.37100612011483
775.0 76.97245249207644
800.0 76.61904449785342
825.0 76.48759923684219
850.0 76.51904449785343
875.0 76.68759923684217
900.0 76.81904449785343
925.0 76.84066681957172
950.0 76.79430744544665
975.0 76.69430744544665
1000.0 76.47245249207646
1030.0 76.16620989389217
1060.0 75.67277674488686
1090.0 75.08246753146328
1120.0 74.46672073686061
1150.0 74.05447715330635
1180.0 73.87466843276418
1220.0 73.97466843276418
1250.0 74.21326997082845
1280.0 74.15840416724978
1320.0 73.99723594431543
1360.0 73.72756634145692
1400.0 73.56493035341096
1450.0 73.70921140720402
1500.0 74.06941986366729
1550.0 74.45177437534741
1600.0 74.41753803239935
1650.0 74.02869245367795
1700.0 73.28219812790056
1750.0 72.38888547155003
1800.0 71.55647994661608
1850.0 71.07035193787353
1900.0 70.98573915648971
1950.0 71.07757950460713
2000.0 71.22875610128314
2060.0 71.37269145322595
2120.0 71.41719474435358
2180.0 71.28573603864206
2240.0 70.82429736591519
2300.0 70.19430869811559
2360.0 69.64852142053364
2400.0 69.52821157202717
2500.0 69.72821157202718
2580.0 70.05865853259174
2650.0 70.10962074754836
2720.0 70.56226741403312
2800.0 71.06268190818896
2900.0 71.64520516099383
3000.0 71.83209919948372
3070.0 71.51411392837596
3150.0 71.25206000485603
3250.0 70.93966428643988
3350.0 70.90907886704532
3450.0 71.27096325109015
3550.0 71.48657023787737
3650.0 71.38657023787738
3750.0 71.58193417877422
3870.0 71.2183762697283
4000.0 70.53669399809316
4120.0 70.50072921332075
4250.0 70.50137735040872
4370.0 70.2824675314633
4500.0 70.05274994214359
4620.0 69.94520516099381
4750.0 70.14066681957172
4870.0 69.87100612011483
5000.0 69.30497668676809
5150.0 69.10982855556756
5300.0 69.42526453928848
5450.0 70.5094224842602
5600.0 71.68915630129642
5800.0 72.38915630129642
6000.0 72.41152326304965
6150.0 72.28573781157957
6300.0 72.0596203420011
6500.0 71.54985150686697
6700.0 70.73012177221653
6900.0 70.47301209244411
7100.0 71.08681963215334
7300.0 71.62320753866265
7500.0 71.80993626900296
7750.0 71.61388511176722
8000.0 71.17324980289028
8250.0 70.59868001632911
8500.0 69.89441444972205
8750.0 69.12854947575143
9000.0 68.10450671220273
9250.0 67.18051060270075
9500.0 66.71667054520437
9750.0 66.78692145185188
10000.0 67.05864068487882
10300.0 67.06552876226151
10600.0 66.4277300866453
10900.0 65.42508658750486
11200.0 64.81112494659284
11500.0 64.42998817302504
11800.0 64.16163645138079
12200.0 63.872455360667246
12500.0 63.91898969310746
12800.0 64.239641420066
13200.0 64.31798848217987
13600.0 63.9933340536745
14000.0 63.84318062348464
14500.0 63.88701308799669
15000.0 63.823458198728204
15500.0 63.56691728331715
16000.0 62.97168531355223
16500.0 62.2328809265652
17000.0 62.164436805030874
17500.0 62.1670591773177
18000.0 61.55447715330635
18500.0 60.22537703077312
19000.0 59.14570374002572
19500.0 58.99673079774968
