Freq "Rear Wall Bounce"
22.4 -7.275899347293773
23.0 -7.45187910979152
23.6 -7.126254976762425
24.0 -5.043256751787851
25.0 -3.747249892522319
25.8 -2.904710797591406
26.5 -2.2433132420831896
27.2 -1.7228099974168742
28.0 -1.2498559421044604
29.0 -0.7080607628182349
30.0 0.4897688360426571
30.7 2.634159989131632
31.5 4.258106675273609
32.5 5.599290503152048
33.5 6.8052430085706135
34.5 7.889945442453353
35.5 9.16468606485833
36.5 11.725445492650294
37.5 13.857483986012113
38.7 15.582771796612661
40.0 17.050070650319896
41.2 18.47421680883204
42.5 20.74327334063952
43.7 23.053543601014496
45.0 24.86857665902491
46.2 26.449274045024026
47.5 28.10760632135856
48.7 30.691500557921216
50.0 32.794353311262114
51.5 34.557786272296454
53.0 36.191623381373375
54.5 38.31113327284524
56.0 40.26373277329907
58.0 42.08209319849635
60.0 43.87515097252745
61.5 45.92878926175126
63.0 47.67731905974429
65.0 49.325886564247554
67.0 51.78210308811114
69.0 53.932879872898525
71.0 55.790469740688536
73.0 57.83677106722959
75.0 59.59005325313238
77.5 61.259103584150836
80.0 62.92763643890832
82.5 64.57835740937921
85.0 66.15985276730336
87.5 67.54922646921943
90.0 68.75370648635895
92.5 69.63805236249958
95.0 70.42286795880597
97.5 71.1993979667186
100.0 71.96552140254175
103.0 72.51793401082709
106.0 73.03277166231305
109.0 73.68795081770097
112.0 74.2631314947216
115.0 74.64042074425359
118.0 74.97938068192701
122.0 75.32965154624155
125.0 75.60469409381658
128.0 75.6702781195442
132.0 75.8906279154896
136.0 76.09289079171552
140.0 76.21913282961022
145.0 76.43144745809707
150.0 76.55542145244249
155.0 76.69719150061772
160.0 76.83228201731184
165.0 76.97174021621939
170.0 77.03450350306558
175.0 77.07030773858807
180.0 77.1232343622404
185.0 77.1744564427243
190.0 77.17088446951153
195.0 77.14591746185027
200.0 77.11425413682565
206.0 77.11210851815697
212.0 77.08671694405265
218.0 77.03495975839084
224.0 76.99368792851303
230.0 76.93628277010946
236.0 76.89602705920231
240.0 76.81136983055231
250.0 76.64626283594072
258.0 76.52942216816032
265.0 76.33874587934523
272.0 76.17953965176778
280.0 75.94881515985473
290.0 75.81229938429448
300.0 75.71034170376461
307.0 75.59272283356225
315.0 75.56128760709697
325.0 75.55244524929961
335.0 75.50506448346718
345.0 75.38593148383538
355.0 75.2647215841373
365.0 75.11126635144365
375.0 74.89563339115624
387.0 74.67539544860031
400.0 74.46076578508823
412.0 74.286977178174
425.0 74.17502883544775
437.0 74.01196125249864
450.0 73.88889807213619
462.0 73.79115521919215
475.0 73.74397727834469
487.0 73.73082605339826
500.0 73.69969768515594
515.0 73.69313140104757
530.0 73.68540036994777
545.0 73.64605802818166
560.0 73.58300856793753
580.0 73.48492464386102
600.0 73.3380020804326
615.0 73.11043246084326
630.0 72.88058985471206
650.0 72.78003874368923
670.0 72.52200941484278
690.0 72.14891616103375
710.0 71.672592566127
730.0 71.15895441758114
750.0 70.63529215162295
775.0 70.07241789830363
800.0 69.60988713087195
825.0 69.27660717237929
850.0 69.11628570999004
875.0 69.02357752118527
900.0 68.99698213446395
925.0 68.96073054193987
950.0 68.94370669766852
975.0 68.96052220421865
1000.0 68.9035301354475
1030.0 68.80600554983647
1060.0 68.60278335070622
1090.0 68.29705336112369
1120.0 67.85410554734526
1150.0 67.24032852011011
1180.0 66.60107039859696
1220.0 65.89784993477986
1250.0 65.07709016802366
1280.0 63.7857112563907
1320.0 62.198843684611134
1360.0 60.330128865569435
1400.0 58.863171871346225
1450.0 58.14470172534271
1500.0 58.03881797557935
1550.0 58.18699810991714
1600.0 58.223773575846934
1650.0 57.92761460715204
1700.0 57.420653776847445
1750.0 56.76950551986215
1800.0 56.16361698363701
1850.0 55.76569449373082
1900.0 55.64699102645113
1950.0 55.707732492434644
2000.0 55.85746816906217
2060.0 56.12337044915952
2120.0 56.5280378138078
2180.0 57.02050878162302
2240.0 57.35295723002167
2300.0 57.51738452674405
2360.0 57.81043136680475
2400.0 58.519166503284936
2500.0 59.36972583145125
2580.0 59.888453031448435
2650.0 59.82297103073773
2720.0 59.91414846374954
2800.0 60.074535876929104
2900.0 60.26772189164015
3000.0 60.08660218752817
3070.0 59.37063583319696
3150.0 58.576824391765626
3250.0 57.816171177745815
3350.0 57.376153329690396
3450.0 57.36710571326097
3550.0 57.38310728587888
3650.0 57.431307469746
3750.0 58.032697632274306
3870.0 58.36583980314714
4000.0 58.51634755024003
4120.0 59.05814638125332
4250.0 59.489682488860765
4370.0 59.614398033861804
4500.0 59.441407990908516
4620.0 59.143830597611554
4750.0 58.82695206784919
4870.0 57.88794162560529
5000.0 56.76338395658132
5150.0 56.073140212257755
5300.0 56.01922996177396
5450.0 56.67228113057013
5600.0 57.53841259168743
5800.0 57.92229405807683
6000.0 57.72923829963375
6150.0 57.36475779602273
6300.0 57.03043237880195
6500.0 56.63407836552949
6700.0 56.06713023915435
6900.0 56.17952356722233
7100.0 57.24100200238453
7300.0 58.148171659363896
7500.0 58.60686585349933
7750.0 58.626189523708035
8000.0 58.361438827063125
8250.0 57.91901478666364
8500.0 57.56009915879696
8750.0 57.116733445720314
9000.0 56.4590333571399
9250.0 55.83674416472908
9500.0 55.73669948409673
9750.0 56.308678792546345
10000.0 57.043031702223175
10300.0 57.43107305238695
10600.0 57.249009758236355
10900.0 56.65316485828737
11200.0 56.26314252884029
11500.0 55.92295370743085
11800.0 55.3945189382157
12200.0 54.756371128246855
12500.0 54.400103363030865
12800.0 54.229049123991416
13200.0 53.8335683137891
13600.0 52.925711676619244
14000.0 52.27219416695584
14500.0 51.88844021223696
15000.0 51.491182572187796
15500.0 50.94043054085148
16000.0 50.13855382260286
16500.0 49.303506459582024
17000.0 49.128884860590716
17500.0 49.121302963937836
18000.0 48.44841551152055
18500.0 47.005096423461055
19000.0 45.73281154558495
19500.0 45.354899615277446
