Freq "Total Early Reflection"
22.4 -3.473691165895204
23.0 -3.0863128442941132
23.6 -2.2513055739027408
24.0 0.38881503517738736
25.0 2.2081846927646467
25.8 3.5062635175331565
26.5 4.533591357155032
27.2 5.409562994015076
28.0 6.165165072617484
29.0 6.890237064177384
30.0 8.173643384543382
30.7 10.322946021976165
31.5 11.926100785646653
32.5 13.176493605434487
33.5 14.241269598817766
34.5 15.106491759103264
35.5 16.134591614739364
36.5 18.459056635895635
37.5 20.277779131413425
38.7 21.676408441960277
40.0 22.821170946673774
41.2 23.915712952266617
42.5 25.913457820220273
43.7 27.88979635782367
45.0 29.47077090791562
46.2 30.872679529872173
47.5 32.376303597046316
48.7 34.81197553310763
50.0 36.78515873578333
51.5 38.484200900690766
53.0 40.10238711574125
54.5 42.21733763811541
56.0 44.21431456995727
58.0 46.07055949518245
60.0 47.9301430477782
61.5 50.03901753351222
63.0 51.82406544068344
65.0 53.50309780433487
67.0 55.98086467021447
69.0 58.1572054265164
71.0 60.01271871105861
73.0 62.060641790969115
75.0 63.79371275329673
77.5 65.45213328801432
80.0 67.08831224640102
82.5 68.72129526514475
85.0 70.27434523936707
87.5 71.63677445943237
90.0 72.770830569162
92.5 73.63232612462954
95.0 74.37264590119537
97.5 75.10209745038028
100.0 75.81944742007055
103.0 76.35312645137145
106.0 76.8299846451752
109.0 77.46598039605358
112.0 78.00339296709446
115.0 78.35653750688738
118.0 78.69881246262503
122.0 79.02899511893554
125.0 79.31389187721594
128.0 79.38983380753494
132.0 79.59680945731166
136.0 79.80620053807928
140.0 79.96331609033592
145.0 80.1647448890945
150.0 80.28867374697239
155.0 80.44161008467465
160.0 80.59094768390993
165.0 80.72142193429057
170.0 80.79217196832141
175.0 80.83348804040486
180.0 80.89453893930352
185.0 80.95625877949924
190.0 80.99235802471846
195.0 81.00792885646585
200.0 81.01544880598831
206.0 81.04561831490123
212.0 81.09171348577273
218.0 81.09534341511544
224.0 81.10568831599672
230.0 81.13689363786433
236.0 81.17580630437722
240.0 81.17254983654455
250.0 81.09337843732807
258.0 81.02162848356896
265.0 80.88180855533136
272.0 80.77354901463458
280.0 80.5885664395038
290.0 80.51931722139659
300.0 80.44342554948587
307.0 80.38895828348423
315.0 80.40010485197048
325.0 80.44988333036788
335.0 80.48136438264984
345.0 80.4385447140259
355.0 80.43233713822316
365.0 80.38242878424164
375.0 80.29838125991286
387.0 80.28449074020044
400.0 80.25755319476708
412.0 80.28796268783451
425.0 80.3091002252894
437.0 80.28446895166157
450.0 80.24877094304146
462.0 80.17089685485412
475.0 80.11182526696963
487.0 80.0318310531262
500.0 79.93147807549433
515.0 79.86819786708162
530.0 79.78990095763153
545.0 79.7160541736159
560.0 79.62290687886818
580.0 79.55269081798467
600.0 79.48934354417074
615.0 79.36327116379142
630.0 79.30890377731524
650.0 79.34587256579574
670.0 79.27857353791478
690.0 79.15186202264519
710.0 78.99093174388875
730.0 78.76196306619404
750.0 78.52450535378382
775.0 78.28896592029633
800.0 78.0655137121204
825.0 77.96435825532465
850.0 77.98189075444932
875.0 78.07827441169285
900.0 78.2166603390618
925.0 78.25752558005414
950.0 78.27443909955969
975.0 78.30409557326031
1000.0 78.28008464497645
1030.0 78.21045236146269
1060.0 78.08184306294046
1090.0 77.87879790999081
1120.0 77.60971540969335
1150.0 77.34056054501582
1180.0 77.19758415952752
1220.0 77.22021498144171
1250.0 77.28027992973944
1280.0 76.96021033697338
1320.0 76.46828027811652
1360.0 75.780979809921
1400.0 75.33106740920726
1450.0 75.33287140958514
1500.0 75.75644804602443
1550.0 76.25941533090237
1600.0 76.48234292166556
1650.0 76.36666607151072
1700.0 76.06464154942356
1750.0 75.69059822756768
1800.0 75.38963922717996
1850.0 75.2537980533719
1900.0 75.34589949655395
1950.0 75.52566849372253
2000.0 75.71214315055454
2060.0 75.91632327834931
2120.0 76.15071745393418
2180.0 76.3291814084994
2240.0 76.18931046116211
2300.0 75.81180707514154
2360.0 75.41294613803824
2400.0 75.32103770590065
2500.0 75.47340677771184
2580.0 75.52406166311147
2650.0 75.08448561642633
2720.0 74.92090003106487
2800.0 74.93301492921626
2900.0 75.09844214571616
3000.0 75.03968362550212
3070.0 74.5885245567252
3150.0 74.14675795056418
3250.0 73.80874263803821
3350.0 73.83895162442595
3450.0 74.32308753473168
3550.0 74.66456237458087
3650.0 74.78868510362317
3750.0 75.25685740635059
3870.0 75.21424830156484
4000.0 74.95445002048974
4120.0 75.21366340977872
4250.0 75.4514668257425
4370.0 75.4779888207963
4500.0 75.36468257478398
4620.0 75.24504144973174
4750.0 75.27950863683374
4870.0 74.75643972884083
5000.0 74.0106886024475
5150.0 73.56553185000928
5300.0 73.61255115351783
5450.0 74.36646266639124
5600.0 75.25703649698654
5800.0 75.8188816304648
6000.0 75.84377724279915
6150.0 75.85962772295987
6300.0 75.79372263709509
6500.0 75.52930767363956
6700.0 74.99812477751806
6900.0 75.01228792857295
7100.0 75.90253476369377
7300.0 76.67310161910483
7500.0 77.02835228736352
7750.0 76.99333894991234
8000.0 76.71885837477397
8250.0 76.36437306067617
8500.0 76.10530764085058
8750.0 75.78676730800285
9000.0 75.24023571646072
9250.0 74.70984568338255
9500.0 74.62015441009449
9750.0 75.19771832870494
10000.0 75.96376813899012
10300.0 76.38944798930447
10600.0 76.24897968143354
10900.0 75.74614447360047
11200.0 75.51029404021062
11500.0 75.41710171410698
11800.0 75.15178962949945
12200.0 74.87116289459249
12500.0 74.83202255093819
12800.0 75.01650750048395
13200.0 74.99361060633393
13600.0 74.5140863944237
14000.0 74.20652214998395
14500.0 74.12841865471049
15000.0 73.96329186497664
15500.0 73.6279149891552
16000.0 73.0163550732934
16500.0 72.40685862527276
17000.0 72.4516953284318
17500.0 72.73622476476336
18000.0 72.25412200549567
18500.0 71.00158749475698
19000.0 69.78899004740893
19500.0 69.3612231994589
