Freq,Floor Bounce,Ceiling Bounce,Front Wall Bounce,Side Wall Bounce,Rear Wall Bounce,Total Early Reflection
22.4,53.06356297019826,37.142759548994064,51.24440557474264,45.429586632618964,32.47980357950283,48.77956759578757
23.0,53.37058367605465,37.950385668483335,51.217686364974014,45.11670857140811,33.10028345446884,48.92569633723332
23.6,53.60476352211353,38.67516839043964,51.134332438252756,44.879184029874324,33.80050658736326,49.02775781014108
24.0,53.91534733661692,39.52402339953997,51.05249725921041,44.584548583341075,34.51003947554898,49.183325413107156
25.0,54.12749326208254,40.30947857382961,50.92761311102623,44.34424156964167,35.23760544918568,49.281429715657396
25.8,54.34352078903379,41.153438492302286,50.87912351323044,44.02830862481491,35.97052485202576,49.4109423815363
26.5,54.58065266728278,42.121454858134854,50.69262281806337,43.69650586208488,36.86781000311893,49.532715278149055
27.2,54.89174523805596,43.213358983047556,50.41455270873524,43.12236131116677,38.02941064942806,49.696871448584716
28.0,55.321462584643285,44.77782840546453,49.7300459441002,42.00257646316837,39.90766625052402,49.913943409395756
29.0,55.87697815772742,46.85049150852859,48.377599427363236,40.064018548751875,42.465993674182755,50.26966744816525
30.0,56.379103633451734,48.45401535616301,46.70162920670745,39.434525091907176,44.49277742061068,50.70537811088292
30.7,56.83924519297341,49.763044056690404,44.77582435950046,40.335358754793816,46.2115936115388,51.20769944991801
31.5,57.380617601198935,51.095422921111066,41.614996627982066,42.960105238239635,47.903268941360494,51.885142396568256
32.5,58.017684775744925,52.80614956822143,40.05006568761564,46.48918314435031,50.051236732354255,52.92348197000743
33.5,58.90457625676939,54.77897822333156,44.75954906543555,50.35057895715906,52.456397904568405,54.44663183421045
34.5,59.57468309145614,56.19786606987739,49.319668415280574,52.74854640711365,54.15103512173343,55.69901381103307
35.5,60.324651965176,57.74940507776333,52.84729790907966,55.07674818431647,55.891251956731395,57.119691292590915
36.5,61.298974439985926,59.573232790184505,56.36185973131009,57.57096214437047,57.8534696898177,58.886713596489585
37.5,62.34658686736201,61.23595803438826,59.133338504700504,59.695774204117726,59.62375512868141,60.579876713513784
38.7,63.40445237525462,62.86301552908236,61.51933408627744,61.69124433031158,61.30563315783439,62.23703511816703
40.0,64.53885700922993,64.49219336361926,63.633664171918795,63.4520082235222,62.873680671060924,63.84457726408699
41.2,65.79529742504813,66.05756863077445,65.54827926276214,65.15478541367212,64.40441119914507,65.42920370594511
42.5,66.95988830029629,67.55756863077445,67.24827926276214,66.69683225123299,65.83191324129079,66.89750279226801
43.7,68.48175487176705,69.256795268882,69.22096017435325,68.52116031262238,67.54269136065592,68.64840629893409
45.0,69.94224983278582,70.78987341772151,70.93595884363447,70.1211603126224,69.0475973756927,70.21860908230491
46.2,71.09712041688886,71.98987341772153,72.23595884363448,71.40237363879237,70.29562637857371,71.45728446435163
47.5,72.47029761826406,73.35679526888202,73.66318404095789,72.84214301124779,71.72748103336767,72.8642245627363
48.7,73.97029761826406,74.85679526888201,75.19216818465844,74.34214301124779,73.28522164832289,74.38013436598823
50.0,75.12842424914199,75.85679526888202,76.26318404095788,75.4603359419927,74.42748103336766,75.47196070162519
51.5,76.4144501435665,77.05679526888201,77.46318404095788,76.69907952952559,75.66309499119166,76.70130228063354
53.0,77.70200953749013,78.19064091217713,78.64827926276212,77.89907952952561,76.92646242947563,77.91010706487435
54.5,78.6522308471423,79.09064091217715,79.47736271664193,78.7990795295256,77.85308429526201,78.80731982861974
56.0,79.41389828798174,79.72422482640654,80.11966841528056,79.45751855522232,78.54305047087607,79.48191994010631
58.0,80.30615281855792,80.52422482640654,80.90495656016034,80.29585798762895,79.42646242947563,80.3179541863651
60.0,81.2637530299497,81.39064091217713,81.70495656016035,81.1552496621198,80.32646242947564,81.19174858565896
61.5,82.02808471660893,82.09064091217714,82.36153617164041,81.81511009042862,81.02646242947563,81.88727635286878
63.0,82.52500400950134,82.59064091217714,82.80495656016035,82.31511009042863,81.52646242947563,82.37408032201417
65.0,83.12500400950134,83.09064091217712,83.29053127841577,82.83384186820595,82.08250553821443,82.90472359092178
67.0,83.75679526888202,83.69064091217713,83.89053127841578,83.43384186820596,82.7288141271359,83.51911857965273
69.0,84.35679526888202,84.19064091217712,84.39053127841578,83.93384186820595,83.31343455995795,84.0545901077931
71.0,85.05679526888203,84.79064091217712,84.99053127841577,84.55382406591647,83.95964393161265,84.68788154127549
73.0,85.55679526888201,85.29064091217714,85.44729790907967,85.01329860156456,84.40813866257396,85.16209889695398
75.0,86.02422482640654,85.75832425577585,85.91868057446679,85.49217573836202,84.89752194677149,85.63633571618028
77.5,86.65832425577582,86.35832425577584,86.44729790907965,86.09217573836202,85.49244333463633,86.22784648867483
80.0,87.3921580316817,87.02500400950134,87.11868057446681,86.79217573836202,86.1975219467715,86.92336186869335
82.5,87.92650917439337,87.59064091217714,87.64729790907967,87.39217573836201,86.77545802840154,87.48311663916957
85.0,88.19215803168171,87.79064091217714,87.9186805744668,87.592175738362,87.06476102169079,87.7278185613468
87.5,88.25832425577585,87.92500400950134,88.0186805744668,87.69217573836202,87.19084850654141,87.83180828808656
90.0,88.19215803168171,87.85832425577584,87.9186805744668,87.592175738362,87.16949836963988,87.75974249914375
92.5,88.05832425577583,87.72500400950136,87.73301281305933,87.49217573836201,87.04829318302245,87.62406813523694
95.0,87.79215803168172,87.52500400950134,87.46153617164042,87.19217573836201,86.84291441360017,87.37461341742512
97.5,87.45832425577585,87.22500400950135,87.13301281305934,86.91189193653881,86.60135784099542,87.07559299634231
100.0,87.12422482640653,86.89064091217713,86.83301281305933,86.61144413517648,86.36986648217999,86.77338381066909
103.0,86.82422482640655,86.55832425577586,86.53301281305933,86.29217573836202,86.09096684942672,86.46691401196439
106.0,86.49064091217714,86.25832425577585,86.276057922741,85.97143395786674,85.81824222111142,86.1694763265254
109.0,86.22346324460149,85.92500400950134,85.976057922741,85.61144413517648,85.55719193923403,85.86562667943059
112.0,85.92346324460149,85.69294298876403,85.71901495378049,85.29217573836202,85.27632011692249,85.58825185864035
115.0,85.65679526888201,85.42500400950134,85.41966841528055,84.99217573836201,84.99955222331707,85.30650612011601
118.0,85.35679526888202,85.05832425577584,85.13467153870921,84.61329860156457,84.6779976451536,84.97734511428078
122.0,84.99064091217714,84.69294298876403,84.83467153870922,84.17513382800695,84.31039016783761,84.61176616680577
125.0,84.62500400950135,84.19294298876403,84.44997066258854,83.6990795295256,83.82083419573358,84.17202033191661
128.0,84.25832425577585,83.62808471660895,84.10726644624685,83.18435632169462,83.19966094391933,83.69852981927497
132.0,83.92500400950135,83.0967784280761,83.75191717771398,82.67492693642684,82.46060288101083,83.22017218809756
136.0,83.75988830029628,82.56596517221372,83.58031705125474,82.32664729249751,81.69652999369933,82.85530594219087
140.0,83.69294298876403,82.2021452008777,83.56512464414608,82.12263983450006,80.99276844021418,82.6294879458766
145.0,83.79294298876404,82.00904047274905,83.66512464414609,82.17406100677482,80.42632223251498,82.58228244911186
150.0,83.99294298876403,81.97970198445623,83.85022653595347,82.30665065443205,80.00707043182597,82.65502873737164
155.0,84.12808471660895,81.95083856009335,84.07736271664193,82.52675806323866,79.66361684531537,82.7535265231336
160.0,84.29294298876404,81.98884786903076,84.26284533509853,82.72675806323865,79.46011044778444,82.87501541695059
165.0,84.32808471660894,82.08884786903076,84.42129437820498,82.90665065443204,79.42492522581897,82.97682764255319
170.0,84.2967784280761,82.18884786903077,84.46284533509855,83.07406100677483,79.59830081025763,83.04511099952015
175.0,84.23270372244124,82.28884786903077,84.46284533509855,83.18272856210339,79.90986853903354,83.09582304171428
180.0,84.10214520087771,82.31746061055745,84.39053127841578,83.19232569435752,80.24825975961457,83.0832609405993
185.0,83.9021452008777,82.27970198445622,84.2336641719188,83.10301295771384,80.53883736160151,82.99822476367059
190.0,83.63885856651703,82.20904047274905,83.97736271664192,82.93804481921778,80.68330756706584,82.83785957300523
195.0,83.27610854227389,82.07207309104457,83.67736271664194,82.67492693642684,80.6458082447803,82.59182084610254
200.0,82.8761085422739,81.87207309104456,83.32096017435327,82.3706613126918,80.46322615398725,82.28656987457845
206.0,82.41389828798174,81.50214520087769,82.97736271664193,81.99340302798689,80.17945605311351,81.91236896548519
212.0,81.9522308471423,81.1021452008777,82.64827926276213,81.67492693642683,79.82268554491154,81.53941182837956
218.0,81.52318365573828,80.7021452008777,82.3336641719188,81.35208801009223,79.50117148643211,81.18183060482389
224.0,81.16232168417996,80.10214520087771,82.06284533509854,80.99340302798689,79.11603281824611,80.80013832784223
230.0,80.93400394153727,79.53885856651704,81.93465619459394,80.75504182109239,78.75704051727112,80.52418392499196
236.0,80.90615124949898,79.13885856651703,82.02361840653214,80.64330170110725,78.4334525517291,80.41591904556144
240.0,81.07875888927155,78.846545977022,82.2832842054471,80.63288219484082,78.18395066525215,80.45758735370043
250.0,81.40615124949899,78.82740119072179,82.62758192724088,80.77233732749302,78.03082526733692,80.6498905259433
258.0,81.87875888927154,79.05182209335916,83.15680384965741,80.98168918471639,78.00560370738711,81.00311417032289
265.0,82.35182209335917,79.48225240581951,83.64441953736471,81.20282723118062,77.90482676244697,81.37167959530062
272.0,82.89252792112492,80.1752605223805,84.2151138848054,81.51118670425863,77.66083006933957,81.83375097191562
280.0,83.45182209335917,81.15124179394915,84.77254558177975,81.96069465402546,77.20464605274626,82.36258409029148
290.0,83.93885700922993,82.20819885957123,85.2551762052851,82.56069465402547,76.74403686779692,82.9087789848676
300.0,84.36650140026056,83.27369675939745,85.65380290979442,83.26447637578161,76.65025157251411,83.47022005192362
307.0,84.75576187831838,84.1450931108053,86.03729107371592,83.95462447916256,77.1626547678193,84.01678425322962
315.0,85.05576187831838,84.68884786903077,86.26450794690234,84.56907547721741,78.11503191861898,84.43710962213379
325.0,85.45576187831838,85.05083856009335,86.507251005,84.9989710644235,79.22304203450423,84.82407759529079
335.0,85.62740119072178,85.25083856009333,86.63561800773175,85.14727359291416,80.07587985267955,85.02469827665018
345.0,85.72740119072179,85.32740119072179,86.63662492147506,85.0261804202627,80.60714660160998,85.07580392822132
355.0,85.63885700922992,85.19950598453772,86.52524428391138,84.6409117368056,80.73625495834658,84.93131598474278
365.0,85.47875888927155,85.01167080461047,86.2732364831471,84.18795196793747,80.56684688398595,84.6845370770043
375.0,85.31167080461047,84.78493799807981,86.10282512092884,83.81610976216746,80.23395996272708,84.45498524457801
387.0,85.21167080461046,84.59929590198172,86.02770779265877,83.720727394645,79.80098508267355,84.32038506206455
400.0,85.09950598453771,84.57369675939748,85.98340846685632,83.78508778339943,79.40397300716357,84.25874746462266
412.0,84.92740119072178,84.63281321132342,85.75436560704422,83.76595139764191,78.88471506584054,84.12679999424591
425.0,84.55576187831839,84.55865375768941,85.31422303123168,83.53047856541968,78.27731945658182,83.81588447754817
437.0,83.89460871890728,84.20579880652133,84.54825075299811,83.01565146895894,77.53012847766367,83.22386283414443
450.0,82.93885700922993,83.62244559818708,83.58359868432099,82.23934908531234,76.72143712205525,82.40403485872241
462.0,81.97875888927153,82.8424829497437,82.80365984496922,81.54437054564357,76.0064672431986,81.60418260654485
475.0,81.29252792112491,82.03564061210622,82.3708106629412,81.04574333724632,75.40033146934738,80.99665179586648
487.0,80.96628971504305,81.33270372244127,82.34062355433088,80.70980521504534,74.97206124682786,80.65527971560182
500.0,81.0245711513305,80.84368316131598,82.66443127716718,80.60637187264905,74.79590548882567,80.62877842176565
515.0,81.1752605223805,80.67051403433314,83.05748450306335,80.5211593744347,74.66477368127156,80.73336985658575
530.0,81.32764076057691,80.78661639103889,83.30067798817804,80.30859740996468,74.45535178703012,80.82572481448605
545.0,81.39485010448959,81.12100809461035,83.43641365298576,80.04788909738832,74.23291275536249,80.90296322391538
560.0,81.47526052238051,81.65608331161368,83.44232232633418,79.60121990643,73.89640214466391,80.95898568825967
580.0,81.58225240581952,82.14262335986513,83.38111808139787,79.06198149375382,73.39519434734139,80.98982807538789
600.0,81.81167080461047,82.5168416206638,83.28111808139786,78.57465018550074,72.96311212375993,81.03774199626824
615.0,82.17970198445624,82.58260107110362,83.2149656220398,78.29276622942596,72.63821782167028,81.08518898145533
630.0,82.65832425577585,82.4346263896303,83.39195792631575,78.58090825173352,72.83863496126935,81.26666172478514
650.0,83.22422482640653,82.30615852925477,83.8539649586745,79.50450581743435,73.55612361443947,81.67283232570414
670.0,83.99519148538621,82.40820018686033,84.50637957917938,80.6406242952149,74.50652845563856,82.31159777592231
690.0,84.69973970444481,82.84949375972262,85.2125009057074,81.71720205048382,75.34069995977316,83.02166452227307
710.0,85.26436692802591,83.49949592848358,85.65752257137902,82.23859022724042,75.66440546318584,83.54926573172716
730.0,85.62650917439338,84.00741145012086,85.76323104421346,82.1727310380739,75.23691747604752,83.77385885648195
750.0,85.82500400950134,84.27369675939747,85.57037260140174,81.7198934906994,74.380123988258,83.75308315634524
775.0,85.86138142559089,84.27369675939747,85.01037292906854,80.80820837903057,73.06980161224487,83.46682684812389
800.0,85.69893771788135,84.09021454711979,84.28119533506366,79.68320021320281,71.36769874099998,83.02141534770386
825.0,85.43923108250422,83.79021454711979,83.49880166602293,78.54271805421264,69.7175515591442,82.52319741222459
850.0,84.91748697515706,83.44164779306891,82.5965033985903,77.22731228452619,68.09137729121562,81.88782196495163
875.0,84.1990826699909,82.88436210704441,81.9298786057814,76.47176158863365,67.09702285038831,81.22353343005508
900.0,83.24846101896478,82.00445237525462,81.66247653926493,76.48469621475226,67.05879008333213,80.53965879645006
925.0,82.26684553730418,80.72598049749502,81.69017181678635,76.9191793972485,67.63574253222562,79.9060579815426
950.0,81.40741145012086,79.31978299157295,82.18091780305075,77.84422590997309,68.70255680686105,79.61229166709168
975.0,81.25865375768942,78.12625429811295,82.92083713477307,78.74746549730179,69.65696744923999,79.81078429393435
1000.0,81.65865375768942,77.60366338527741,83.44106209468738,79.25855401292013,70.17648893318898,80.16763112588991
1030.0,82.42533604906833,77.73564565251803,83.80974166009953,79.38995135950074,70.23443551787058,80.58455028987399
1060.0,83.29021454711979,78.48714653738897,83.96344575220786,79.22601892233877,70.11295152176824,80.98244443311518
1090.0,83.67085832322832,79.35880958076538,83.86211781568984,78.73461419256441,69.76968217426337,81.11716803376245
1120.0,83.64262335986511,79.93972492458849,83.77897210508434,78.24432852527201,69.4058695030539,81.10024482200275
1150.0,83.20890576136952,80.24988984074969,83.81908910919242,78.10686658374986,69.21961674982637,80.99849118887322
1180.0,82.30758744033378,80.28418267382557,83.83261077243365,78.17014002875126,69.22299586339068,80.7375754643745
1220.0,81.16125822658054,80.01009298176473,83.92029473994418,78.58239377886977,69.57497965074016,80.48229265092579
1250.0,80.16487077892147,79.5116694079609,84.14628968799852,79.25625777549148,70.22306354869932,80.39664672520526
1280.0,79.36683490127731,78.63498898703907,84.44345598544965,79.7371510178391,70.85009129550565,80.36585221293006
1320.0,79.23514648655755,77.53595803438827,84.69880739857669,80.1143643160205,71.24773308789011,80.42646664355047
1360.0,79.59160158624303,76.76947463205612,84.7744689277348,80.11099903512766,71.11974969738682,80.4478089985875
1400.0,79.95298152243208,76.40820241836278,84.5996018376355,79.8277162637452,70.58800739672446,80.3229196155839
1450.0,80.0182935324932,76.84340437611101,84.2793929060497,79.6332846290088,69.94239309188875,80.15708584352683
1500.0,79.75936036938734,77.76419826104923,83.94365842579968,79.66861974649123,69.41427148838085,80.03213909211291
1550.0,79.11685742294446,78.89003005664914,83.74948983164981,79.97730321447828,69.34181263376342,80.03656845026528
1600.0,78.39907645591882,80.02979840356377,83.837912371397,80.46066530118256,69.62348049330676,80.27107469029384
1650.0,77.8993149630809,81.0771412653358,84.09388157490321,80.99972671930435,69.94762676461895,80.66132714797257
1700.0,77.77233773045438,82.06627736636999,84.60756388905666,81.32165200508598,70.107616003154,81.17620725402284
1750.0,78.0270468227936,82.85182209335917,85.24373097446373,81.41997711493119,69.79812906148568,81.69689839859953
1800.0,78.89956946451525,83.47051403433314,85.89272682767084,81.27754145950311,69.1595025918951,82.20531405748959
1850.0,80.13437476504251,83.84846101896477,86.44765458731892,80.87366195919402,68.510626423903,82.63128992924901
1900.0,81.58460560636173,83.85655749818818,86.7826415445306,80.1971452245595,68.1836172033269,82.90037804159242
1950.0,82.87305970801668,83.59709759144516,86.91873230917761,79.61712029831158,68.50830936579749,83.06752030659001
2000.0,83.52200164624907,83.07639405938944,86.8331608422067,79.27116382726585,69.25508606970692,83.02482108620703
2060.0,83.55270958773687,82.60394181299152,86.50702986472902,79.10670001025909,69.86010520591347,82.77489964550232
2120.0,83.00900272230513,82.0551345311192,85.93176279663385,79.1249531910817,70.1254559674912,82.27578165052648
2180.0,82.25214261429875,81.37382610856736,85.08215278357068,78.89951994912505,69.68084113136243,81.54938875361769
2240.0,81.50326218561106,80.40838487161952,84.18492909539319,78.53692208401756,68.85658924071991,80.73659355708291
2300.0,80.977689697747,79.21353157777214,83.44347045135075,78.21501550000481,67.96887024262884,80.01926660314808
2360.0,80.62537602681189,77.83598381715629,82.94425840474038,77.9535448506331,67.25940635642355,79.4544094894194
2400.0,80.11260703321119,76.59815480406526,82.68495195323605,77.87928913272358,66.71515788782047,79.03025566437735
2500.0,79.24056939006941,75.3842570079417,82.69712449432276,77.66789258606545,66.16302856337569,78.65902727661341
2580.0,78.34937460058595,74.04450966104379,82.68875999570729,77.40669687417724,65.52037292153486,78.30062398332923
2650.0,77.48489798803372,72.7122355873198,82.68875999570729,77.02216931288825,64.91609552905378,77.97844454496926
2720.0,76.75569563320326,71.5902835094416,82.54302313537639,76.66323675801277,64.38199283783209,77.64205626810474
2800.0,76.29470922170663,71.1271355920982,82.43265539637773,76.27454487266411,63.97922530616421,77.4126114520208
2900.0,75.90654643006417,71.55011159885215,82.30487735328298,75.97920667022939,63.72927587767991,77.24682691515933
3000.0,75.57761412616287,72.45832425577585,82.15796490994991,75.58804429402046,63.60600507723936,77.10280325020227
3070.0,75.7151223609344,73.52808471660894,82.08681199984306,75.26807821256398,63.6858165785215,77.1176961062905
3150.0,76.07305970801667,74.58884786903076,82.04964423594338,75.27575452767043,64.01330835727033,77.25551036699632
3250.0,76.54949375972262,75.458079681833,82.11678887821677,75.56434377143727,64.41422206467057,77.5113155118795
3350.0,77.29252655023767,76.09908667141099,82.41974251354128,76.31202249007185,64.80601709294083,77.98944009263843
