Freq,Floor Bounce,Ceiling Bounce,Front Wall Bounce,Side Wall Bounce,Rear Wall Bounce,Total Early Reflection
22.4,53.37368955247675,37.45288613127255,51.55453215702113,45.73971321489745,32.789930161781314,49.089694178066054
23.0,53.680710258333136,38.26051225076182,51.5278129472525,45.426835153686596,33.41041003674732,49.235822919511804
23.6,53.914890104392015,38.98529497271812,51.44445902053124,45.18931061215281,34.110633169641744,49.33788439241957
24.0,54.2254739188954,39.834149981818456,51.3626238414889,44.89467516561956,34.820166057827464,49.49345199538564
25.0,54.43761984436102,40.61960515610809,51.23773969330472,44.65436815192015,35.547732031464164,49.59155629793588
25.8,54.653647371312275,41.46356507458077,51.189250095508925,44.3384352070934,36.28065143430425,49.72106896381479
26.5,54.89077924956126,42.43158144041334,51.002749400341855,44.00663244436336,37.17793658539742,49.84284186042754
27.2,55.201871820334446,43.52348556532604,50.72467929101373,43.432487893445256,38.339537231706544,50.0069980308632
28.0,55.63158916692177,45.08795498774302,50.04017252637868,42.31270304544685,40.2177928328025,50.22406999167424
29.0,56.18710474000591,47.16061809080708,48.68772600964172,40.37414513103036,42.77612025646124,50.579794030443736
30.0,56.68923021573022,48.7641419384415,47.01175578898594,39.74465167418566,44.802904002889164,51.015504693161404
30.7,57.14937177525189,50.07317063896889,45.08595094177895,40.6454853370723,46.52172019381729,51.517826032196496
31.5,57.69074418347742,51.40554950338955,41.92512321026055,43.27023182051812,48.21339552363898,52.19526897884674
32.5,58.32781135802341,53.116276150499914,40.36019226989413,46.79930972662879,50.36136331463274,53.233608552285915
33.5,59.214702839047874,55.08910480561005,45.069675647714035,50.660705539437544,52.76652448684689,54.756758416488935
34.5,59.88480967373462,56.50799265215588,49.62979499755906,53.058672989392136,54.461161704011914,56.009140393311554
35.5,60.63477854745449,58.05953166004181,53.15742449135814,55.38687476659496,56.20137853900988,57.4298178748694
36.5,61.60910102226441,59.88335937246299,56.671986313588576,57.881088726648954,58.163596272096186,59.19684017876807
37.5,62.65671344964049,61.54608461666675,59.44346508697899,60.00590078639621,59.933881710959895,60.89000329579227
38.7,63.71457895753311,63.173142111360846,61.829460668555924,62.00137091259006,61.61575974011288,62.547161700445514
40.0,64.84898359150841,64.80231994589775,63.94379075419728,63.762134805800684,63.18380725333941,64.15470384636548
41.2,66.10542400732662,66.36769521305294,65.85840584504062,65.4649119959506,64.71453778142356,65.7393302882236
42.5,67.27001488257477,67.86769521305294,67.55840584504062,67.00695883351148,66.14203982356928,67.2076293745465
43.7,68.79188145404554,69.56692185116049,69.53108675663174,68.83128689490087,67.85281794293441,68.95853288121258
45.0,70.2523764150643,71.1,71.24608542591295,70.43128689490088,69.35772395797119,70.5287356645834
46.2,71.40724699916734,72.30000000000001,72.54608542591296,71.71250022107085,70.6057529608522,71.76741104663012
47.5,72.78042420054254,73.66692185116051,73.97331062323637,73.15226959352627,72.03760761564615,73.17435114501478
48.7,74.28042420054254,75.1669218511605,75.50229476693693,74.65226959352627,73.59534823060137,74.69026094826671
50.0,75.43855083142047,76.16692185116051,76.57331062323637,75.77046252427118,74.73760761564614,75.78208728390368
51.5,76.72457672584498,77.3669218511605,77.77331062323637,77.00920611180408,75.97322157347014,77.01142886291203
53.0,78.01213611976861,78.50076749445562,78.9584058450406,78.2092061118041,77.23658901175412,78.22023364715284
54.5,78.96235742942079,79.40076749445564,79.78748929892042,79.10920611180408,78.1632108775405,79.11744641089822
56.0,79.72402487026022,80.03435140868503,80.42979499755904,79.7676451375008,78.85317705315455,79.7920465223848
58.0,80.6162794008364,80.83435140868502,81.21508314243883,80.60598456990743,79.73658901175412,80.62808076864358
60.0,81.57387961222818,81.70076749445562,82.01508314243884,81.46537624439829,80.63658901175413,81.50187516793744
61.5,82.33821129888742,82.40076749445562,82.6716627539189,82.1252366727071,81.33658901175411,82.19740293514727
63.0,82.83513059177983,82.90076749445562,83.11508314243883,82.62523667270712,81.83658901175411,82.68420690429265
65.0,83.43513059177982,83.40076749445561,83.60065786069426,83.14396845048444,82.39263212049292,83.21485017320026
67.0,84.0669218511605,84.00076749445562,84.20065786069426,83.74396845048445,83.03894070941439,83.82924516193121
69.0,84.66692185116051,84.5007674944556,84.70065786069426,84.24396845048443,83.62356114223644,84.36471669007159
71.0,85.36692185116051,85.10076749445561,85.30065786069426,84.86395064819496,84.26977051389113,84.99800812355397
73.0,85.8669218511605,85.60076749445562,85.75742449135815,85.32342518384304,84.71826524485245,85.47222547923246
75.0,86.33435140868502,86.06845083805433,86.22880715674528,85.8023023206405,85.20764852904998,85.94646229845877
77.5,86.96845083805431,86.66845083805433,86.75742449135814,86.4023023206405,85.80256991691482,86.53797307095331
80.0,87.70228461396019,87.33513059177983,87.4288071567453,87.1023023206405,86.50764852904999,87.23348845097183
82.5,88.23663575667186,87.90076749445562,87.95742449135815,87.7023023206405,87.08558461068003,87.79324322144805
85.0,88.5022846139602,88.10076749445562,88.22880715674529,87.90230232064049,87.37488760396927,88.03794514362528
87.5,88.56845083805433,88.23513059177982,88.32880715674528,88.00230232064051,87.5009750888199,88.14193487036505
90.0,88.5022846139602,88.16845083805433,88.22880715674529,87.90230232064049,87.47962495191837,88.06986908142224
92.5,88.36845083805431,88.03513059177985,88.04313939533782,87.80230232064049,87.35841976530094,87.93419471751542
95.0,88.10228461396021,87.83513059177983,87.7716627539189,87.5023023206405,87.15304099587865,87.68473999970361
97.5,87.76845083805433,87.53513059177983,87.44313939533782,87.2220185188173,86.9114844232739,87.3857195786208
100.0,87.43435140868502,87.20076749445562,87.14313939533781,86.92157071745497,86.67999306445847,87.08351039294757
103.0,87.13435140868503,86.86845083805434,86.84313939533781,86.6023023206405,86.4010934317052,86.77704059424288
106.0,86.80076749445563,86.56845083805433,86.58618450501949,86.28156054014522,86.1283688033899,86.47960290880388
109.0,86.53358982687998,86.23513059177982,86.28618450501949,85.92157071745497,85.86731852151252,86.17575326170908
112.0,86.23358982687998,86.00306957104252,86.02914153605897,85.6023023206405,85.58644669920098,85.89837844091883
115.0,85.96692185116049,85.73513059177982,85.72979499755904,85.30230232064049,85.30967880559555,85.6166327023945
118.0,85.66692185116051,85.36845083805433,85.4447981209877,84.92342518384305,84.98812422743208,85.28747169655927
122.0,85.30076749445563,85.00306957104252,85.1447981209877,84.48526041028543,84.6205167501161,84.92189274908425
125.0,84.93513059177984,84.50306957104252,84.76009724486703,84.00920611180409,84.13096077801207,84.4821469141951
128.0,84.56845083805433,83.93821129888744,84.41739302852534,83.49448290397311,83.50978752619781,84.00865640155345
132.0,84.23513059177984,83.40690501035459,84.06204375999246,82.98505351870533,82.77072946328931,83.53029877037605
136.0,84.07001488257477,82.87609175449221,83.89044363353322,82.636773874776,82.00665657597781,83.16543252446935
140.0,84.00306957104252,82.51227178315618,83.87525122642457,82.43276641677855,81.30289502249266,82.93961452815509
145.0,84.10306957104252,82.31916705502753,83.97525122642458,82.4841875890533,80.73644881479346,82.89240903139034
150.0,84.30306957104251,82.28982856673471,84.16035311823195,82.61677723671053,80.31719701410445,82.96515531965012
155.0,84.43821129888744,82.26096514237183,84.38748929892041,82.83688464551715,79.97374342759386,83.06365310541209
160.0,84.60306957104252,82.29897445130925,84.57297191737702,83.03688464551713,79.77023703006293,83.18514199922907
165.0,84.63821129888743,82.39897445130924,84.73142096048346,83.21677723671053,79.73505180809745,83.28695422483167
170.0,84.60690501035458,82.49897445130925,84.77297191737703,83.38418758905331,79.90842739253611,83.35523758179863
175.0,84.54283030471973,82.59897445130926,84.77297191737703,83.49285514438188,80.21999512131202,83.40594962399277
180.0,84.4122717831562,82.62758719283593,84.70065786069426,83.502452276636,80.55838634189305,83.39338752287779
185.0,84.21227178315618,82.58982856673471,84.54379075419729,83.41313953999233,80.84896394388,83.30835134594908
190.0,83.94898514879551,82.51916705502754,84.2874892989204,83.24817140149626,80.99343414934432,83.14798615528372
195.0,83.58623512455237,82.38219967332306,83.98748929892042,82.98505351870533,80.95593482705878,82.90194742838102
200.0,83.18623512455238,82.18219967332304,83.63108675663176,82.68078789497028,80.77335273626574,82.59669645685693
206.0,82.72402487026022,81.81227178315618,83.28748929892042,82.30352961026537,80.489582635392,82.22249554776367
212.0,82.26235742942079,81.41227178315619,82.95840584504062,81.98505351870531,80.13281212719002,81.84953841065804
218.0,81.83331023801676,81.01227178315618,82.64379075419728,81.66221459237072,79.8112980687106,81.49195718710237
224.0,81.47244826645844,80.4122717831562,82.37297191737703,81.30352961026537,79.4261594005246,81.11026491012072
230.0,81.24413052381576,79.84898514879552,82.24478277687243,81.06516840337088,79.06716709954961,80.83431050727044
236.0,81.21627783177746,79.44898514879551,82.33374498881062,80.95342828338573,78.74357913400759,80.72604562783992
240.0,81.38888547155004,79.15667255930049,82.59341078772559,80.9430087771193,78.49407724753064,80.76771393597892
250.0,81.71627783177748,79.13752777300027,82.93770850951937,81.0824639097715,78.34095184961541,80.96001710822179
258.0,82.18888547155002,79.36194867563765,83.4669304319359,81.29181576699487,78.3157302896656,81.31324075260137
265.0,82.66194867563766,79.792378988098,83.9545461196432,81.5129538134591,78.21495334472546,81.6818061775791
272.0,83.20265450340341,80.48538710465898,84.52524046708389,81.82131328653712,77.97095665161805,82.1438775541941
280.0,83.76194867563765,81.46136837622764,85.08267216405824,82.27082123630395,77.51477263502474,82.67271067256996
290.0,84.24898359150842,82.51832544184971,85.56530278756358,82.87082123630395,77.05416345007541,83.21890556714608
300.0,84.67662798253905,83.58382334167594,85.96392949207291,83.5746029580601,76.9603781547926,83.7803466342021
307.0,85.06588846059687,84.45521969308379,86.3474176559944,84.26475106144105,77.47278135009779,84.3269108355081
315.0,85.36588846059686,84.99897445130925,86.57463452918083,84.8792020594959,78.42515850089747,84.74723620441227
325.0,85.76588846059687,85.36096514237184,86.81737758727849,85.30909764670199,79.53316861678272,85.13420417756927
335.0,85.93752777300027,85.56096514237181,86.94574459001024,85.45740017519265,80.38600643495803,85.33482485892867
345.0,86.03752777300028,85.63752777300027,86.94675150375355,85.33630700254119,80.91727318388847,85.3859305104998
355.0,85.94898359150841,85.50963256681621,86.83537086618986,84.95103831908409,81.04638154062506,85.24144256702127
365.0,85.78888547155003,85.32179738688896,86.58336306542559,84.49807855021595,80.87697346626443,84.99466365928278
375.0,85.62179738688896,85.0950645803583,86.41295170320733,84.12623634444594,80.54408654500557,84.7651118268565
387.0,85.52179738688895,84.9094224842602,86.33783437493726,84.03085397692348,80.11111166495203,84.63051164434303
400.0,85.4096325668162,84.88382334167596,86.2935350491348,84.09521436567792,79.71409958944206,84.56887404690114
412.0,85.23752777300027,84.94293979360191,86.0644921893227,84.0760779799204,79.19484164811902,84.4369265765244
425.0,84.86588846059688,84.8687803399679,85.62434961351016,83.84060514769817,78.5874460388603,84.12601105982665
437.0,84.20473530118576,84.51592538879981,84.8583773352766,83.32577805123742,77.84025505994215,83.53398941642291
450.0,83.24898359150842,83.93257218046557,83.89372526659947,82.54947566759083,77.03156370433373,82.7141614410009
462.0,82.28888547155002,83.15260953202218,83.1137864272477,81.85449712792206,76.31659382547709,81.91430918882334
475.0,81.6026545034034,82.3457671943847,82.68093724521968,81.3558699195248,75.71045805162586,81.30677837814497
487.0,81.27641629732153,81.64283030471975,82.65075013660936,81.01993179732382,75.28218782910635,80.9654062978803
500.0,81.33469773360899,81.15380974359446,82.97455785944567,80.91649845492753,75.10603207110415,80.93890500404413
515.0,81.48538710465898,80.98064061661162,83.36761108534184,80.83128595671319,74.97490026355004,81.04349643886424
530.0,81.6377673428554,81.09674297331738,83.61080457045652,80.61872399224316,74.76547836930861,81.13585139676454
545.0,81.70497668676808,81.43113467688883,83.74654023526425,80.3580156796668,74.54303933764098,81.21308980619386
560.0,81.785387104659,81.96620989389217,83.75244890861266,79.91134648870849,74.2065287269424,81.26911227053816
580.0,81.892378988098,82.45274994214361,83.69124466367636,79.3721080760323,73.70532092961987,81.29995465766638
600.0,82.12179738688896,82.82696820294228,83.59124466367635,78.88477676777923,73.27323870603841,81.34786857854672
615.0,82.48982856673473,82.89272765338211,83.52509220431828,78.60289281170445,72.94834440394877,81.39531556373382
630.0,82.96845083805434,82.74475297190878,83.70208450859424,78.891034834012,73.14876154354783,81.57678830706362
650.0,83.53435140868501,82.61628511153326,84.16409154095298,79.81463239971283,73.86625019671796,81.98295890798262
670.0,84.3053180676647,82.71832676913881,84.81650616145787,80.95075087749339,74.81665503791704,82.6217243582008
690.0,85.0098662867233,83.1596203420011,85.52262748798589,82.0273286327623,75.65082654205165,83.33179110455156
710.0,85.57449351030439,83.80962251076207,85.9676491536575,82.54871680951891,75.97453204546433,83.85939231400565
730.0,85.93663575667186,84.31753803239934,86.07335762649194,82.48285762035239,75.54704405832601,84.08398543876044
750.0,86.13513059177983,84.58382334167595,85.88049918368023,82.03002007297789,74.69025057053649,84.06320973862373
775.0,86.17150800786938,84.58382334167595,85.32049951134702,81.11833496130906,73.37992819452336,83.77695343040237
800.0,86.00906430015984,84.40034112939827,84.59132191734214,79.9933267954813,71.67782532327847,83.33154192998235
825.0,85.7493576647827,84.10034112939827,83.80892824830141,78.85284463649113,70.02767814142268,82.83332399450308
850.0,85.22761355743555,83.7517743753474,82.90662998086879,77.53743886680468,68.40150387349411,82.19794854723011
875.0,84.50920925226939,83.1944886893229,82.24000518805988,76.78188817091214,67.4071494326668,81.53366001233357
900.0,83.55858760124326,82.3145789575331,81.97260312154341,76.79482279703075,67.36891666561061,80.84978537872854
925.0,82.57697211958266,81.0361070797735,82.00029839906483,77.22930597952698,67.9458691145041,80.21618456382109
950.0,81.71753803239935,79.62990957385144,82.49104438532923,78.15435249225158,69.01268338913954,79.92241824937017
975.0,81.5687803399679,78.43638088039144,83.23096371705155,79.05759207958027,69.96709403151847,80.12091087621283
1000.0,81.9687803399679,77.9137899675559,83.75118867696587,79.56868059519861,70.48661551546746,80.4777577081684
1030.0,82.73546263134682,78.04577223479652,84.11986824237802,79.70007794177923,70.54456210014907,80.89467687215247
1060.0,83.60034112939827,78.79727311966745,84.27357233448635,79.53614550461725,70.42307810404672,81.29257101539366
1090.0,83.9809849055068,79.66893616304387,84.17224439796833,79.0447407748429,70.07980875654185,81.42729461604094
1120.0,83.9527499421436,80.24985150686697,84.08909868736282,78.5544551075505,69.71599608533239,81.41037140428124
1150.0,83.519032343648,80.56001642302817,84.1292156914709,78.41699316602835,69.52974333210486,81.3086177711517
1180.0,82.61771402261226,80.59430925610405,84.14273735471214,78.48026661102975,69.53312244566916,81.04770204665299
1220.0,81.47138480885903,80.32021956404321,84.23042132222267,78.89252036114826,69.88510623301865,80.79241923320427
1250.0,80.47499736119995,79.82179599023938,84.456416270277,79.56638435776996,70.5331901309778,80.70677330748374
1280.0,79.6769614835558,78.94511556931755,84.75358256772813,80.04727760011758,71.16021787778413,80.67597879520855
1320.0,79.54527306883604,77.84608461666676,85.00893398085518,80.42449089829898,71.5578596701686,80.73659322582895
1360.0,79.90172816852152,77.0796012143346,85.08459551001329,80.42112561740615,71.42987627966531,80.75793558086599
1400.0,80.26310810471057,76.71832900064126,84.90972841991399,80.13784284602369,70.89813397900295,80.63304619786238
1450.0,80.32842011477169,77.1535309583895,84.58951948832818,79.94341121128728,70.25251967416723,80.46721242580531
1500.0,80.06948695166582,78.07432484332772,84.25378500807817,79.97874632876972,69.72439807065933,80.3422656743914
1550.0,79.42698400522295,79.20015663892762,84.0596164139283,80.28742979675677,69.65193921604191,80.34669503254376
1600.0,78.7092030381973,80.33992498584226,84.14803895367548,80.77079188346104,69.93360707558524,80.58120127257233
1650.0,78.20944154535938,81.38726784761428,84.40400815718169,81.30985330158283,70.25775334689743,80.97145373025106
1700.0,78.08246431273287,82.37640394864847,84.91769047133515,81.63177858736447,70.41774258543249,81.48633383630133
1750.0,78.33717340507208,83.16194867563766,85.55385755674222,81.73010369720967,70.10825564376417,82.00702498087801
1800.0,79.20969604679374,83.78064061661162,86.20285340994933,81.5876680417816,69.46962917417359,82.51544063976807
1850.0,80.444501347321,84.15858760124325,86.75778116959741,81.18378854147251,68.82075300618149,82.94141651152749
1900.0,81.89473218864022,84.16668408046667,87.09276812680909,80.50727180683799,68.49374378560539,83.2105046238709
1950.0,83.18318629029517,83.90722417372365,87.2288588914561,79.92724688059006,68.81843594807597,83.3776468888685
2000.0,83.83212822852755,83.38652064166793,87.14328742448518,79.58129040954434,69.5652126519854,83.33494766848551
2060.0,83.86283617001536,82.91406839527001,86.8171564470075,79.41682659253757,70.17023178819196,83.0850262277808
2120.0,83.31912930458361,82.36526111339768,86.24188937891233,79.43507977336019,70.43558254976969,82.58590823280497
2180.0,82.56226919657723,81.68395269084584,85.39227936584916,79.20964653140354,69.99096771364091,81.85951533589618
2240.0,81.81338876788955,80.718511453898,84.49505567767167,78.84704866629605,69.1667158229984,81.0467201393614
2300.0,81.28781628002548,79.52365816005063,83.75359703362923,78.5251420822833,68.27899682490732,80.32939318542657
2360.0,80.93550260909038,78.14611039943478,83.25438498701887,78.26367143291158,67.56953293870204,79.76453607169789
2400.0,80.42273361548968,76.90828138634375,82.99507853551454,78.18941571500207,67.02528447009895,79.34038224665584
2500.0,79.5506959723479,75.69438359022018,83.00725107660125,77.97801916834393,66.47315514565418,78.9691538588919
2580.0,78.65950118286443,74.35463624332228,82.99888657798577,77.71682345645573,65.83049950381334,78.61075056560772
2650.0,77.79502457031221,73.02236216959828,82.99888657798577,77.33229589516674,65.22622211133226,78.28857112724775
2720.0,77.06582221548175,71.90041009172009,82.85314971765487,76.97336334029126,64.69211942011057,77.95218285038322
2800.0,76.60483580398511,71.43726217437668,82.74278197865621,76.5846714549426,64.2893518884427,77.72273803429928
2900.0,76.21667301234265,71.86023818113064,82.61500393556146,76.28933325250787,64.0394024599584,77.55695349743782
3000.0,75.88774070844136,72.76845083805433,82.4680914922284,75.89817087629895,63.916131659517845,77.41292983248076
3070.0,76.02524894321289,73.83821129888743,82.39693858212155,75.57820479484246,63.99594316079998,77.42782268856898
3150.0,76.38318629029516,74.89897445130924,82.35977081822186,75.58588110994891,64.32343493954882,77.5656369492748
3250.0,76.85962034200111,75.76820626411148,82.42691546049525,75.87447035371575,64.72434864694905,77.82144209415799
3350.0,77.60265313251615,76.40921325368947,82.72986909581977,76.62214907235034,65.11614367521932,78.29956667491692
