Freq "Floor Bounce"
22.4 53.06356297019826
23.0 53.37058367605465
23.6 53.60476352211353
24.0 53.91534733661692
25.0 54.12749326208254
25.8 54.34352078903379
26.5 54.58065266728278
27.2 54.89174523805596
28.0 55.321462584643285
29.0 55.87697815772742
30.0 56.379103633451734
30.7 56.83924519297341
31.5 57.380617601198935
32.5 58.017684775744925
33.5 58.90457625676939
34.5 59.57468309145614
35.5 60.324651965176
36.5 61.298974439985926
37.5 62.34658686736201
38.7 63.40445237525462
40.0 64.53885700922993
41.2 65.79529742504813
42.5 66.95988830029629
43.7 68.48175487176705
45.0 69.94224983278582
46.2 71.09712041688886
47.5 72.47029761826406
48.7 73.97029761826406
50.0 75.12842424914199
51.5 76.4144501435665
53.0 77.70200953749013
54.5 78.6522308471423
56.0 79.41389828798174
58.0 80.30615281855792
60.0 81.2637530299497
61.5 82.02808471660893
63.0 82.52500400950134
65.0 83.12500400950134
67.0 83.75679526888202
69.0 84.35679526888202
71.0 85.05679526888203
73.0 85.55679526888201
75.0 86.02422482640654
77.5 86.65832425577582
80.0 87.3921580316817
82.5 87.92650917439337
85.0 88.19215803168171
87.5 88.25832425577585
90.0 88.19215803168171
92.5 88.05832425577583
95.0 87.79215803168172
97.5 87.45832425577585
100.0 87.12422482640653
103.0 86.82422482640655
106.0 86.49064091217714
109.0 86.22346324460149
112.0 85.92346324460149
115.0 85.65679526888201
118.0 85.35679526888202
122.0 84.99064091217714
125.0 84.62500400950135
128.0 84.25832425577585
132.0 83.92500400950135
136.0 83.75988830029628
140.0 83.69294298876403
145.0 83.79294298876404
150.0 83.99294298876403
155.0 84.12808471660895
160.0 84.29294298876404
165.0 84.32808471660894
170.0 84.2967784280761
175.0 84.23270372244124
180.0 84.10214520087771
185.0 83.9021452008777
190.0 83.63885856651703
195.0 83.27610854227389
200.0 82.8761085422739
206.0 82.41389828798174
212.0 81.9522308471423
218.0 81.52318365573828
224.0 81.16232168417996
230.0 80.93400394153727
236.0 80.90615124949898
240.0 81.07875888927155
250.0 81.40615124949899
258.0 81.87875888927154
265.0 82.35182209335917
272.0 82.89252792112492
280.0 83.45182209335917
290.0 83.93885700922993
300.0 84.36650140026056
307.0 84.75576187831838
315.0 85.05576187831838
325.0 85.45576187831838
335.0 85.62740119072178
345.0 85.72740119072179
355.0 85.63885700922992
365.0 85.47875888927155
375.0 85.31167080461047
387.0 85.21167080461046
400.0 85.09950598453771
412.0 84.92740119072178
425.0 84.55576187831839
437.0 83.89460871890728
450.0 82.93885700922993
462.0 81.97875888927153
475.0 81.29252792112491
487.0 80.96628971504305
500.0 81.0245711513305
515.0 81.1752605223805
530.0 81.32764076057691
545.0 81.39485010448959
560.0 81.47526052238051
580.0 81.58225240581952
600.0 81.81167080461047
615.0 82.17970198445624
630.0 82.65832425577585
650.0 83.22422482640653
670.0 83.99519148538621
690.0 84.69973970444481
710.0 85.26436692802591
730.0 85.62650917439338
750.0 85.82500400950134
775.0 85.86138142559089
800.0 85.69893771788135
825.0 85.43923108250422
850.0 84.91748697515706
875.0 84.1990826699909
900.0 83.24846101896478
925.0 82.26684553730418
950.0 81.40741145012086
975.0 81.25865375768942
1000.0 81.65865375768942
1030.0 82.42533604906833
1060.0 83.29021454711979
1090.0 83.67085832322832
1120.0 83.64262335986511
1150.0 83.20890576136952
1180.0 82.30758744033378
1220.0 81.16125822658054
1250.0 80.16487077892147
1280.0 79.36683490127731
1320.0 79.23514648655755
1360.0 79.59160158624303
1400.0 79.95298152243208
1450.0 80.0182935324932
1500.0 79.75936036938734
1550.0 79.11685742294446
1600.0 78.39907645591882
1650.0 77.8993149630809
1700.0 77.77233773045438
1750.0 78.0270468227936
1800.0 78.89956946451525
1850.0 80.13437476504251
1900.0 81.58460560636173
1950.0 82.87305970801668
2000.0 83.52200164624907
2060.0 83.55270958773687
2120.0 83.00900272230513
2180.0 82.25214261429875
2240.0 81.50326218561106
2300.0 80.977689697747
2360.0 80.62537602681189
2400.0 80.11260703321119
2500.0 79.24056939006941
2580.0 78.34937460058595
2650.0 77.48489798803372
2720.0 76.75569563320326
2800.0 76.29470922170663
2900.0 75.90654643006417
3000.0 75.57761412616287
3070.0 75.7151223609344
3150.0 76.07305970801667
3250.0 76.54949375972262
3350.0 77.29252655023767
3450.0 77.89929590198172
3550.0 78.6144501435665
3650.0 79.42036929410125
3750.0 80.13598744912026
3870.0 80.73570488929549
4000.0 81.025980497495
4120.0 81.08792012520868
4250.0 81.0385635530922
4370.0 81.01029769330354
4500.0 81.12537602681189
4620.0 81.30793504499789
4750.0 81.51802467672647
4870.0 81.71604518417368
5000.0 81.74285334134596
5150.0 81.9327493372567
5300.0 82.18004923765908
5450.0 82.26428869512566
5600.0 82.41505387207746
5800.0 82.44254356621863
6000.0 82.26243512311203
6150.0 81.90665497710205
6300.0 81.34788638324929
6500.0 80.54788638324928
6700.0 79.62198149977137
6900.0 78.74460177775978
7100.0 78.16319645382774
7300.0 78.05084900926957
7500.0 78.56265016260838
7750.0 79.31483791163204
8000.0 80.16077805086942
8250.0 80.63793272169886
8500.0 80.54213604849652
8750.0 79.98125358230344
9000.0 78.91584779399206
9250.0 77.76938820056003
9500.0 76.85041394925751
9750.0 76.47671120535782
10000.0 76.78563278935525
10300.0 77.64411206442057
10600.0 78.42075461111993
10900.0 78.87876205310803
11200.0 78.58741713207232
11500.0 77.69531558035
11800.0 76.65395290516297
12200.0 76.2754148424007
12500.0 76.60892041130816
12800.0 77.51317609912245
13200.0 78.53872477689458
13600.0 79.2302364786605
14000.0 79.48351276036175
14500.0 79.47165964054359
15000.0 79.26910149150574
15500.0 79.01956971588828
16000.0 78.69586804719717
16500.0 78.56870240762399
17000.0 78.17990797082135
17500.0 77.19983947660205
18000.0 75.5807641051997
18500.0 73.34768071963178
19000.0 71.09192238401232
19500.0 69.63079369445427
