Freq "Rear Wall Bounce"
22.4 32.47980357950283
23.0 33.10028345446884
23.6 33.80050658736326
24.0 34.51003947554898
25.0 35.23760544918568
25.8 35.97052485202576
26.5 36.86781000311893
27.2 38.02941064942806
28.0 39.90766625052402
29.0 42.465993674182755
30.0 44.49277742061068
30.7 46.2115936115388
31.5 47.903268941360494
32.5 50.051236732354255
33.5 52.456397904568405
34.5 54.15103512173343
35.5 55.891251956731395
36.5 57.8534696898177
37.5 59.62375512868141
38.7 61.30563315783439
40.0 62.873680671060924
41.2 64.40441119914507
42.5 65.83191324129079
43.7 67.54269136065592
45.0 69.0475973756927
46.2 70.29562637857371
47.5 71.72748103336767
48.7 73.28522164832289
50.0 74.42748103336766
51.5 75.66309499119166
53.0 76.92646242947563
54.5 77.85308429526201
56.0 78.54305047087607
58.0 79.42646242947563
60.0 80.32646242947564
61.5 81.02646242947563
63.0 81.52646242947563
65.0 82.08250553821443
67.0 82.7288141271359
69.0 83.31343455995795
71.0 83.95964393161265
73.0 84.40813866257396
75.0 84.89752194677149
77.5 85.49244333463633
80.0 86.1975219467715
82.5 86.77545802840154
85.0 87.06476102169079
87.5 87.19084850654141
90.0 87.16949836963988
92.5 87.04829318302245
95.0 86.84291441360017
97.5 86.60135784099542
100.0 86.36986648217999
103.0 86.09096684942672
106.0 85.81824222111142
109.0 85.55719193923403
112.0 85.27632011692249
115.0 84.99955222331707
118.0 84.6779976451536
122.0 84.31039016783761
125.0 83.82083419573358
128.0 83.19966094391933
132.0 82.46060288101083
136.0 81.69652999369933
140.0 80.99276844021418
145.0 80.42632223251498
150.0 80.00707043182597
155.0 79.66361684531537
160.0 79.46011044778444
165.0 79.42492522581897
170.0 79.59830081025763
175.0 79.90986853903354
180.0 80.24825975961457
185.0 80.53883736160151
190.0 80.68330756706584
195.0 80.6458082447803
200.0 80.46322615398725
206.0 80.17945605311351
212.0 79.82268554491154
218.0 79.50117148643211
224.0 79.11603281824611
230.0 78.75704051727112
236.0 78.4334525517291
240.0 78.18395066525215
250.0 78.03082526733692
258.0 78.00560370738711
265.0 77.90482676244697
272.0 77.66083006933957
280.0 77.20464605274626
290.0 76.74403686779692
300.0 76.65025157251411
307.0 77.1626547678193
315.0 78.11503191861898
325.0 79.22304203450423
335.0 80.07587985267955
345.0 80.60714660160998
355.0 80.73625495834658
365.0 80.56684688398595
375.0 80.23395996272708
387.0 79.80098508267355
400.0 79.40397300716357
412.0 78.88471506584054
425.0 78.27731945658182
437.0 77.53012847766367
450.0 76.72143712205525
462.0 76.0064672431986
475.0 75.40033146934738
487.0 74.97206124682786
500.0 74.79590548882567
515.0 74.66477368127156
530.0 74.45535178703012
545.0 74.23291275536249
560.0 73.89640214466391
580.0 73.39519434734139
600.0 72.96311212375993
615.0 72.63821782167028
630.0 72.83863496126935
650.0 73.55612361443947
670.0 74.50652845563856
690.0 75.34069995977316
710.0 75.66440546318584
730.0 75.23691747604752
750.0 74.380123988258
775.0 73.06980161224487
800.0 71.36769874099998
825.0 69.7175515591442
850.0 68.09137729121562
875.0 67.09702285038831
900.0 67.05879008333213
925.0 67.63574253222562
950.0 68.70255680686105
975.0 69.65696744923999
1000.0 70.17648893318898
1030.0 70.23443551787058
1060.0 70.11295152176824
1090.0 69.76968217426337
1120.0 69.4058695030539
1150.0 69.21961674982637
1180.0 69.22299586339068
1220.0 69.57497965074016
1250.0 70.22306354869932
1280.0 70.85009129550565
1320.0 71.24773308789011
1360.0 71.11974969738682
1400.0 70.58800739672446
1450.0 69.94239309188875
1500.0 69.41427148838085
1550.0 69.34181263376342
1600.0 69.62348049330676
1650.0 69.94762676461895
1700.0 70.107616003154
1750.0 69.79812906148568
1800.0 69.1595025918951
1850.0 68.510626423903
1900.0 68.1836172033269
1950.0 68.50830936579749
2000.0 69.25508606970692
2060.0 69.86010520591347
2120.0 70.1254559674912
2180.0 69.68084113136243
2240.0 68.85658924071991
2300.0 67.96887024262884
2360.0 67.25940635642355
2400.0 66.71515788782047
2500.0 66.16302856337569
2580.0 65.52037292153486
2650.0 64.91609552905378
2720.0 64.38199283783209
2800.0 63.97922530616421
2900.0 63.72927587767991
3000.0 63.60600507723936
3070.0 63.6858165785215
3150.0 64.01330835727033
3250.0 64.41422206467057
3350.0 64.80601709294083
3450.0 64.83371355168254
3550.0 64.57188915823173
3650.0 64.32753984721617
3750.0 64.19645034722139
3870.0 64.33395179627581
4000.0 64.5185652907531
4120.0 64.58684324024868
4250.0 64.53359014710907
4370.0 64.09351581971475
4500.0 63.314400051215884
4620.0 62.511434560121344
4750.0 61.717742312531215
4870.0 61.361538453235596
5000.0 61.74171382004087
5150.0 62.36718916650703
5300.0 62.99773462397681
5450.0 63.47604241471814
5600.0 63.40782158962669
5800.0 63.144745969421436
6000.0 62.7651812165965
6150.0 62.18011606897366
6300.0 61.353792805016354
6500.0 59.91247660511584
6700.0 58.31830654391905
6900.0 56.874024224664424
7100.0 56.15781700646417
7300.0 56.32597780544259
7500.0 56.90919110924651
7750.0 57.76236008535446
8000.0 58.40756677117312
8250.0 58.99872917137512
8500.0 59.37273121141115
8750.0 59.17211296789691
9000.0 58.67742629412891
9250.0 58.052703875998645
9500.0 57.73542046900033
9750.0 57.90953513188839
10000.0 58.47090836662858
10300.0 58.84165152136143
10600.0 58.516371734151846
10900.0 57.41108768820638
11200.0 55.479557024745816
11500.0 53.1655875608125
11800.0 50.970232103121305
12200.0 49.22844751644604
12500.0 48.21119327843937
12800.0 47.752455438371214
13200.0 47.817630829804415
13600.0 48.143383756139514
14000.0 48.660672980635496
14500.0 49.4239809890077
15000.0 50.20557919806896
15500.0 50.58868744968535
16000.0 50.40445964126414
16500.0 49.634495716796664
17000.0 48.27200049790011
17500.0 46.87805144916521
18000.0 45.78870008783247
18500.0 44.454421650282626
19000.0 42.81154083488332
19500.0 40.94714179112458
