Freq,Floor Bounce,Ceiling Bounce,Front Wall Bounce,Side Wall Bounce,Rear Wall Bounce,Total Early Reflection
22.4,54.911488812737915,54.39971053398408,55.245332741620516,54.00979515207119,52.16642219313094,54.26932219396444
23.0,56.1114888127379,55.56706284494378,56.445332741620504,55.17975884178982,53.35121563499506,55.45508556627878
23.6,57.27816856646341,56.767062844943794,57.64533274162049,56.36971639514711,54.54105370449837,56.644216753581716
24.0,58.478168566463395,57.89971053398408,58.80244780256341,57.552958890306925,55.71330117893278,57.81305862338398
25.0,59.6114888127379,59.099710533984066,59.945332741620504,58.720820232940966,56.86630164821976,58.97138659459556
25.8,60.77816856646341,60.19971053398409,61.10244780256339,59.85295889030691,58.0143157018979,60.113183753141826
26.5,61.8781685664634,61.36706284494382,62.23119471526557,60.969716395147074,59.14105370449836,61.24066042830985
27.2,63.01148881273791,62.4997105339841,63.34533274162048,62.089825892953044,60.25098458548179,62.3636658688949
28.0,64.1114888127379,63.599710533984066,64.4453327416205,63.20979515207118,61.36642219313093,63.46932219396443
29.0,65.2114888127379,64.69971053398409,65.55910462388498,64.33074533585263,62.47676005134629,64.57799948433556
30.0,66.31148881273789,65.79971053398408,66.64533274162049,65.40979515207117,63.56642219313095,65.66932219396445
30.7,67.41148881273791,66.86706284494379,67.73119471526557,66.4697163951471,64.64105370449836,66.74840092817071
31.5,68.4781685664634,67.93775726587562,68.8024478025634,67.5697163951471,65.73572378206215,67.82676896479326
32.5,69.57816856646342,69.03775726587561,69.9024478025634,68.65295889030692,66.82454031504112,68.92223359424729
33.5,70.67816856646341,70.09971053398407,71.0024478025634,69.7613457251977,67.93013564835273,70.0167186203161
34.5,71.7781685664634,71.23775726587563,72.1170105136073,70.86971639514708,69.03572378206214,71.13041974677829
35.5,72.91148881273791,72.39971053398408,73.24533274162052,72.03074533585261,70.16642219313094,72.2732769100288
36.5,74.0781685664634,73.53775726587561,74.43119471526559,73.16971639514709,71.33572378206215,73.43398446432958
37.5,75.21148881273791,74.69971053398407,75.58783609567126,74.35295889030691,72.47147379680361,74.58876902955502
38.7,76.4114888127379,75.8670628449438,76.7453327416205,75.48047618158887,73.63572378206216,75.75331453336996
40.0,77.5781685664634,76.99971053398407,77.91701051360728,76.65295889030692,74.80382794774795,76.91555474972196
41.2,78.7114888127379,78.19971053398409,79.07513504882952,77.82148339778705,75.94602198357022,78.07650121613295
42.5,79.8781685664634,79.29971053398408,80.21701051360728,78.96134572519772,77.09277191935928,79.2157772075213
43.7,81.01148881273791,80.49971053398407,81.3453327416205,80.11153708133433,78.23572378206214,80.36587924120613
45.0,82.1781685664634,81.5997105339841,82.50244780256341,81.25295889030691,79.36630164821976,81.50728978562063
46.2,83.2781685664634,82.69971053398409,83.6024478025634,82.35295889030691,80.45098458548179,82.60542153792987
47.5,84.3438054691392,83.79971053398408,84.68881289687899,83.42148339778706,81.5509845854818,83.68805094276881
48.7,85.4114888127379,84.83775726587562,85.73119471526557,84.45295889030692,82.59881113591354,84.73406166127054
50.0,86.4114888127379,85.89971053398408,86.77415516604698,85.51153708133432,83.64069815875446,85.77372850820028
51.5,87.4114888127379,86.8670628449438,87.7453327416205,86.49224349376142,84.63013564835272,86.75484152431578
53.0,88.3781685664634,87.83775726587561,88.71701051360728,87.4529588903069,85.59277191935927,87.72198429333233
54.5,89.2781685664634,88.73775726587563,89.63119471526558,88.36134572519772,86.50382794774795,88.62848667895796
56.0,90.1781685664634,89.59971053398408,90.50244780256341,89.2529588903069,87.37676005134627,89.5085687417148
58.0,90.9781685664634,90.43775726587562,91.31701051360729,90.06134572519771,88.20907499067481,90.32556171098764
60.0,91.74380546913919,91.19971053398407,92.08881289687899,90.83074533585263,88.96642219313092,91.09168431966462
61.5,92.47816856646341,91.89971053398408,92.80244780256342,91.55295889030693,89.67676005134626,91.8085687417148
63.0,93.07816856646342,92.5670628449438,93.43119471526556,92.16971639514709,90.34105370449835,92.44066042830987
65.0,93.6781685664634,93.1670628449438,94.00244780256341,92.76971639514709,90.94105370449836,93.0334560210987
67.0,94.17816856646341,93.6670628449438,94.5170105136073,93.26971639514709,91.46135652795212,93.53961233270564
69.0,94.6781685664634,94.0997105339841,95.00244780256341,93.7697163951471,91.95121563499504,94.02091059412875
71.0,95.04380546913919,94.52927309923597,95.38783609567126,94.1697163951471,92.36171038653315,94.41663339495985
73.0,95.4114888127379,94.89971053398409,95.73119471526557,94.50913019989689,92.74105370449836,94.77493573948318
75.0,95.71148881273791,95.19971053398409,96.0453327416205,94.81908202386238,93.05652659036942,95.08227452293906
77.5,95.94380546913918,95.49971053398407,96.28749515872146,95.0884419688651,93.32371719982535,95.3423747923217
80.0,96.1438054691392,95.69971053398409,96.48749515872144,95.28844196886509,93.54571711300184,95.54514522202223
82.5,96.3438054691392,95.8670628449438,96.65910462388499,95.44758860613992,93.72882146034567,95.72151543956484
85.0,96.44380546913919,95.99971053398409,96.77283297224263,95.5884419688651,93.88765964730958,95.84682713155188
87.5,96.54380546913919,96.09971053398408,96.87283297224262,95.68844196886509,93.99268935002438,95.9474681566317
90.0,96.6438054691392,96.19971053398407,96.97283297224263,95.77693278503828,94.08285087468856,96.04404801207953
92.5,96.6438054691392,96.19971053398407,96.97283297224263,95.7984412581802,94.11834374100461,96.052632255103
95.0,96.6438054691392,96.22927309923595,96.98783609567127,95.82534749594531,94.12929144461272,96.06894922054288
97.5,96.6438054691392,96.22927309923595,96.97283297224263,95.8168907865119,94.11834374100461,96.0622461836071
100.0,96.6438054691392,96.19971053398407,96.97283297224263,95.7884419688651,94.09783018648513,96.0481240151707
103.0,96.54380546913919,96.12927309923595,96.9024478025634,95.7253474959453,94.02394705836208,95.97188181485726
106.0,96.54380546913919,96.09971053398408,96.87283297224262,95.68844196886509,93.98754242103327,95.94681219903197
109.0,96.44380546913919,95.99971053398409,96.78783609567127,95.59844125818022,93.89783018648512,95.85372541283445
112.0,96.44380546913919,95.92927309923597,96.75910462388498,95.54758860613991,93.80273397305092,95.81043200173394
115.0,96.3438054691392,95.8670628449438,96.67283297224263,95.47908927443342,93.71299671727006,95.7288617544207
118.0,96.2781685664634,95.76706284494381,96.6024478025634,95.3697163951471,93.60763222880655,95.64173626310425
122.0,96.2114888127379,95.69971053398409,96.53119471526557,95.31908202386238,93.50238344142551,95.57198864422121
125.0,96.1438054691392,95.5997105339841,96.48749515872144,95.23074533585262,93.38180238574952,95.49324153556954
128.0,96.0781685664634,95.49971053398407,96.43119471526558,95.15295889030692,93.28168767329556,95.4164170471876
132.0,96.04610754572609,95.43775726587562,96.38881289687899,95.11465434576881,93.1732842131238,95.36520394061357
136.0,96.01148881273791,95.39971053398408,96.36043100320893,95.04374425497372,93.07844805757237,95.31740529586801
140.0,95.9781685664634,95.33775726587561,96.33119471526558,95.01800114859135,92.97833058238636,95.27279962412685
145.0,95.9461075457261,95.27062516751951,96.28978947843711,94.96347460496938,92.86281742625597,95.21722904872026
150.0,95.9461075457261,95.23775726587563,96.28978947843711,94.94079739359083,92.76293263821734,95.19479024191547
155.0,95.9461075457261,95.20892643528046,96.28978947843711,94.88453191977614,92.67633148727613,95.16856571277404
160.0,95.91454598255295,95.10892643528044,96.31997405432286,94.86347460496935,92.57656386745565,95.13374225061459
165.0,95.94994298503816,95.10892643528044,96.31997405432286,94.82939867117348,92.45706601930127,95.12277476528932
170.0,95.94994298503816,95.10892643528044,96.33481548142983,94.82939867117348,92.37027383314262,95.11738588761283
175.0,95.94994298503816,95.04777327586933,96.33481548142983,94.80473591869095,92.26625723991198,95.08965303567722
180.0,95.9191297291758,95.04777327586933,96.37805920399684,94.79583807820573,92.14691370680181,95.0797792864923
185.0,95.9191297291758,95.01966595722263,96.40832513467909,94.7949189864393,92.0552534683312,95.07299731460076
190.0,95.95530975783976,95.01966595722263,96.40832513467909,94.78993927594448,91.92655553080716,95.06823102973608
195.0,95.95530975783976,95.01966595722263,96.43907923332311,94.78234127560599,91.83611324097846,95.06652656609491
200.0,95.92523764800663,95.01966595722263,96.48041205597443,94.77472995923388,91.73825475599271,95.05993726437427
206.0,95.92523764800663,94.99202156619198,96.50832513467908,94.75012073289533,91.60996674663618,95.04585900418631
212.0,95.92523764800663,94.99202156619198,96.53907923332314,94.74262738438503,91.48608671571093,95.04202964323171
218.0,95.86220502971112,94.99202156619198,96.55419921308498,94.74262738438503,91.37643734849979,95.02136935303253
224.0,95.86220502971112,94.99202156619198,96.55419921308498,94.70105428749365,91.23921273402696,95.0018937509657
230.0,95.83286654141831,95.0319234462336,96.56997555733204,94.68380714683943,91.12175270701023,94.9943187463904
236.0,95.80400311705542,95.00498665032124,96.58533761766239,94.6598099968165,90.96982142324772,94.96957828504928
240.0,95.7706251675195,95.00498665032124,96.62842928032482,94.6455185313301,90.84201740998884,94.96139130837076
250.0,95.6706251675195,95.00498665032124,96.62842928032482,94.60036600336392,90.69031376607755,94.9174465509999
258.0,95.64201242599283,95.00498665032124,96.62842928032482,94.57148974982827,90.55948640970406,94.89551814001251
265.0,95.54201242599282,95.04569247808696,96.62842928032482,94.53123902322459,90.39960909993488,94.86128782249149
272.0,95.45267054149978,95.04569247808696,96.62842928032482,94.46939116873548,90.23692697814447,94.81756711043856
280.0,95.35267054149979,95.07850060603039,96.57515053573522,94.43123902322459,90.06608751056864,94.76657501418563
290.0,95.25267054149977,95.07850060603039,96.57515053573522,94.39131306940412,89.9082187205914,94.72589367680875
300.0,95.12523610258414,95.11945427200509,96.54429934434263,94.3075461212172,89.73220331424359,94.66995286847099
307.0,95.06483536157253,95.11945427200509,96.52842928032483,94.27776462834903,89.55583865199915,94.6350632275289
315.0,94.96483536157253,95.11945427200509,96.50309734326268,94.17776462834904,89.39841818443945,94.57722847257178
325.0,94.83810255504187,95.11945427200509,96.47515053573521,94.1128545125255,89.21163862543455,94.51798392087464
335.0,94.73810255504188,95.14569247808697,96.40309734326269,94.06448362747813,89.04191279685345,94.46137545178294
345.0,94.61181831465147,95.21945427200511,96.40309734326269,93.99155689395194,88.86261331595352,94.4288539545738
355.0,94.51181831465148,95.21945427200511,96.37515053573522,93.89155689395194,88.66653104976368,94.37054316382863
365.0,94.38597776828547,95.21945427200511,96.31906007577025,93.84292365291743,88.5053652514296,94.30963580480484
375.0,94.32686131635953,95.21945427200511,96.30309734326268,93.76880369869353,88.32935207969729,94.27017835654048
387.0,94.20169825069192,95.2609658723321,96.26416718791197,93.67861986981474,88.13170128280736,94.2171131630356
400.0,94.10169825069192,95.2609658723321,96.20309734326268,93.63013896593148,87.95711293870924,94.16066733493136
412.0,94.04337910408185,95.29365925478722,96.20309734326268,93.53013896593147,87.77462112369379,94.1315311528836
425.0,93.91888404995504,95.29365925478722,96.11906007577024,93.45806007641487,87.60597607730476,94.05996984094654
437.0,93.8613634165333,95.29365925478722,96.11906007577024,93.39201884271543,87.44697932218834,94.03032939079596
450.0,93.76136341653329,95.29365925478722,96.07819845464176,93.33775537328198,87.27534760628124,93.98117499999411
462.0,93.73752666400647,95.33541696278157,96.04872992619126,93.24561035260271,87.10335847771928,93.95548813152016
475.0,93.70440635091121,95.31030356327967,96.0030973432627,93.1577483018563,86.93498053420369,93.9057546832443
487.0,93.68080531753897,95.31030356327967,95.97819845464177,93.09816255207998,86.77733995716818,93.87693417285337
500.0,93.65761693221668,95.31030356327967,95.97819845464177,93.03662810806408,86.62028840084571,93.85623411596343
515.0,93.70169521486228,95.31030356327967,95.95009044172964,92.97053061174778,86.48431491866653,93.83961036961539
530.0,93.70169521486228,95.31030356327967,95.93460297270911,92.91496809038948,86.32761761813403,93.819840405835
545.0,93.74634181297286,95.31030356327967,95.92226135786548,92.81496809038947,86.18334373029936,93.80342404328506
560.0,93.74634181297286,95.28562071131373,95.90988457111784,92.78771787701561,86.0499813388543,93.78351718270342
580.0,93.79155812927164,95.28562071131373,95.90988457111784,92.7230883175699,85.89559179593824,93.77721229010938
600.0,93.86947095210864,95.21888404995504,95.90988457111784,92.64745607696223,85.76879248271074,93.7583664767118
615.0,93.94777747018905,95.18562071131373,95.90988457111784,92.61151008897188,85.62916571329541,93.75539222020262
630.0,94.01549046676003,95.18562071131373,95.8977553415839,92.56581405563055,85.4952397351284,93.75463393755506
650.0,94.14084781850214,95.16136341653329,95.8977553415839,92.48665399923796,85.34884473187073,93.75868729653438
670.0,94.24084781850215,95.12842507934256,95.8977553415839,92.43016797945582,85.2191132815223,93.75965472464412
690.0,94.2882431356774,95.0613634165333,95.91759583412926,92.37568641195838,85.08844312083222,93.74697515345686
710.0,94.3882431356774,95.03752666400648,95.91759583412926,92.32568541491376,84.92408760270821,93.75181145145388
730.0,94.48824313567738,94.96136341653329,95.91759583412926,92.22022761372581,84.76747391614516,93.73587044592408
750.0,94.56761791156256,94.90440635091122,95.90576413223405,92.16401779072204,84.63984467103029,93.7249271665013
775.0,94.66761791156256,94.83752666400649,95.92171708379611,92.08574412083158,84.4605919229358,93.72219080325277
800.0,94.76761791156255,94.73752666400648,95.90989661958821,92.01738045818693,84.3068051874541,93.70494208075691
825.0,94.84736709718216,94.63752666400647,95.89596755485685,91.9251113893577,84.1230961259411,93.67921385899503
850.0,94.86761791156256,94.53752666400648,95.88199367185209,91.8283430064571,83.94159647620542,93.63831516085271
875.0,94.94736709718214,94.48080531753898,95.87033635180663,91.71127264711255,83.75522509209996,93.62274442649979
900.0,94.99952110883184,94.33752666400648,95.8586476569811,91.6323941428924,83.55215228928867,93.58439076056082
925.0,94.99952110883184,94.21410541742277,95.86412425042104,91.51836671009819,83.3476526770116,93.53873111095264
950.0,95.09952110883184,94.11410541742275,95.83571116998695,91.40297409032175,83.1378312867149,93.51599692346072
975.0,95.05224938188762,93.98080531753898,95.83571116998695,91.29717932760285,82.89453935277642,93.45470694622584
1000.0,95.10555119533878,93.81410541742275,95.81057740673812,91.1442247818871,82.63782177158949,93.40161386152025
1030.0,95.05942567781365,93.65761693221668,95.75766855235449,91.00441900205855,82.36735627220465,93.3142770179585
1060.0,95.05942567781365,93.48080531753898,95.74647396459204,90.85284108496663,82.0877748916407,93.25052577185889
1090.0,95.01387180849709,93.31410541742277,95.73550624785317,90.7092746514664,81.80535314943941,93.17733977195032
1120.0,94.96888841820282,93.15761693221667,95.67705672797136,90.54106803528084,81.51322722356969,93.08728730894062
1150.0,94.85898997800692,92.95761693221668,95.6245107629909,90.39868207540685,81.2033962168929,92.97390197453728
1180.0,94.81549228655214,92.75761693221666,95.60293965864356,90.20107933413752,80.88763151923725,92.88741130103067
1220.0,94.69463114328228,92.52465006001778,95.5363039648241,90.04311339082334,80.57262244052568,92.75907813706203
1250.0,94.630190169396,92.32465006001779,95.49236052179384,89.84816326524586,80.25127907519695,92.66022587704008
1280.0,94.51088430637759,92.1246500600178,95.45731351026696,89.69333936064166,79.9280275579294,92.5527769767013
1320.0,94.40644053819791,91.9246500600178,95.3817555519004,89.53730105748816,79.59175874309777,92.43472053700928
1360.0,94.2663027509435,91.72465006001778,95.34686615740361,89.33581036250833,79.2628851185688,92.31777331448929
1400.0,94.12671693060206,91.52465006001779,95.29464051427516,89.17945552117163,78.94485814741695,92.19970265167936
1450.0,93.9876804364963,91.32465006001779,95.22637422449968,89.00836140879842,78.62878542475245,92.07455459818378
1500.0,93.84919050230725,91.06906249825049,95.17437329049136,88.82521933175654,78.3024503196946,91.94666073527824
1550.0,93.67383863661853,90.89219001467188,95.091988870438,88.67022433126087,77.98329607726374,91.81116100042499
1600.0,93.51299918586606,90.6690624982505,95.05447560681115,88.52346200005147,77.69725242833111,91.69369383763171
1650.0,93.3369705692469,90.51404409479841,94.99927658185176,88.36517121029593,77.402898578942,91.57453089370901
1700.0,93.17646346136718,90.33693393352031,94.89927658185177,88.20385861473514,77.10124574002624,91.43703929777708
1750.0,93.01650788351924,90.13693393352031,94.85294019324938,88.07168424600722,76.81806849420353,91.3234963318107
1800.0,92.81650788351922,90.0140440947984,94.779718601626,87.94738455864766,76.56952780425725,91.19954053092957
1850.0,92.64045996134658,89.85959616645528,94.71484479699942,87.83617274540651,76.33249341583554,91.08349341309213
1900.0,92.41650788351922,89.68224779579502,94.6786028602532,87.70464480389182,76.0835127392654,90.96258320362041
1950.0,92.21650788351921,89.60571988287255,94.59580152964722,87.6250748624087,75.85439305149305,90.84764592773897
2000.0,92.05270966993321,89.4837047942553,94.53161023731849,87.5250748624087,75.66567636329661,90.74347466195181
2060.0,91.8527096699332,89.35241626533416,94.4783434413444,87.42214429020754,75.49571468272025,90.63384115347571
2120.0,91.6663027509435,89.29968618568374,94.41307322981079,87.3434020654044,75.322119680684,90.53675124981451
2180.0,91.44356758522848,89.19968618568373,94.34112366569562,87.31907348340638,75.18788486636458,90.42619922003018
2240.0,91.28123369015573,89.17814348198331,94.30040941431218,87.25635212829708,75.05621446084659,90.35527359121208
2300.0,91.05819523650398,89.12622426497873,94.25083716476342,87.21877907601824,74.9388252057627,90.26383064406372
2360.0,90.87594286460484,89.07488006847545,94.16814592291324,87.19295010529002,74.8314087622791,90.16785778149267
2400.0,90.65659535137092,89.0541911319999,94.12810680825591,87.17200583791227,74.75127751170167,90.09102189847968
2500.0,90.47717513319627,89.03387746583262,94.0702531964362,87.15144027126111,74.69071447334666,90.01556932269027
2580.0,90.30460914250517,89.03384414058401,94.02466884549209,87.15649754516905,74.61688288059163,89.95453031241932
2650.0,90.09238874849412,89.03384414058401,93.99356557276928,87.12069268835164,74.56282542968029,89.8892591682829
2720.0,89.91810100640026,89.06542954900817,93.94465589697482,87.12894985783434,74.50318124230952,89.83380896387378
2800.0,89.80969209288408,89.04652378959418,93.90009636681488,87.14051223483936,74.45553680022995,89.78667735691295
2900.0,89.60357341195528,89.09839704614406,93.89108779249698,87.15386115013632,74.42205814578467,89.75147966177641
3000.0,89.48224925791307,89.08006255613378,93.8515741437527,87.15511981006165,74.37613570971496,89.70441380026493
3070.0,89.33142056702262,89.13273091690957,93.82066365080544,87.17519036286437,74.33062828079808,89.67126147468083
3150.0,89.16589782736112,89.1684150054567,93.82066365080544,87.18045697090965,74.27128807617687,89.64774016777038
3250.0,89.06976006385261,89.1684150054567,93.79840201325058,87.18898485385441,74.24222366675413,89.6198223970626
3350.0,88.96059511057022,89.17704915871656,93.79840201325058,87.22425688168987,74.19631309671816,89.60614516822007
3450.0,88.8147232882358,89.21563384600053,93.7850655152421,87.22958558132807,74.14805428839384,89.58171913302799
