Freq "Rear Wall Bounce"
20.5078 51.30922265919436
21.9727 49.50485515359166
23.4375 52.43462835485978
24.9023 55.243864586870174
26.3672 55.72657711142547
27.832 56.835357807934415
29.2969 58.06985924604864
30.7617 59.06653627174698
32.2266 61.82698112002957
33.6914 63.45468864353347
35.1562 65.44240068169921
36.6211 66.96120511684694
38.0859 68.86925296736187
39.5508 70.27060058508505
41.0156 71.91013705478954
42.4805 73.39915336054221
43.9453 74.88637079383976
45.4102 76.12219165013705
46.875 77.24048813763893
48.3398 78.31599821402305
51.2695 79.82450810979532
52.7344 80.37011075265083
54.1992 80.82396086212289
55.6641 81.16202791515657
58.5938 81.67860151721663
60.0586 81.96541305214298
62.9883 82.41551860074169
64.4531 82.60712504887582
67.3828 82.9647413801185
68.8477 83.12438930207571
71.7773 83.56824171788436
74.707 83.91338524962036
77.6367 84.15146509313354
79.1016 84.27763129623115
82.0312 84.50386273982527
84.9609 84.56312103408212
87.8906 84.6550347695805
90.8203 84.62581174422628
95.2148 84.57495536737677
98.1445 84.59735332094978
101.074 84.54067003501765
105.469 84.47368585123593
108.398 84.49705036297904
112.793 84.49276051847404
117.188 84.25952869684943
120.117 84.15729365923004
124.512 83.94332290173995
128.906 83.71695734236614
133.301 83.49374365004793
139.16 83.14765001403349
143.555 82.88824492848225
147.949 82.64472142346578
153.809 82.29182560521265
159.668 82.20456727953037
165.527 82.3454326198306
171.387 82.10853108135271
177.246 81.84250073928503
183.105 81.69011946348162
188.965 81.75800218235257
196.289 81.89932160265955
203.613 81.90121679059709
210.938 82.18285090225926
218.262 82.63962362020051
225.586 83.14707119513251
232.91 83.33806562537796
241.699 83.49308693085156
250.488 83.38098915323857
259.277 83.94634950946741
268.066 83.81214950723297
276.855 83.57878915871292
287.109 83.94306253079132
297.363 83.98162252025128
307.617 83.78640340955702
319.336 83.22114233646207
329.59 82.66989933086353
341.309 83.01748861032488
353.027 82.08665652044371
366.211 82.24916537097114
379.395 82.0118597913119
392.578 82.2823242721601
405.762 82.46768267269196
420.41 81.91929042618953
435.059 82.36767952070021
451.172 81.92449676820247
465.82 81.29402836751733
483.398 81.43320799718947
499.512 82.07101763513758
517.09 82.4546692806214
536.133 82.18076695930291
555.176 81.2032143345659
574.219 81.6042670835149
594.727 82.25497150205767
615.234 80.89763003906766
637.207 80.98422947762954
659.18 80.38733876557338
682.617 80.06848044246367
707.52 80.32705023784342
732.422 79.69532221447396
757.324 80.95982074189355
785.156 80.00748982857495
811.523 77.29541362578442
840.82 76.31511011976616
870.117 79.50280133656189
900.879 78.22693639270484
933.105 79.80522026693548
965.332 82.34521990187108
1000.49 82.14439692699018
1035.64 79.21848466630091
1072.27 79.27622416351674
1108.89 77.97715548541994
1148.44 77.65234704813554
1189.45 76.37337702376516
1230.47 75.96359590528894
1274.41 74.73889507394043
1319.82 75.65057732502896
1366.7 75.58015504280284
1413.57 75.14708220286691
1463.38 74.78435183969613
1516.11 74.05874564611398
1568.85 73.32615390139242
1624.51 71.69933329610708
1681.64 71.4431867869087
1741.7 71.00214693329926
1803.22 71.879700596267
1866.21 71.42214673065878
1932.13 71.26580757213283
1999.51 72.19722951304986
2069.82 72.37683043939971
2143.07 70.87177254400554
2219.24 70.32184019653364
2296.88 70.96117828477827
2378.91 70.65853494795209
2462.4 70.94183867372885
2548.83 70.93171126767524
2639.65 70.52527691231673
2731.93 69.7611587017121
2828.61 68.8973567413069
2928.22 69.17852558617635
3030.76 69.11603318855126
3137.7 69.68675285114672
3249.02 70.33871011721612
3363.28 69.8603750909037
3481.93 69.26728492242242
3604.98 69.7643338451383
3732.42 69.00011737577753
3864.26 67.96766668176967
4000.49 68.30438466840924
4141.11 69.10396208169503
4287.6 69.47582395811857
4438.48 69.43821907986215
4595.21 68.19740823920687
4756.35 68.86977204433146
4924.8 69.51297732039201
5097.66 69.26848383772023
5277.83 68.10286625223851
5463.87 69.45198808768691
5657.23 69.59467915618272
5856.45 69.30336973802717
6062.99 70.49429555140158
6276.86 69.56551197618502
6498.05 68.30442855009474
6726.56 70.44751258763813
6963.87 68.97368069478638
7209.96 67.80370959212692
7464.84 67.44585667016678
7727.05 66.15138700976641
7999.51 61.91076594130847
8282.23 60.26161424353201
8573.73 60.084359682792936
8876.95 57.88168009536149
9188.96 58.192645506203704
9514.16 57.09093292011012
9849.61 57.37028686887298
10196.8 56.55064086237614
10555.7 51.54490794651532
10927.7 51.06773249917315
11313.0 49.120407670405754
11712.9 48.155914843872225
12126.0 46.1621421373156
12553.7 46.70335140920379
12996.1 46.36228557592521
13454.6 47.018018635288726
13929.2 46.39731710793602
14419.9 45.22446230816392
14928.2 45.13637040683214
15455.6 43.79956151686049
16000.5 41.67494000733605
16564.5 44.46671086794605
17148.9 45.97293962629725
17752.4 46.61825471163199
18379.4 45.52775175661587
19026.9 41.93766248463881
19697.8 41.17720138217628
19999.5 42.47884542972987
