Freq,On Axis,Listening Window,Sound Power,Early Reflections,Early Reflections DI,Sound Power DI,DI offset
22.4,20.658227848101248,21.36116300994216,22.23574702713755,22.213352239733396,39.147810770208764,39.12541598280461,40
23.0,22.25822784810127,21.657572544522438,22.347121341345783,22.25280646758425,39.40476607693819,39.310451203176655,40
23.6,23.75822784810127,22.347483356582174,23.334301934434606,23.091539844900623,39.25594351168155,39.01318142214757,40
24.0,26.058227848101282,25.420420178255355,26.200660297164447,26.415531795605645,39.00488838264971,39.21975988109091,40
25.0,28.058227848101282,28.917640092080532,29.19168741819594,29.961083775752215,38.95655631632832,39.72595267388459,40
25.8,29.75822784810127,32.93827671374633,32.4381006402097,33.645140441505404,39.29313627224093,40.500176073536636,40
26.5,31.25822784810127,39.1037843535516,37.2659637282393,38.6696289708254,40.4341553827262,41.837820625312304,40
27.2,32.158227848101276,40.5576783483762,38.598086670969266,39.868807910196054,40.688870438180146,41.959591677406934,40
28.0,32.75822784810127,40.02039051308246,38.257989615788986,39.20745912907741,40.812931384005054,41.762400897293475,40
29.0,33.45822784810129,39.91303479556471,38.249130979442256,38.624464831900454,41.28856996366426,41.663903816122456,40
30.0,34.95822784810129,40.70141967404855,39.06606954403493,38.801482029784,41.899937644264554,41.63535013001362,40
30.7,37.85822784810129,42.0187106745597,40.69750104152128,40.43395054439587,41.58476013016383,41.32120963303842,40
31.5,40.05822784810128,42.597587573181286,41.79549328064455,41.49646417856921,41.101123394612074,40.80209429253674,40
32.5,41.85822784810129,42.7520874322404,42.64848042617898,42.28159340783405,40.47049402440635,40.103607006061424,40
33.5,43.158227848101276,43.53772141106326,44.190716444274486,43.73219337191735,39.80552803914591,39.347004966788774,40
34.5,44.35822784810129,44.352834958796606,46.037784697359726,45.48429046476478,38.86854449403182,38.31505026143688,40
35.5,45.658227848101276,45.12126121910562,48.312105519180946,47.756738757657914,37.364522461447706,36.80915569992467,40
36.5,47.25822784810127,50.35005958442808,50.873399476833825,50.85360960332032,39.49644998110776,39.476660107594256,40
37.5,48.85822784810129,54.56372812676601,53.1846895895395,53.64293634525727,40.92079178150874,41.379038537226506,40
38.7,50.55822784810128,58.207225010589426,55.927849843435226,56.73019556480314,41.477029445786286,42.2793751671542,40
40.0,52.658227848101276,62.487950590846864,60.35509808068004,61.29161294993999,41.196337640906876,42.13285251016683,40
41.2,54.45822784810129,67.9744300481695,65.83018397287245,66.839601410385,41.134828637784494,42.14424607529705,40
42.5,56.55822784810128,61.80962807781765,60.196944190793644,61.151932629542316,40.657695448275334,41.612683887024005,40
43.7,58.45822784810129,60.37422263336491,57.89940271012135,58.87522072644076,41.49900190692415,42.47481992324356,40
45.0,60.45822784810129,61.27463442930154,58.43829310604926,59.055389332084275,42.21924509721727,42.836341323252284,40
46.2,63.05822784810128,64.95529965698675,62.787192928394134,62.06090148206995,42.8943981749168,42.16810672859262,40
47.5,65.15822784810128,68.62154479458663,66.6726819749216,65.31306645711919,43.308478337467434,41.948862819665024,40
48.7,66.95822784810129,67.67323023589604,66.72177250715605,66.96619110138822,40.70703913450782,40.951457728739996,40
50.0,68.55822784810128,68.28119911176185,67.49984485737541,68.46864255308725,39.8125565586746,40.78135425438644,40
51.5,70.05822784810128,69.70994395244136,68.32368924060047,69.12522485805817,40.58471909438319,41.38625471184089,40
53.0,71.55822784810128,71.18662241465859,69.39802412587859,69.98003471808995,41.20658769656863,41.788598288779994,40
54.5,73.05822784810128,73.20460529923463,71.50621542231995,72.10637473265551,41.09823056657912,41.698389876914675,40
56.0,74.2582278481013,74.45956634056375,72.82449762985006,73.47810413655172,40.98146220401203,41.635068710713696,40
58.0,75.05822784810128,74.7589959807033,73.10031815524334,73.93500795360681,40.82398802709649,41.65867782545996,40
60.0,75.65822784810128,75.20214319444408,73.62391788168925,74.46716410139426,40.734979093049816,41.578225312754824,40
61.5,76.35822784810128,75.90255530290366,74.3766845552481,75.11227384179647,40.7902814611072,41.52587074765556,40
63.0,77.35822784810128,76.96488918145486,75.53435846973896,76.21730402109576,40.74758516035911,41.4305307117159,40
65.0,78.35822784810128,78.13903780733493,76.75684957611305,77.41313494728435,40.72590286005058,41.382188231221875,40
67.0,78.55822784810128,78.36311694115672,77.00760771230166,77.61594563616585,40.74717130499087,41.355509228855055,40
69.0,78.65822784810128,78.39514094209558,77.16149813100597,77.71754002515718,40.6776009169384,41.23364281108961,40
71.0,78.65822784810128,78.43899100294975,77.40157671799844,77.89935810776231,40.53963289518744,41.03741428495131,40
73.0,79.2582278481013,79.06001277160638,78.16878503573521,78.56103246288937,40.49898030871701,40.89122773587117,40
75.0,79.85822784810128,79.74850041900488,79.10426057090773,79.3823487079145,40.36615171109038,40.64423984809716,40
77.5,80.3582278481013,80.29335252828321,79.84752496288344,80.03987262628958,40.25347990199363,40.44582756539977,40
80.0,80.45822784810129,80.36996370521715,79.99492863555925,80.12594535924268,40.24401834597447,40.3750350696579,40
82.5,80.55822784810128,80.55873952614175,80.21056879771363,80.30468965921067,40.254049866931084,40.348170728428116,40
85.0,80.55822784810128,80.51406742495904,80.25597653783443,80.3417542357058,40.17231318925323,40.25809088712461,40
87.5,80.55822784810128,80.4474862634119,80.26016330034513,80.32247967008651,40.125006593325395,40.18732296306678,40
90.0,80.85822784810128,80.72540750186123,80.5576323246443,80.61194251535143,40.1134649865098,40.167775177216924,40
92.5,81.35822784810128,81.22540750186123,81.00920309151024,81.07515797827789,40.15024952358334,40.21620441035098,40
95.0,81.15822784810128,81.11406742495903,80.8608908754587,80.94276022719828,40.171307197760754,40.25317654950034,40
97.5,81.15822784810128,81.13620376591506,80.77206628623021,80.93543924862935,40.200764517285705,40.36413747968484,40
100.0,81.35822784810128,81.3367180452304,80.78799257004043,81.04012766915865,40.29659037607175,40.54872547518997,40
103.0,81.55822784810128,81.62514969926177,80.91765890378798,81.27511846265732,40.35003123660445,40.70749079547379,40
106.0,81.7582278481013,81.84722976814791,80.98883740717429,81.40542190160035,40.44180786654756,40.858392360973625,40
109.0,81.55822784810128,81.58064990730647,80.60989508498923,81.0996056279851,40.48104427932137,40.97075482231723,40
112.0,81.55822784810128,81.55873952614175,80.4860682692391,81.01673985681954,40.54199966932221,41.07267125690265,40
115.0,81.85822784810127,81.92514969926178,80.72397031525259,81.32279126594351,40.60235843331827,41.201179384009194,40
118.0,81.7582278481013,81.78064990730648,80.50718311465833,81.15311478705739,40.62753512024909,41.27346679264815,40
122.0,81.7582278481013,81.78064990730648,80.45059282839792,81.1308414255689,40.64980848173758,41.33005707890857,40
125.0,81.7582278481013,81.73620376591508,80.3714525758073,81.06743794303098,40.6687658228841,41.36475119010778,40
128.0,81.45822784810129,81.41406742495904,79.98620639907313,80.66916387366233,40.744903551296716,41.42786102588592,40
132.0,81.55822784810128,81.49232541102339,80.04699337463316,80.73064137564215,40.761684035381236,41.44533203639023,40
136.0,81.65822784810128,81.65873952614176,80.17749534228702,80.86983645764886,40.7889030684929,41.48124418385474,40
140.0,81.65822784810128,81.59232541102338,80.03795603905543,80.76689018572365,40.82543522529973,41.55436937196795,40
145.0,81.7582278481013,81.64850041900488,79.89807672350217,80.7129176738479,40.93558274515698,41.750423695502704,40
150.0,81.65822784810128,81.54850041900487,79.62965686833955,80.5415141455988,41.00698627340607,41.918843550665315,40
155.0,81.65822784810128,81.46001277160637,79.26748331874929,80.31647292977273,41.14353984183364,42.19252945285709,40
160.0,81.55822784810128,81.38141937771842,79.09545531962137,80.24126514039914,41.14015423731928,42.28596405809705,40
165.0,81.35822784810128,81.29232541102338,78.9673598700079,80.11920219544102,41.173123215582365,42.32496554101549,40
170.0,81.65822784810128,81.54850041900487,79.13775916984025,80.30058224302545,41.24791817597942,42.410741249164616,40
175.0,81.85822784810127,81.74850041900487,79.27496635150469,80.46017479254448,41.28832562646039,42.47353406750018,40
180.0,81.95822784810129,81.82742271593615,79.34718055083533,80.54658755490762,41.280835161028534,42.48024216510082,40
185.0,81.85822784810127,81.70424046716538,79.19182463463162,80.37501120520724,41.32922926195813,42.51241583253376,40
190.0,81.7582278481013,81.53799776229853,78.950328793461,80.13592872283387,41.40206903946466,42.587668968837534,40
195.0,81.45822784810129,81.1737790814605,78.44996908479911,79.6828617784212,41.490917303039296,42.72380999666139,40
200.0,81.25822784810128,80.90804408916281,77.85492224206392,79.19190426594209,41.71613982322073,43.05312184709889,40
206.0,81.15822784810128,80.8080440891628,77.36681145320976,78.90994682386855,41.898097265294254,43.44123263595304,40
212.0,81.25822784810128,81.01791401711958,77.2327350080249,78.97395793004556,42.04395608707402,43.785179009094676,40
218.0,81.25822784810128,81.06203554214856,76.98910371437397,78.91298640287269,42.149049139275874,44.072931827774596,40
224.0,81.35822784810128,81.18443800193386,76.95033596945206,79.00203416271292,42.18240383922094,44.2341020324818,40
230.0,81.35822784810128,81.16203554214857,76.88236655362329,78.97532523196433,42.18671031018424,44.27966898852529,40
236.0,81.45822784810129,81.13072606397596,76.73922511239597,78.89343209979333,42.237293964182626,44.391500951579985,40
240.0,81.25822784810128,80.90804408916281,76.37611880427404,78.61671469011482,42.291329399047996,44.53192528488877,40
250.0,80.95822784810129,80.69612120104766,76.11005118376583,78.40691865806373,42.28920254298393,44.58607001728183,40
258.0,80.85822784810128,80.70524145737089,76.13597429821655,78.44146612167471,42.26377533569618,44.569267159154336,40
265.0,81.25822784810128,81.12591132627266,76.71796643772313,78.98402880362694,42.141882522645716,44.40794488854952,40
272.0,81.55822784810128,81.46996370521714,77.34332718556952,79.46983252843584,42.000131176781295,44.12663651964762,40
280.0,81.25822784810128,81.23620376591506,77.57233918979746,79.45261738440088,41.78358638151418,43.663864576117604,40
290.0,82.35822784810128,82.29232541102338,78.55775447588518,80.4325073516034,41.85981805941998,43.73457093513821,40
300.0,82.95822784810129,82.9150894136317,79.03574665789829,80.97106900226159,41.94402041137012,43.87934275573342,40
307.0,82.45822784810129,82.32642682576271,78.34350732763109,80.29468837229012,42.031738453472585,43.98291949813162,40
315.0,81.65822784810128,81.5264268257627,77.52912863412341,79.4284627791187,42.097964046643995,43.99729819163929,40
325.0,81.55822784810128,81.3395400530666,77.08235651342572,78.95066144105964,42.38887861200696,44.25718353964088,40
335.0,81.35822784810128,81.14003081018133,76.57071838222903,78.6536996926021,42.486331117579226,44.5693124279523,40
345.0,80.95822784810129,80.69612120104766,75.98897878117238,78.19125122525949,42.50486997578817,44.70714241987528,40
355.0,80.95822784810129,80.61104586066948,75.84325279382504,78.06467026444118,42.5463755962283,44.76779306684443,40
365.0,81.05822784810128,80.71104586066947,75.7634389929375,78.13096128290168,42.58008457776779,44.94760686773198,40
375.0,81.35822784810128,80.99120745248395,76.0111357801615,78.42362043923363,42.56758701325032,44.98007167232245,40
387.0,81.65822784810128,81.23056382406357,75.92866038063163,78.46074452263188,42.76981930143168,45.30190344343194,40
400.0,81.95822784810129,81.53056382406356,75.90953149355849,78.59023094073636,42.9403328833272,45.621032330505074,40
412.0,81.85822784810127,81.32414470757057,75.34477969008486,78.17373692602987,43.15040778154069,45.979365017485705,40
425.0,81.65822784810128,81.08390501719516,74.9028835954068,77.82676402447723,43.257140992717936,46.18102142178836,40
437.0,81.65822784810128,81.10724292637117,74.98778553238215,77.95023364320085,43.157009283170325,46.11945739398902,40
450.0,81.15822784810128,80.67080303501947,74.58544615365095,77.52094933188113,43.14985370313835,46.085356881368526,40
462.0,80.95822784810129,80.51170537104636,74.3497201463233,77.27065725129893,43.24104811974743,46.161985224723054,40
475.0,81.15822784810128,80.79460458892522,74.57977565112198,77.4997002208163,43.29490436810893,46.21482893780325,40
487.0,81.35822784810128,81.07923818837803,74.79496261667377,77.74776750623188,43.33147068214615,46.284275571704256,40
500.0,81.55822784810128,81.27923818837803,74.82809515571186,77.87015488425631,43.40908330412172,46.45114303266617,40
515.0,81.95822784810129,81.65970954329148,74.89300309959721,78.05124669390985,43.60846284938164,46.766706443694275,40
530.0,82.25822784810128,81.84977714611551,74.90751130566218,78.05982030609185,43.78995684002366,46.94226584045333,40
545.0,82.25822784810128,81.84686977961125,74.74209382382784,77.80353529541986,44.04333448419139,47.10477595578341,40
560.0,81.7582278481013,81.25777611758754,74.12416917116225,77.04820901679257,44.20956710079497,47.13360694642529,40
580.0,80.85822784810128,80.33769230977951,73.37639335890726,76.36984149987181,43.9678508099077,46.96129895087225,40
600.0,81.05822784810128,80.56371408966714,73.70204397191917,76.89394647680344,43.66976761286371,46.86167011774798,40
615.0,81.45822784810129,80.98892357708677,74.00707505188566,77.31764713718961,43.671276439897156,46.9818485252011,40
630.0,81.15822784810128,80.56046512170776,73.41063805386898,76.80128735332201,43.759177768385754,47.149827067838785,40
650.0,80.75822784810127,80.23000190832002,72.82567724796179,76.22025190987851,44.00974999844151,47.40432466035823,40
670.0,81.15822784810128,80.46240055142117,72.96359954061708,76.30750831999572,44.15489223142545,47.49880101080409,40
690.0,81.25822784810128,80.45312539241021,72.89568331670993,76.13377312047636,44.31935227193385,47.55744207570028,40
710.0,81.35822784810128,80.45736187787132,72.78985913347431,75.91923301431444,44.53812886355688,47.66750274439701,40
730.0,81.35822784810128,80.46317450212098,72.42018630895414,75.62279758663159,44.84037691548939,48.042988193166835,40
750.0,81.25822784810128,80.44382463040073,72.21781977435643,75.46414902949192,44.979675600908806,48.2260048560443,40
775.0,81.65822784810128,80.90011707106088,72.5443331328082,75.85190287967349,45.04821419138739,48.35578393825267,40
800.0,82.45822784810129,81.73625528551408,73.57080542046397,76.72700191544249,45.00925337007159,48.16544986505011,40
825.0,82.55822784810128,81.89980512956491,73.79704080286497,76.91179358648601,44.9880115430789,48.10276432669994,40
850.0,81.7582278481013,81.04051814189482,72.90044693704499,76.04960841272182,44.990909729173,48.14007120484983,40
875.0,80.65822784810128,79.69682869430643,71.33865844748429,74.63831162582298,45.058517068483454,48.35817024682214,40
900.0,79.85822784810128,78.85836773118345,70.28136706004172,73.80688840835167,45.05147932283178,48.57700067114173,40
925.0,79.35822784810127,78.42529917996383,70.05864053334983,73.65917680286181,44.76612237710202,48.366658646614,40
950.0,80.05822784810128,79.19589087102953,70.749920104558,74.4522700358838,44.743620835145734,48.44597076647153,40
975.0,81.35822784810128,80.36404681583845,71.41895392316113,75.25811066932012,45.10593614651833,48.94509289267732,40
1000.0,81.7582278481013,80.81854823146398,71.8220689615313,75.68216735172167,45.136380879742305,48.99647926993268,40
1030.0,81.65822784810128,80.82172719844901,72.03005534982996,75.85532493337656,44.966402265072446,48.791671848619046,40
1060.0,81.55822784810128,80.65736187787132,71.82355239408041,75.68250957223243,44.97485230563889,48.833809483790915,40
1090.0,81.45822784810129,80.55021508303058,71.46154052526795,75.41336246348153,45.136852619549046,49.08867455776263,40
1120.0,81.45822784810129,80.37412839438686,70.91468972155154,75.04360873737618,45.33051965701068,49.45943867283532,40
1150.0,81.35822784810128,80.23592187977043,70.46651485980402,74.7436605270926,45.49226135267783,49.76940701996641,40
1180.0,81.15822784810128,80.02514002921832,70.55404820905149,74.65591381879487,45.36922621042345,49.47109182016683,40
1220.0,81.15822784810128,80.17059847112314,70.87994442883691,74.91397913447814,45.256619336645,49.290654042286235,40
1250.0,81.15822784810128,80.25021508303057,71.09598746155494,75.08933814539414,45.16087693763643,49.15422762147563,40
1280.0,80.95822784810129,79.85811098484484,70.3946987732694,74.57828417243674,45.2798268124081,49.463412211575445,40
1320.0,81.15822784810128,80.10524687699167,70.43810249681522,74.7214770448856,45.38376983210607,49.66714438017645,40
1360.0,81.15822784810128,80.19685555565356,70.75469567683884,74.89450953450353,45.30234602115003,49.44215987881472,40
1400.0,80.45822784810129,79.4335253263343,70.10506135374708,74.21681137351085,45.216713952823454,49.32846397258723,40
1450.0,80.05822784810128,79.0864389298522,69.81341113582648,74.00001206222848,45.08642686762373,49.27302779402572,40
1500.0,80.15822784810128,79.10953705036246,69.93958272549084,74.1382661596872,44.97127089067526,49.169954324871625,40
1550.0,80.25822784810128,79.15811098484484,70.02569681520917,74.26961867497143,44.88849230987341,49.132414169635666,40
1600.0,80.05822784810128,78.89627563082351,69.65682658066467,73.91898797955062,44.97728765127289,49.23944905015884,40
1650.0,79.95822784810129,78.80031478770634,69.51564449704287,73.72623558586382,45.07407920184252,49.28467029066347,40
1700.0,80.3582278481013,79.38423214743953,70.04486381922352,74.27512885483345,45.10910329260608,49.33936832821601,40
1750.0,80.95822784810129,79.72889188692103,70.17918255750281,74.45032703326399,45.278564853657045,49.54970932941822,40
1800.0,81.05822784810128,79.57828791701705,70.00884528000354,74.24417045834001,45.33411745867704,49.56944263701351,40
1850.0,80.65822784810128,79.74068927164299,70.58387004591256,74.56318078763896,45.177508484004036,49.15681922573043,40
1900.0,80.45822784810129,79.62223144996808,70.34994279391898,74.45420783610815,45.16802361385993,49.2722886560491,40
1950.0,80.15822784810128,79.31063866768476,69.95070165821356,74.11050227971185,45.200136387972904,49.359937009471196,40
2000.0,80.05822784810128,79.41477773554732,70.45841259484432,74.41614485710646,44.99863287844086,48.956365140703,40
2060.0,80.55822784810128,79.41528794990612,69.4384120602535,73.7957278568007,45.61956009310542,49.97687588965262,40
2120.0,80.45822784810129,78.88043772737215,68.74492692454143,73.18681508368103,45.69362264369113,50.13551080283072,40
2180.0,80.15822784810128,78.41931437952026,68.29719035395475,72.6460362439707,45.77327813554956,50.12212402556551,40
2240.0,79.95822784810129,78.21758252726,67.81302007100744,72.33334240178336,45.88424012547665,50.40456245625256,40
2300.0,79.95822784810129,78.22327214781961,68.22249677092792,72.69989300474978,45.52337914306983,50.000775376891696,40
2360.0,80.3582278481013,78.82078062704464,69.66233102066379,73.79427816527684,45.026502461767805,49.158449606380856,40
2400.0,79.35822784810127,78.06911102446121,69.55398172393662,73.48771960439986,44.58139142006135,48.51512930052459,40
2500.0,77.95822784810129,77.14273507507092,69.36839385097203,72.99168166604157,44.151053409029345,47.77434122409889,40
2580.0,78.95822784810129,78.2323896462172,70.16675691413259,73.87563522315398,44.35675442306322,48.06563273208461,40
2650.0,79.35822784810127,78.32902895213998,70.05893528827126,73.81711041828775,44.511918533852224,48.27009366386872,40
2720.0,79.05822784810128,78.23346068871165,70.31359545636012,73.80270399938597,44.430756689325676,47.919865232351526,40
2800.0,79.05822784810128,78.64359264109724,70.74732380572677,74.18337125067987,44.460221390417374,47.89626883537048,40
