Freq "On Axis"
22.4 20.10000000000001
23.0 21.700000000000003
23.6 23.200000000000003
24.0 25.499999999999986
25.0 27.499999999999986
25.8 29.200000000000003
26.5 30.700000000000003
27.2 31.60000000000001
28.0 32.2
29.0 32.89999999999999
30.0 34.39999999999999
30.7 37.3
31.5 39.499999999999986
32.5 41.3
33.5 42.60000000000001
34.5 43.8
35.5 45.10000000000001
36.5 46.7
37.5 48.3
38.7 49.999999999999986
40.0 52.10000000000001
41.2 53.89999999999999
42.5 55.999999999999986
43.7 57.89999999999999
45.0 59.89999999999999
46.2 62.499999999999986
47.5 64.60000000000001
48.7 66.39999999999999
50.0 68.0
51.5 69.5
53.0 71.00000000000001
54.5 72.49999999999999
56.0 73.7
58.0 74.5
60.0 75.1
61.5 75.8
63.0 76.8
65.0 77.8
67.0 78.0
69.0 78.1
71.0 78.1
73.0 78.7
75.0 79.3
77.5 79.8
80.0 79.90000000000002
82.5 79.99999999999999
85.0 79.99999999999999
87.5 79.99999999999999
90.0 80.3
92.5 80.8
95.0 80.6
97.5 80.6
100.0 80.8
103.0 81.00000000000001
106.0 81.2
109.0 81.00000000000001
112.0 81.00000000000001
115.0 81.3
118.0 81.2
122.0 81.2
125.0 81.2
128.0 80.9
132.0 81.00000000000001
136.0 81.09999999999998
140.0 81.09999999999998
145.0 81.2
150.0 81.09999999999998
155.0 81.09999999999998
160.0 81.00000000000001
165.0 80.8
170.0 81.09999999999998
175.0 81.3
180.0 81.39999999999999
185.0 81.3
190.0 81.2
195.0 80.9
200.0 80.7
206.0 80.6
212.0 80.7
218.0 80.7
224.0 80.8
230.0 80.8
236.0 80.9
240.0 80.7
250.0 80.4
258.0 80.3
265.0 80.7
272.0 81.00000000000001
280.0 80.7
290.0 81.8
300.0 82.40000000000002
307.0 81.9
315.0 81.09999999999998
325.0 81.00000000000001
335.0 80.8
345.0 80.4
355.0 80.4
365.0 80.5
375.0 80.8
387.0 81.09999999999998
400.0 81.39999999999999
412.0 81.3
425.0 81.09999999999998
437.0 81.09999999999998
450.0 80.6
462.0 80.4
475.0 80.6
487.0 80.8
500.0 81.00000000000001
515.0 81.39999999999999
530.0 81.7
545.0 81.7
560.0 81.2
580.0 80.3
600.0 80.5
615.0 80.9
630.0 80.6
650.0 80.2
670.0 80.6
690.0 80.7
710.0 80.8
730.0 80.8
750.0 80.7
775.0 81.09999999999998
800.0 81.9
825.0 82.0
850.0 81.2
875.0 80.1
900.0 79.3
925.0 78.8
950.0 79.5
975.0 80.8
1000.0 81.2
1030.0 81.09999999999998
1060.0 81.00000000000001
1090.0 80.9
1120.0 80.9
1150.0 80.8
1180.0 80.6
1220.0 80.6
1250.0 80.6
1280.0 80.4
1320.0 80.6
1360.0 80.6
1400.0 79.90000000000002
1450.0 79.5
1500.0 79.60000000000001
1550.0 79.7
1600.0 79.5
1650.0 79.4
1700.0 79.8
1750.0 80.4
1800.0 80.5
1850.0 80.1
1900.0 79.90000000000002
1950.0 79.60000000000001
2000.0 79.5
2060.0 79.99999999999999
2120.0 79.90000000000002
2180.0 79.60000000000001
2240.0 79.4
2300.0 79.4
2360.0 79.8
2400.0 78.8
2500.0 77.40000000000002
2580.0 78.4
2650.0 78.8
2720.0 78.50000000000001
2800.0 78.50000000000001
2900.0 79.5
3000.0 80.1
3070.0 80.1
3150.0 80.2
3250.0 80.9
3350.0 81.7
3450.0 81.6
3550.0 81.5
3650.0 80.8
3750.0 80.7
3870.0 80.9
4000.0 79.90000000000002
4120.0 80.7
4250.0 80.8
4370.0 80.7
4500.0 79.60000000000001
4620.0 79.4
4750.0 79.1
4870.0 79.3
5000.0 79.7
5150.0 81.00000000000001
5300.0 81.5
5450.0 81.5
5600.0 80.8
5800.0 79.4
6000.0 78.1
6150.0 77.7
6300.0 78.4
6500.0 79.7
6700.0 80.6
6900.0 80.9
7100.0 80.3
7300.0 79.3
7500.0 78.89999999999999
7750.0 78.3
8000.0 78.0
8250.0 78.7
8500.0 80.6
8750.0 80.3
9000.0 78.89999999999999
9250.0 78.8
9500.0 79.4
9750.0 80.1
10000.0 80.5
10300.0 80.6
10600.0 79.0
10900.0 78.0
11200.0 78.0
11500.0 77.49999999999999
11800.0 77.3
12200.0 77.7
12500.0 79.1
12800.0 79.1
13200.0 78.2
13600.0 76.09999999999998
14000.0 77.49999999999999
14500.0 78.3
15000.0 78.59999999999998
15500.0 77.10000000000001
16000.0 74.4
16500.0 76.3
17000.0 80.8
17500.0 76.09999999999998
18000.0 72.2
18500.0 76.5
19000.0 72.40000000000002
19500.0 61.2
