Freq,Floor Bounce,Ceiling Bounce,Front Wall Bounce,Side Wall Bounce,Rear Wall Bounce,Total Early Reflection
22.4,54.3886399623139,37.22527681697932,43.66530176792233,41.09400212129157,36.56856059688394,48.07048309164986
23.0,54.9393601402941,39.37978115139268,45.126305961722295,42.53245171351068,38.484693561763066,48.785664627659315
23.6,55.58354148919315,41.56077796113749,46.64163647990509,44.112188507632396,40.45805249732052,49.62905896727483
24.0,56.15191701114304,43.680896221038466,48.186055714898316,45.7430217771761,42.50772370029554,50.467403420968935
25.0,56.81144149683888,45.8571425131386,49.686570385123446,47.432330810101035,44.64862369529152,51.43628139228264
25.8,57.393529707826474,48.126213931289584,51.270068737362436,49.15842700140698,46.84664863260139,52.44728610302852
26.5,58.002975707253086,50.51182730008753,52.88420961929933,51.01487581283388,49.111568819196634,53.602141620524634
27.2,58.750638957959694,52.656551573160726,54.47196415885378,52.8146561516688,51.24821795159227,54.882325004736146
28.0,59.80494453490303,55.32924838946485,56.6159855110659,55.14959702546986,53.916665369551026,56.68332432347651
29.0,61.19711271825045,58.23392832814568,59.04914466182561,57.880646081147574,56.866529837431074,58.905881895619956
30.0,62.29512526325058,60.28219812790056,60.81576602930528,59.79595483977624,58.966618174595766,60.57853251198665
30.7,63.2359867233715,61.89897445130924,62.21958606140214,61.38224344542357,60.59141614383199,61.955043585701986
31.5,64.23167212130375,63.41916705502754,63.58292601279544,62.88238252478794,62.1374053558425,63.30682678092319
32.5,65.53184327978684,65.24283030471975,65.23675112070228,64.68238354145808,64.00399576993658,64.9724174037811
33.5,67.03183881345315,67.27001488257477,67.16106235207671,66.71138060252343,66.07707642198739,66.87088743308163
34.5,68.18335937246299,68.66769521305295,68.47232492078935,68.12486414280491,67.53034616458918,68.21261628376854
35.5,69.3669218511605,70.10076749445562,69.85808883252639,69.54260029820792,68.92529404109008,69.57750755485972
36.5,70.78219967332305,71.66692185116051,71.35742449135816,71.12157071745497,70.4954339619312,71.10431700564233
37.5,72.00464502318535,73.06769521305294,72.74346508697899,72.48110854744813,71.83716554969824,72.45075352919129
38.7,73.26283617001535,74.36769521305294,73.94346508697897,73.74119983124486,73.0704841897786,73.70233371514004
40.0,74.37697211958266,75.56769521305294,75.1147553152921,74.88109801862507,74.15018207563975,74.84801607401482
41.2,75.45176921104226,76.66769521305294,76.20097926743463,75.96119474234183,75.12508011216138,75.91545544647812
42.5,76.45176921104226,77.63513059177981,77.20097926743462,76.9023023206405,76.01541379136567,76.87769843956933
43.7,77.57697211958268,78.76769521305295,78.3147553152921,78.0023023206405,77.03836921531439,77.9805137060454
45.0,78.66283617001537,79.80076749445563,79.34346508697898,79.0224767030197,78.00750702615883,79.00951593261983
46.2,79.48915630129642,80.60076749445561,80.2147553152921,79.84302444611575,78.79270100490567,79.83164363598196
47.5,80.57717895989805,81.60076749445561,81.2147553152921,80.84302444611575,79.76294149621579,80.84339373608434
48.7,81.79485705883171,82.60076749445562,82.3147553152921,81.96395064819495,80.90848632557393,81.95361724413512
50.0,82.65260953202218,83.40076749445562,83.15742449135816,82.80412263968753,81.77716687437547,82.79294333691772
51.5,83.74576719438468,84.30076749445561,84.15742449135816,83.80412263968753,82.77968833051925,83.78883295390514
53.0,84.7404416794549,85.20076749445562,85.05742449135815,84.74302444611575,83.8097799816604,84.7363049489371
54.5,85.57150800786938,85.90076749445562,85.85742449135816,85.46395064819497,84.55548566188351,85.49594226419285
56.0,86.16845083805433,86.40076749445564,86.35742449135816,86.00412263968754,85.11291833867568,86.03305782700866
58.0,86.8669218511605,87.00076749445562,87.05742449135815,86.66395064819496,85.75451690448025,86.69371514719562
60.0,87.6,87.60076749445562,87.72880715674529,87.3252366727071,86.43315445052497,87.3619988693876
61.5,88.13358982687997,88.10076749445561,88.25742449135815,87.84530504353962,86.93315445052497,87.87932566271203
63.0,88.53358982687998,88.40076749445562,88.6288071567453,88.18526041028544,87.25942100174058,88.22840606381457
65.0,88.93358982687998,88.73435140868503,89.00065786069425,88.52523667270711,87.6158968244516,88.58963041124014
67.0,89.30076749445561,89.10076749445561,89.37166275391891,88.88526041028544,87.98344161661129,88.95614247492699
69.0,89.63358982687997,89.30076749445561,89.64313939533781,89.16670626616768,88.30380983364203,89.2361530894836
71.0,89.90076749445562,89.56845083805432,89.94313939533782,89.40598456990742,88.5661306879843,89.50441296103148
73.0,90.10076749445562,89.76845083805433,90.11508314243883,89.62757995317386,88.78658006329451,89.70576081329742
75.0,90.36769521305294,89.96845083805434,90.34313939533783,89.86670626616768,89.00220929197741,89.93686312771092
77.5,90.66769521305294,90.26845083805432,90.64313939533781,90.16670626616768,89.32320225621277,90.24025561956383
80.0,91.03513059177983,90.56845083805433,90.9716627539189,90.48526041028543,89.71283929654015,90.57967611068074
82.5,91.30076749445563,90.83513059177983,91.21508314243883,90.76670626616769,90.01259761725606,90.84937953309694
85.0,91.40076749445561,90.90076749445562,91.31508314243885,90.8046043972274,90.10171909161332,90.92861527090083
87.5,91.33358982687999,90.86845083805433,91.25775667464532,90.78526041028543,90.09589142355716,90.89001844306485
90.0,91.2,90.73513059177982,91.11508314243883,90.58526041028543,89.98521980439688,90.74545410321085
92.5,91.03358982687998,90.56845083805433,90.92979499755904,90.38526041028544,89.82233854598752,90.56901947643968
95.0,90.83358982687997,90.40306957104252,90.67266367710968,90.20598456990743,89.67999306445844,90.37738403519757
97.5,90.6,90.20306957104252,90.40099441428072,89.98526041028543,89.5123561227553,90.15624100761889
100.0,90.23358982687998,89.80306957104251,90.10099441428072,89.58526041028544,89.23982143082415,89.80712234647737
103.0,89.86692185116051,89.46845083805432,89.71609718937367,89.18526041028545,88.92036261552515,89.44500731183948
106.0,89.50076749445562,89.10306957104252,89.34479812098769,88.78526041028545,88.61958308310079,89.08323506694026
109.0,89.20076749445562,88.73821129888744,89.01609718937365,88.3875189417038,88.23871533414211,88.73146759571239
112.0,88.90076749445564,88.40306957104252,88.68850980857525,88.00920611180408,87.89590052966562,88.3964965468203
115.0,88.60306957104252,88.03821129888743,88.40400815718168,87.63029550491235,87.5546100206326,88.0657018132875
118.0,88.33663575667187,87.70690501035459,88.10400815718167,87.25226959352628,87.19654909022123,87.74282442595776
122.0,87.97150800786937,87.30690501035458,87.77569713721815,86.83441685017132,86.79117869533431,87.36239013887239
125.0,87.64044167945491,86.77609175449223,87.43278882757177,86.34222438693197,86.2759116748939,86.9293477028971
128.0,87.27609175449221,86.21227178315618,87.13278882757177,85.86813431484035,85.63235449784945,86.4755404924573
132.0,87.0098662867233,85.71916705502754,86.89044363353322,85.44246053230243,84.91074162884829,86.07271893523213
136.0,86.87609175449221,85.2566725593005,86.77525122642456,85.19956388711857,84.15335710019433,85.77444841926162
140.0,86.87609175449221,85.03752777300028,86.80489499373621,85.11677723671053,83.43310610273346,85.63606464500904
145.0,86.9760917544922,84.93752777300028,86.96035311823195,85.23350316323653,82.85106980743922,85.6425769662628
150.0,87.07609175449221,84.94898359150842,87.04574459001023,85.37050952978636,82.4233285244873,85.67774535987296
155.0,87.17609175449222,85.04898359150842,87.23142096048346,85.57050952978634,82.18543532722987,85.78956079978602
160.0,87.30986628672329,85.12179738688896,87.35873795327733,85.78490641670749,82.09642237536907,85.9078330589474
165.0,87.34576719438469,85.22179738688895,87.51737758727847,85.93688464551714,82.15281235276576,86.01330405295569
170.0,87.4457671943847,85.34898359150841,87.63142096048345,86.09191131459984,82.31370917505885,86.13768298831222
175.0,87.51592692226706,85.44898359150841,87.74574459001025,86.2095297459631,82.51975301150435,86.24607886983216
180.0,87.45260953202218,85.47662798253904,87.74574459001025,86.26235252814331,82.75516661046906,86.26486744249476
185.0,87.22349685065979,85.50963256681621,87.56035311823194,86.19554298439245,82.95084223155304,86.16410123250591
190.0,86.96096514237182,85.43752777300027,87.36035311823197,86.08710313942441,83.13113986111328,86.02669958016591
195.0,86.66096514237182,85.39897445130924,87.08748929892042,85.91885720828847,83.29405759297455,85.85648610002352
200.0,86.26668552790022,85.29897445130925,86.78748929892042,85.68991825853371,83.36395033564669,85.62763463101598
206.0,85.77717895989804,85.19897445130925,86.45840584504062,85.32513717399448,83.33068853082135,85.33466779855908
212.0,84.97697211958265,85.02758719283591,85.91739302852535,84.76221459237071,83.08935944464127,84.84714840877307
218.0,83.93392832814567,84.78219967332305,85.16138002358115,83.94222438693197,82.58713821147508,84.16858991111742
224.0,82.9281210048995,84.44283030471973,84.46394512452713,83.02988465408721,82.00174293515039,83.4766900251284
230.0,82.3944886893229,84.10690501035458,84.04865957364794,82.40486273343772,81.42887636730391,83.00143654566631
236.0,82.75866027600833,83.84283030471974,84.30845818874695,82.3650206262788,80.98870744463991,83.00435244246698
240.0,83.91592538879982,83.6489851487955,85.2848196596733,83.00172684782271,80.65072143421045,83.54680547053174
250.0,85.29485705883171,83.66588846059688,86.47335762649192,84.04641992803148,80.25392438031274,84.39298809432097
258.0,86.48656646311248,83.88888547155003,87.5179318208723,85.13529403128715,79.84987790448959,85.25731887287236
265.0,87.18656646311246,84.13546263134683,88.21793182087231,85.93434175169676,79.64093069433886,85.8657811008528
272.0,87.5234968506598,84.47641629732152,88.58697936799419,86.4229020123103,79.75510196828927,86.23520568117345
280.0,87.6948570588317,84.95062128010365,88.7990189524881,86.78463808338924,80.11365457058393,86.51044761584724
290.0,87.93257218046558,85.45062128010366,88.98170461979825,87.02745355433875,80.62926479482434,86.7815131985833
300.0,88.170829702843,86.05062128010364,89.20720368692554,87.2714534289255,81.15434446215856,87.08616394250913
307.0,88.41592538879982,86.6094224842602,89.3765745410166,87.45929007237312,81.58903618756479,87.35599866675385
315.0,88.61592538879984,87.17641629732152,89.51897109437685,87.63631489701508,81.89913096186174,87.60322611327112
325.0,88.75521969308379,87.60942248426018,89.61998423401444,87.6762436994296,82.11939353883307,87.7702660021649
335.0,88.72869245367795,87.90942248426019,89.62492954673289,87.58552008031016,82.21990080144272,87.81276279797419
345.0,88.5687803399679,88.0094224842602,89.5294633556899,87.295767932635,82.11298330439402,87.7056748288295
355.0,88.28382334167596,87.88382334167594,89.29119770038808,86.81619349065797,81.81868865237088,87.43464855740314
365.0,87.72526453928847,87.62526453928848,88.96589970754917,86.31209175553768,81.36527196147182,87.03102134806585
375.0,87.1252645392885,87.30034112939828,88.54875308323685,85.82435486146815,80.83618294814443,86.5751957970346
387.0,86.48382334167596,87.00034112939828,88.10380211534087,85.44905634657108,80.30821630189824,86.12889708540948
400.0,85.9094224842602,86.80034112939828,87.61295170320733,85.09706964475794,79.74170858272095,85.7131693678638
412.0,85.33546263134681,86.55866027600834,87.0294633556899,84.70406981997944,79.13270298563573,85.25375061635543
425.0,84.73546263134682,86.41753803239934,86.4342057690251,84.25133798013911,78.61218003064057,84.81325600737259
437.0,84.23546263134682,86.20261155895363,85.81691849979623,83.75702802664652,78.12079516484354,84.36599460160852
450.0,83.9026545034034,85.95521969308379,85.41038277415123,83.3620409263711,77.71654644853113,84.02499558781717
462.0,83.96194867563764,85.84314826109434,85.3342860063662,83.10585271613259,77.30665969784069,83.91904110827402
475.0,84.38219812790055,85.70963256681621,85.52154212688194,82.92836019433861,76.89540665355977,83.97391464417315
487.0,84.97082970284299,85.58219812790054,85.86491992694556,82.6572783229725,76.53312511244712,84.11961390624987
500.0,85.60464502318536,85.46194867563766,86.09343966349466,82.18522540017061,75.91118460760242,84.23688163244533
515.0,85.90464502318535,85.14391724861638,86.09106012582336,81.44825297270035,74.94068883052459,84.12850510970037
530.0,85.96668552790021,84.83469773360899,85.96249020639578,80.7581718912597,73.9156231399319,83.93707059210384
545.0,85.99485705883171,84.64915203998831,85.94278197865623,80.47859574838303,73.00202196965951,83.85188012784903
560.0,86.15768127821951,84.62643297742508,86.12579744140986,80.62105773906754,72.79440427145457,83.96966697558439
580.0,86.55017075212572,84.90921140720403,86.52076211162324,81.19589526365043,73.39741048627235,84.35828209983683
600.0,87.10906430015984,85.23638088039145,86.96976085057072,81.82182238462654,74.34284344646076,84.84259969039944
615.0,87.67449351030439,85.40199903162157,87.3216172653579,82.31227366706004,75.31858206884944,85.25391640393106
630.0,88.10306957104251,85.30199903162156,87.51398945351707,82.67540526294765,76.13942290702718,85.50358799325673
650.0,88.37001488257476,84.9752382379475,87.53701040802807,82.90727856477329,76.54677701457724,85.58496969780066
670.0,88.57001488257477,84.60464912211596,87.53315851319987,83.10992715097305,76.75437523358511,85.62725418702445
690.0,88.77150800786939,84.42545123408709,87.53315851319987,83.18120835449128,76.8103926146251,85.68979320420794
710.0,89.07896989520115,84.49448868932289,87.56078162444544,83.08273451790092,76.505553314348,85.81776995739642
730.0,89.27383110211923,84.65866027600835,87.56648670774598,82.77802451372365,75.79594712503754,85.88144864877604
750.0,89.40265313251614,84.78382334167596,87.60272817510489,82.36522595405465,74.63778325391786,85.90988041635003
775.0,89.14743899086734,84.58382334167594,87.52535336752271,81.81006325469065,73.2129047794128,85.67587404539562
800.0,88.62180052683972,84.2672655885961,87.42906432226603,81.29245977648264,71.6912823296823,85.30934072881905
825.0,87.89727311966743,83.86136837622763,87.24114204693804,80.78670151818467,70.56287738651714,84.83030826573736
850.0,86.98230649956844,83.35865724017869,87.02144207169907,80.68549196847749,70.38022876235789,84.3056961031393
875.0,86.07277674488685,82.90473949550548,86.87138970448206,81.10213760388788,71.02183882202671,83.90276452981657
900.0,85.20091389014041,82.22990957385144,86.73991343287378,81.84305572959089,72.21076990355593,83.57881975241514
925.0,84.53546091849047,81.20473949550548,86.83309667225294,82.81263696984033,73.43710584727279,83.4696947625125
950.0,84.40799265215588,80.2145789575331,87.17972358240571,83.66508891038444,74.26928178559987,83.66471435586358
975.0,84.90690501035459,79.38382334167595,87.5461425665154,84.24470570616971,74.73976065255836,84.01460366454944
1000.0,85.83663575667187,79.23257218046557,87.94521094704683,84.53503319778343,74.86137192813203,84.48709528061119
1030.0,86.96769521305295,80.08656646311248,88.12062203309347,84.38161340772088,74.66531992524605,84.91851824318061
1060.0,87.70076749445562,81.38656646311246,87.96164521854993,84.01136726111213,74.30584952015441,85.13422175271032
1090.0,87.87150800786937,82.82926676879421,87.58364755793119,83.57745119034688,73.79652931064899,85.130962034454
1120.0,87.57977745790568,84.20131827952113,87.09849294802444,83.25562101362956,73.27939251894696,85.00087608519733
1150.0,86.9560388500297,85.00131827952114,86.71075138483876,83.38027310609884,73.04772837833777,84.82678005044747
1180.0,86.38239860760774,85.38493492460849,86.55053800997213,83.79936052033796,73.14108810604375,84.74990245181813
1220.0,85.99393259456332,85.33964531976001,86.63925847878707,84.4023457520394,73.58832962743305,84.76878149142789
1250.0,85.88715219471243,85.00306957104253,87.13539112229665,84.99223648310144,74.23206601008877,84.9514612563794
1280.0,86.03898164121286,84.47001488257476,87.51600027186082,85.17587380200823,74.26765500488894,85.0569927349665
1320.0,86.15098823501218,83.90986628672329,87.72896808461601,84.74024370891168,73.38373471554017,84.97114705599682
1360.0,86.01695395609258,83.5996543927718,87.69743894354761,83.82841084093928,71.65582364539395,84.69329582791549
1400.0,85.61123284744552,83.26839968904116,87.43787692169067,82.60297246338703,69.40077056196151,84.2207254158942
1450.0,84.88691806020397,82.97346990883564,87.17514261668893,81.32768751972752,67.14587216301031,83.68905991303559
1500.0,84.07244826645845,82.52324058002984,86.961523323113,80.33529746546367,65.38815275856659,83.19083981402292
1550.0,83.27071732495409,81.68889049053281,86.81663399781779,79.51740756370384,64.25279261485886,82.70681060655397
1600.0,82.55768127821952,80.76004623006338,86.63439926267995,78.71927307278709,63.29612386387808,82.23574240434691
1650.0,81.8987463754729,79.79810190657838,86.36391291935765,77.88616577537307,62.552863603261414,81.74037491072858
1700.0,81.26512911208582,79.1646326145979,86.11520247873943,77.16465936945123,61.77168775888197,81.3269966970722
1750.0,80.58796868418942,78.81256890294986,85.8323970350327,76.44498493899547,60.8572346766984,80.92675555083228
1800.0,80.11125216995664,78.92019294100376,85.51119089485508,75.88368002967073,60.07338518331957,80.61517112853917
1850.0,79.78354649534124,79.00055663323026,85.35183940668237,75.5618666315432,59.700211216900925,80.4486718836915
1900.0,79.7791890760838,78.82755046916483,85.28784317391629,75.45123318482965,59.71238878247948,80.37666523704661
1950.0,79.81695616332746,78.2534144159412,85.3351385950457,75.66649299435142,60.49249070776449,80.3530540482321
2000.0,79.98938741782678,77.38531467818933,85.56193409090665,76.40412476737944,61.99440639421786,80.4899306938297
2060.0,80.04205313523953,76.61476097345948,85.83876676028457,77.22295376510222,63.219184358393505,80.6840344236593
2120.0,79.91274856143424,75.9843395267706,86.05448047813647,77.91747845543105,63.941873304448364,80.8292732958299
2180.0,79.72626732260167,75.56022581365737,86.20388876224271,78.34648851568238,63.85558583328043,80.91931918870131
2240.0,79.48844082789316,75.0753673751035,86.0911437280287,78.32870527555872,63.22389976005502,80.77565848795669
2300.0,79.16581749685817,74.5367960878151,85.8079005595084,78.15592928719349,62.751024277284415,80.4853187753036
2360.0,78.75655157316072,74.33123370490794,85.51698359035474,78.14706763057073,62.884039779193614,80.21708120523083
2400.0,78.52626487750086,74.93510672000848,85.33091196424351,78.33569427102755,63.59336103378385,80.12074206005904
2500.0,78.67883038042292,76.11627783177748,85.40182527286518,78.65869729136871,64.5238349325449,80.3165678374934
2580.0,79.24180105984287,77.61430637862281,85.67174056138597,79.00793599221154,65.32463932953942,80.74689217499107
2650.0,80.10720618364726,78.9501707521257,85.84663839206635,79.23913673844793,65.75076244459092,81.15948790645238
2720.0,80.98099554556165,79.89485705883172,85.93428475641866,79.35481230427135,65.72366834510686,81.49225249212603
2800.0,81.64275089076169,80.52361102993711,85.8967514200431,79.49886823731828,65.52112903170749,81.7038430922271
2900.0,82.08615193394084,80.77872996753788,85.82850345321215,79.68390511642988,65.19320137389708,81.82005244119446
3000.0,82.26764836244455,80.71832676913883,85.75125198025613,79.82655218594508,64.90532796062196,81.82799909149085
3070.0,82.20795567018759,80.64475297190879,85.70616996971324,79.87087368864388,64.72006782106524,81.78612358553747
3150.0,82.05535907146051,80.47179133196205,85.71080457045652,79.95537082989063,64.66680170822161,81.73981258707218
3250.0,81.83131741555754,80.26570276170648,85.88836665509858,79.96106576075672,64.5043699585353,81.75334185766371
3350.0,81.7485058811867,80.16078125161695,86.17740200741135,80.04834053405061,64.50464265470978,81.88641777659907
