Freq,Floor Bounce,Ceiling Bounce,Front Wall Bounce,Side Wall Bounce,Rear Wall Bounce,Total Early Reflection
22.4,54.359526038263226,37.19616289292867,43.63618784387165,41.06488819724095,36.53944667283332,48.041369167599186
23.0,54.91024621624348,39.35066722734206,45.09719203767165,42.50333778946003,38.45557963771242,48.756550703608724
23.6,55.554427565142475,41.53166403708681,46.61252255585444,44.08307458358178,40.428938573269875,49.59994504322415
24.0,56.12280308709242,43.65178229698785,48.15694179084767,45.71390785312545,42.478609776244895,50.438289496918316
25.0,56.78232757278826,45.82802858908798,49.6574564610728,47.40321688605039,44.6195097712409,51.40716746823202
25.8,57.364415783775826,48.097100007238964,51.24095481331179,49.12931307735633,46.81753470855077,52.41817217897787
26.5,57.973861783202466,50.48271337603691,52.85509569524871,50.98576188878326,49.082454895145986,53.573027696474014
27.2,58.721525033909074,52.62743764911008,54.44285023480313,52.78554222761818,51.21910402754162,54.853211080685526
28.0,59.77583061085238,55.30013446541423,56.58687158701525,55.12048310141921,53.88755144550041,56.65421039942589
29.0,61.16799879419983,58.20481440409503,59.02003073777496,57.851532157096926,56.837415913380426,58.87676797156931
30.0,62.266011339199935,60.25308420384991,60.78665210525463,59.76684091572562,58.93750425054512,60.549418587936
30.7,63.20687279932088,61.869860527258595,62.19047213735152,61.35312952137295,60.562302219781344,61.92592966165137
31.5,64.2025581972531,63.390053130976895,63.55381208874479,62.853268600737294,62.108291431791855,63.27771285687254
32.5,65.50272935573622,65.2137163806691,65.20763719665165,64.65326961740743,63.97488184588593,64.94330347973045
33.5,67.00272488940253,67.24090095852414,67.13194842802606,66.68226667847281,66.04796249793675,66.84177350903101
34.5,68.15424544841235,68.6385812890023,68.44321099673871,68.09575021875429,67.50123224053856,68.1835023597179
35.5,69.33780792710988,70.07165357040498,69.82897490847574,69.5134863741573,68.89618011703944,69.54839363080907
36.5,70.75308574927243,71.63780792710986,71.32831056730751,71.09245679340432,70.46632003788056,71.0752030815917
37.5,71.97553109913471,73.03858128900231,72.71435116292834,72.4519946233975,71.80805162564762,72.42163960514065
38.7,73.23372224596473,74.3385812890023,73.91435116292836,73.71208590719422,73.04137026572795,73.67321979108942
40.0,74.34785819553203,75.53858128900231,75.08564139124147,74.85198409457445,74.12106815158911,74.8189021499642
41.2,75.42265528699161,76.6385812890023,76.17186534338398,75.93208081829118,75.09596618811076,75.88634152242747
42.5,76.42265528699161,77.6060166677292,77.17186534338398,76.87318839658985,75.98629986731504,76.8485845155187
43.7,77.54785819553203,78.73858128900233,78.28564139124146,77.97318839658988,77.00925529126377,77.95139978199477
45.0,78.63372224596472,79.771653570405,79.31435116292836,78.99336277896906,77.97839310210819,78.9804020085692
46.2,79.46004237724577,80.57165357040499,80.18564139124146,79.8139105220651,78.76358708085502,79.80252971193133
47.5,80.5480650358474,81.57165357040498,81.18564139124146,80.8139105220651,79.73382757216515,80.81427981203372
48.7,81.76574313478109,82.57165357040498,82.28564139124146,81.93483672414433,80.87937240152328,81.92450332008447
50.0,82.62349560797153,83.37165357040499,83.12831056730752,82.77500871563689,81.74805295032483,82.76382941286708
51.5,83.71665327033406,84.27165357040498,84.12831056730751,83.77500871563689,82.7505744064686,83.75971902985451
53.0,84.71132775540428,85.17165357040497,85.02831056730751,84.7139105220651,83.78066605760975,84.70719102488647
54.5,85.54239408381873,85.87165357040499,85.82831056730751,85.43483672414433,84.52637173783287,85.4668283401422
56.0,86.1393369140037,86.37165357040499,86.32831056730751,85.9750087156369,85.08380441462504,86.00394390295801
58.0,86.83780792710988,86.97165357040498,87.0283105673075,86.63483672414434,85.72540298042964,86.66460122314498
60.0,87.57088607594936,87.57165357040498,87.69969323269464,87.29612274865647,86.40404052647435,87.33288494533699
61.5,88.10447590282934,88.07165357040499,88.22831056730752,87.81619111948898,86.90404052647433,87.85021173866139
63.0,88.50447590282934,88.37165357040499,88.59969323269465,88.1561464862348,87.23030707768996,88.19929213976393
65.0,88.90447590282935,88.70523748463438,88.97154393664363,88.49612274865648,87.58678290040095,88.56051648718952
67.0,89.27165357040498,89.07165357040498,89.34254882986829,88.85614648623482,87.95432769256065,88.92702855087637
69.0,89.60447590282935,89.27165357040498,89.61402547128718,89.13759234211705,88.2746959095914,89.20703916543295
71.0,89.87165357040499,89.5393369140037,89.91402547128719,89.3768706458568,88.53701676393365,89.47529903698086
73.0,90.07165357040498,89.7393369140037,90.0859692183882,89.59846602912324,88.75746613924389,89.67664688924677
75.0,90.3385812890023,89.93933691400369,90.31402547128718,89.83759234211703,88.97309536792676,89.90774920366027
77.5,90.6385812890023,90.2393369140037,90.61402547128718,90.13759234211705,89.29408833216212,90.2111416955132
80.0,91.0060166677292,90.5393369140037,90.94254882986827,90.4561464862348,89.6837253724895,90.55056218663009
82.5,91.271653570405,90.8060166677292,91.1859692183882,90.73759234211704,89.98348369320543,90.82026560904629
85.0,91.37165357040499,90.87165357040499,91.2859692183882,90.77549047317677,90.0726051675627,90.8995013468502
87.5,91.30447590282935,90.8393369140037,91.22864275059469,90.75614648623481,90.06677749950651,90.86090451901421
90.0,91.17088607594937,90.70601666772919,91.08596921838821,90.55614648623481,89.95610588034623,90.71634017916021
92.5,91.00447590282934,90.5393369140037,90.90068107350841,90.35614648623482,89.79322462193689,90.53990555238906
95.0,90.80447590282934,90.37395564699187,90.64354975305903,90.17687064585681,89.65087914040782,90.34827011114692
97.5,90.57088607594935,90.17395564699189,90.3718804902301,89.95614648623481,89.48324219870469,90.12712708356827
100.0,90.20447590282933,89.7739556469919,90.07188049023009,89.55614648623481,89.2107075067735,89.77800842242675
103.0,89.83780792710986,89.43933691400369,89.68698326532304,89.1561464862348,88.8912486914745,89.41589338778886
106.0,89.47165357040498,89.07395564699189,89.31568419693707,88.7561464862348,88.59046915905017,89.05412114288961
109.0,89.17165357040498,88.7090973748368,88.98698326532303,88.35840501765315,88.20960141009148,88.70235367166174
112.0,88.87165357040499,88.37395564699189,88.65939588452461,87.98009218775344,87.86678660561498,88.36738262276967
115.0,88.57395564699188,88.00909737483678,88.37489423313104,87.60118158086172,87.52549609658195,88.03658788923687
118.0,88.30752183262123,87.67779108630396,88.07489423313105,87.22315566947563,87.1674351661706,87.71371050190714
122.0,87.94239408381874,87.27779108630396,87.7465832131675,86.80530292612067,86.76206477128369,87.33327621482175
125.0,87.61132775540428,86.74697783044158,87.40367490352114,86.31311046288133,86.24679775084329,86.90023377884647
128.0,87.2469778304416,86.18315785910556,87.10367490352112,85.83902039078973,85.60324057379883,86.44642656840668
132.0,86.98075236267266,85.69005313097689,86.8613297094826,85.4133466082518,84.88162770479765,86.04360501118148
136.0,86.84697783044157,85.22755863524988,86.74613730237394,85.17044996306792,84.1242431761437,85.74533449521098
140.0,86.84697783044157,85.00841384894964,86.77578106968558,85.08766331265988,83.40399217868281,85.6069507209584
145.0,86.94697783044158,84.90841384894964,86.93123919418132,85.20438923918589,82.82195588338857,85.61346304221216
150.0,87.04697783044158,84.91986966745779,87.0166306659596,85.34139560573573,82.39421460043667,85.64863143582232
155.0,87.14697783044157,85.01986966745778,87.20230703643281,85.54139560573572,82.15632140317922,85.7604468757354
160.0,87.28075236267267,85.09268346283831,87.3296240292267,85.75579249265685,82.06730845131842,85.87871913489676
165.0,87.31665327033407,85.19268346283832,87.48826366322785,85.9077707214665,82.12369842871513,85.98419012890507
170.0,87.41665327033407,85.31986966745777,87.60230703643282,86.0627973905492,82.28459525100823,86.10856906426159
175.0,87.48681299821644,85.41986966745779,87.7166306659596,86.18041582191245,82.4906390874537,86.21696494578154
180.0,87.42349560797155,85.44751405848842,87.7166306659596,86.23323860409268,82.72605268641844,86.23575351844414
185.0,87.19438292660917,85.48051864276557,87.53123919418132,86.16642906034181,82.9217283075024,86.1349873084553
190.0,86.93185121832119,85.40841384894965,87.33123919418132,86.0579892153738,83.10202593706265,85.99758565611528
195.0,86.63185121832119,85.36986052725862,87.0583753748698,85.88974328423785,83.26494366892393,85.82737217597288
200.0,86.23757160384959,85.2698605272586,86.75837537486979,85.66080433448306,83.33483641159606,85.59852070696533
206.0,85.74806503584739,85.1698605272586,86.42929192098998,85.29602324994383,83.3015746067707,85.30555387450843
212.0,84.947858195532,84.99847326878529,85.88827910447472,84.73310066832009,83.06024552059063,84.81803448472245
218.0,83.90481440409505,84.7530857492724,85.1322660995305,83.91311046288133,82.55802428742444,84.13947598706679
224.0,82.89900708084885,84.41371638066911,84.4348312004765,83.00077073003658,81.97262901109976,83.44757610107776
230.0,82.36537476527226,84.07779108630396,84.01954564959732,82.37574880938709,81.39976244325328,82.97232262161569
236.0,82.72954635195771,83.81371638066909,84.2793442646963,82.33590670222816,80.95959352058927,82.97523851841635
240.0,83.88681146474919,83.61987122474487,85.25570573562267,82.97261292377209,80.6216075101598,83.51769154648109
250.0,85.26574313478108,83.63677453654623,86.4442437024413,84.01730600398086,80.22481045626212,84.36387417027034
258.0,86.45745253906183,83.8597715474994,87.48881789682167,85.10618010723653,79.82076398043895,85.22820494882173
265.0,87.15745253906184,84.10634870729619,88.18881789682166,85.90522782764613,79.61181677028823,85.83666717680215
272.0,87.49438292660918,84.4473023732709,88.55786544394354,86.39378808825965,79.72598804423863,86.20609175712283
280.0,87.66574313478107,84.92150735605301,88.76990502843748,86.7555241593386,80.0845406465333,86.4813336917966
290.0,87.90345825641494,85.42150735605301,88.9525906957476,86.99833963028811,80.60015087077372,86.75239927453266
300.0,88.14171577879235,86.02150735605301,89.17808976287492,87.24233950487485,81.12523053810793,87.05705001845848
307.0,88.3868114647492,86.58030856020956,89.34746061696598,87.43017614832249,81.55992226351414,87.32688474270321
315.0,88.58681146474919,87.14730237327088,89.48985717032623,87.60720097296445,81.87001703781112,87.5741121892205
325.0,88.72610576903315,87.58030856020956,89.5908703099638,87.64712977537897,82.09027961478245,87.74115207811428
335.0,88.69957852962732,87.88030856020956,89.59581562268225,87.55640615625953,82.1907868773921,87.78364887392355
345.0,88.53966641591728,87.98030856020956,89.50034943163926,87.26665400858435,82.08386938034337,87.67656090477888
355.0,88.2547094176253,87.85470941762532,89.26208377633745,86.78707956660733,81.78957472832025,87.40553463335252
365.0,87.69615061523785,87.59615061523786,88.93678578349855,86.28297783148705,81.3361580374212,87.00190742401523
375.0,87.09615061523786,87.27122720534763,88.51963915918621,85.7952409374175,80.8070690240938,86.54608187298396
387.0,86.45470941762531,86.97122720534763,88.07468819129025,85.41994242252044,80.27910237784761,86.09978316135884
400.0,85.88030856020956,86.77122720534764,87.58383777915671,85.06795572070729,79.71259465867031,85.68405544381316
412.0,85.3063487072962,86.52954635195769,87.00034943163926,84.6749558959288,79.1035890615851,85.22463669230481
425.0,84.7063487072962,86.38842410834872,86.40509184497445,84.22222405608848,78.58306610658994,84.78414208332195
437.0,84.20634870729619,86.173497634903,85.78780457574558,83.72791410259589,78.09168124079291,84.33688067755787
450.0,83.87354057935278,85.92610576903316,85.38126885010061,83.33292700232046,77.68743252448051,83.99588166376655
462.0,83.93283475158702,85.81403433704371,85.30517208231556,83.07673879208194,77.27754577379005,83.8899271842234
475.0,84.35308420384993,85.68051864276558,85.4924282028313,82.89924627028796,76.86629272950914,83.94480072012252
487.0,84.94171577879234,85.55308420384992,85.83580600289491,82.62816439892187,76.50401118839649,84.09049998219923
500.0,85.57553109913474,85.43283475158701,86.06432573944402,82.15611147611999,75.88207068355179,84.20776770839471
515.0,85.87553109913472,85.11480332456574,86.06194620177274,81.4191390486497,74.91157490647396,84.09939118564975
530.0,85.93757160384958,84.80558380955836,85.93337628234514,80.72905796720907,73.88650921588126,83.9079566680532
545.0,85.96574313478106,84.62003811593766,85.91366805460558,80.4494818243324,72.97290804560886,83.82276620379838
560.0,86.1285673541689,84.59731905337445,86.09668351735922,80.59194381501689,72.76529034740395,83.94055305153375
580.0,86.52105682807507,84.8800974831534,86.49164818757261,81.16678133959978,73.3682965622217,84.3291681757862
600.0,87.0799503761092,85.2072669563408,86.9406469265201,81.7927084605759,74.31372952241014,84.8134857663488
615.0,87.64537958625374,85.37288510757092,87.29250334130728,82.28315974300939,75.2894681447988,85.22480247988042
630.0,88.07395564699189,85.27288510757093,87.48487552946642,82.64629133889703,76.11030898297655,85.4744740692061
650.0,88.34090095852413,84.94612431389686,87.50789648397742,82.87816464072267,76.51766309052661,85.55585577375003
670.0,88.54090095852412,84.57553519806532,87.50404458914923,83.08081322692242,76.72526130953447,85.5981402629738
690.0,88.74239408381874,84.39633731003644,87.50404458914923,83.15209443044064,76.78127869057445,85.66067928015731
710.0,89.04985597115052,84.46537476527226,87.5316677003948,83.05362059385028,76.47643939029737,85.78865603334577
730.0,89.24471717806861,84.6295463519577,87.53737278369533,82.74891058967302,75.76683320098691,85.85233472472541
750.0,89.37353920846552,84.75470941762532,87.57361425105425,82.33611203000402,74.60866932986723,85.88076649229939
775.0,89.11832506681671,84.55470941762532,87.49623944347209,81.78094933064,73.18379085536216,85.64676012134498
800.0,88.5926866027891,84.23815166454548,87.39995039821541,81.26334585243202,71.66216840563165,85.28022680476843
825.0,87.86815919561681,83.832254452177,87.2120281228874,80.75758759413404,70.5337634624665,84.80119434168674
850.0,86.95319257551779,83.32954331612807,86.99232814764845,80.65637804442684,70.35111483830724,84.27658217908866
875.0,86.04366282083623,82.87562557145483,86.84227578043141,81.07302367983725,70.99272489797609,83.87365060576595
900.0,85.17179996608978,82.20079564980081,86.71079950882314,81.81394180554027,72.1816559795053,83.54970582836452
925.0,84.50634699443985,81.17562557145484,86.80398274820232,82.78352304578969,73.40799192322217,83.44058083846188
950.0,84.37887872810526,80.18546503348246,87.1506096583551,83.6359749863338,74.24016786154922,83.63560043181295
975.0,84.87779108630396,79.35470941762532,87.51702864246477,84.21559178211908,74.71064672850771,83.98548974049879
1000.0,85.80752183262123,79.20345825641495,87.9160970229962,84.5059192737328,74.8322580040814,84.45798135656057
1030.0,86.93858128900231,80.05745253906183,88.09150810904283,84.35249948367026,74.6362060011954,84.88940431913
1060.0,87.67165357040497,81.35745253906184,87.93253129449931,83.98225333706148,74.27673559610378,85.10510782865968
1090.0,87.84239408381875,82.80015284474358,87.55453363388055,83.54833726629626,73.76741538659837,85.10184811040341
1120.0,87.55066353385506,84.1722043554705,87.06937902397381,83.22650708957892,73.25027859489634,84.9717621611467
1150.0,86.92692492597905,84.9722043554705,86.68163746078812,83.3511591820482,73.01861445428713,84.79766612639685
1180.0,86.35328468355709,85.35582100055787,86.5214240859215,83.77024659628734,73.1119741819931,84.72078852776751
1220.0,85.96481867051267,85.31053139570939,86.61014455473644,84.37323182798875,73.55921570338242,84.73966756737724
1250.0,85.85803827066181,84.97395564699188,87.10627719824603,84.96312255905079,74.20295208603814,84.92234733232875
1280.0,86.00986771716222,84.44090095852414,87.48688634781018,85.14675987795759,74.2385410808383,85.02787881091588
1320.0,86.12187431096156,83.88075236267267,87.6998541605654,84.71112978486103,73.35462079148954,84.9420331319462
1360.0,85.98784003204196,83.57054046872116,87.66832501949698,83.79929691688864,71.62670972134332,84.66418190386486
1400.0,85.58211892339489,83.23928576499053,87.40876299764003,82.5738585393364,69.37165663791089,84.19161149184356
1450.0,84.85780413615333,82.944355984785,87.14602869263831,81.29857359567688,67.11675823895968,83.65994598898494
1500.0,84.0433343424078,82.4941266559792,86.93240939906238,80.30618354141302,65.35903883451596,83.1617258899723
1550.0,83.24160340090347,81.65977656648218,86.78752007376714,79.48829363965322,64.22367869080824,82.67769668250334
1600.0,82.5285673541689,80.73093230601276,86.6052853386293,78.69015914873647,63.26700993982743,82.20662848029627
1650.0,81.86963245142226,79.76898798252773,86.33479899530703,77.85705185132244,62.523749679210766,81.71126098667794
1700.0,81.23601518803517,79.13551869054726,86.08608855468881,77.1355454454006,61.74257383483132,81.29788277302158
1750.0,80.5588547601388,78.78345497889921,85.80328311098208,76.41587101494484,60.82812075264778,80.89764162678163
1800.0,80.08213824590601,78.89107901695311,85.48207697080443,75.8545661056201,60.04427125926895,80.58605720448853
1850.0,79.75443257129062,78.97144270917963,85.32272548263174,75.53275270749256,59.67109729285028,80.41955795964088
1900.0,79.75007515203315,78.79843654511421,85.25872924986564,75.42211926077903,59.68327485842886,80.34755131299596
1950.0,79.78784223927681,78.22430049189056,85.30602467099507,75.6373790703008,60.46337678371387,80.32394012418146
2000.0,79.96027349377613,77.35620075413868,85.53282016685603,76.37501084332881,61.96529247016721,80.46081676977909
2060.0,80.0129392111889,76.58564704940883,85.80965283623394,77.19383984105158,63.19007043434286,80.65492049960865
2120.0,79.88363463738361,75.95522560271996,86.02536655408582,77.88836453138042,63.912759380397745,80.80015937177927
2180.0,79.69715339855105,75.53111188960675,86.17477483819209,78.31737459163175,63.82647190922981,80.89020526465069
2240.0,79.45932690384252,75.04625345105286,86.06202980397806,78.2995913515081,63.1947858360044,80.74654456390604
2300.0,79.13670357280753,74.50768216376449,85.77878663545775,78.12681536314285,62.721910353233795,80.45620485125295
2360.0,78.7274376491101,74.30211978085731,85.48786966630412,78.11795370652011,62.854925855142966,80.18796728118019
2400.0,78.49715095345024,74.90599279595784,85.30179804019288,78.30658034697692,63.56424710973323,80.09162813600842
2500.0,78.64971645637229,76.08716390772683,85.37271134881456,78.62958336731806,64.49472100849425,80.28745391344277
2580.0,79.21268713579222,77.58519245457218,85.64262663733535,78.97882206816091,65.2955254054888,80.71777825094044
2650.0,80.07809225959664,78.92105682807508,85.81752446801572,79.21002281439729,65.72164852054027,81.13037398240176
2720.0,80.951881621511,79.86574313478107,85.90517083236801,79.32569838022073,65.69455442105621,81.46313856807541
2800.0,81.61363696671106,80.49449710588647,85.86763749599248,79.46975431326766,65.49201510765684,81.67472916817648
2900.0,82.05703800989019,80.74961604348725,85.7993895291615,79.65479119237924,65.16408744984643,81.79093851714381
3000.0,82.23853443839391,80.68921284508818,85.7221380562055,79.79743826189444,64.87621403657134,81.7988851674402
3070.0,82.17884174613695,80.61563904785817,85.67705604566262,79.84175976459323,64.6909538970146,81.75700966148682
3150.0,82.02624514740987,80.44267740791142,85.6816906464059,79.92625690584,64.63768778417099,81.71069866302156
3250.0,81.8022034915069,80.23658883765586,85.85925273104796,79.93195183670608,64.47525603448469,81.7242279336131
3350.0,81.71939195713605,80.1316673275663,86.1482880833607,80.01922660999998,64.47552873065916,81.85730385254843
