Freq "Front Wall Bounce"
22.4 43.63618784387165
23.0 45.09719203767165
23.6 46.61252255585444
24.0 48.15694179084767
25.0 49.6574564610728
25.8 51.24095481331179
26.5 52.85509569524871
27.2 54.44285023480313
28.0 56.58687158701525
29.0 59.02003073777496
30.0 60.78665210525463
30.7 62.19047213735152
31.5 63.55381208874479
32.5 65.20763719665165
33.5 67.13194842802606
34.5 68.44321099673871
35.5 69.82897490847574
36.5 71.32831056730751
37.5 72.71435116292834
38.7 73.91435116292836
40.0 75.08564139124147
41.2 76.17186534338398
42.5 77.17186534338398
43.7 78.28564139124146
45.0 79.31435116292836
46.2 80.18564139124146
47.5 81.18564139124146
48.7 82.28564139124146
50.0 83.12831056730752
51.5 84.12831056730751
53.0 85.02831056730751
54.5 85.82831056730751
56.0 86.32831056730751
58.0 87.0283105673075
60.0 87.69969323269464
61.5 88.22831056730752
63.0 88.59969323269465
65.0 88.97154393664363
67.0 89.34254882986829
69.0 89.61402547128718
71.0 89.91402547128719
73.0 90.0859692183882
75.0 90.31402547128718
77.5 90.61402547128718
80.0 90.94254882986827
82.5 91.1859692183882
85.0 91.2859692183882
87.5 91.22864275059469
90.0 91.08596921838821
92.5 90.90068107350841
95.0 90.64354975305903
97.5 90.3718804902301
100.0 90.07188049023009
103.0 89.68698326532304
106.0 89.31568419693707
109.0 88.98698326532303
112.0 88.65939588452461
115.0 88.37489423313104
118.0 88.07489423313105
122.0 87.7465832131675
125.0 87.40367490352114
128.0 87.10367490352112
132.0 86.8613297094826
136.0 86.74613730237394
140.0 86.77578106968558
145.0 86.93123919418132
150.0 87.0166306659596
155.0 87.20230703643281
160.0 87.3296240292267
165.0 87.48826366322785
170.0 87.60230703643282
175.0 87.7166306659596
180.0 87.7166306659596
185.0 87.53123919418132
190.0 87.33123919418132
195.0 87.0583753748698
200.0 86.75837537486979
206.0 86.42929192098998
212.0 85.88827910447472
218.0 85.1322660995305
224.0 84.4348312004765
230.0 84.01954564959732
236.0 84.2793442646963
240.0 85.25570573562267
250.0 86.4442437024413
258.0 87.48881789682167
265.0 88.18881789682166
272.0 88.55786544394354
280.0 88.76990502843748
290.0 88.9525906957476
300.0 89.17808976287492
307.0 89.34746061696598
315.0 89.48985717032623
325.0 89.5908703099638
335.0 89.59581562268225
345.0 89.50034943163926
355.0 89.26208377633745
365.0 88.93678578349855
375.0 88.51963915918621
387.0 88.07468819129025
400.0 87.58383777915671
412.0 87.00034943163926
425.0 86.40509184497445
437.0 85.78780457574558
450.0 85.38126885010061
462.0 85.30517208231556
475.0 85.4924282028313
487.0 85.83580600289491
500.0 86.06432573944402
515.0 86.06194620177274
530.0 85.93337628234514
545.0 85.91366805460558
560.0 86.09668351735922
580.0 86.49164818757261
600.0 86.9406469265201
615.0 87.29250334130728
630.0 87.48487552946642
650.0 87.50789648397742
670.0 87.50404458914923
690.0 87.50404458914923
710.0 87.5316677003948
730.0 87.53737278369533
750.0 87.57361425105425
775.0 87.49623944347209
800.0 87.39995039821541
825.0 87.2120281228874
850.0 86.99232814764845
875.0 86.84227578043141
900.0 86.71079950882314
925.0 86.80398274820232
950.0 87.1506096583551
975.0 87.51702864246477
1000.0 87.9160970229962
1030.0 88.09150810904283
1060.0 87.93253129449931
1090.0 87.55453363388055
1120.0 87.06937902397381
1150.0 86.68163746078812
1180.0 86.5214240859215
1220.0 86.61014455473644
1250.0 87.10627719824603
1280.0 87.48688634781018
1320.0 87.6998541605654
1360.0 87.66832501949698
1400.0 87.40876299764003
1450.0 87.14602869263831
1500.0 86.93240939906238
1550.0 86.78752007376714
1600.0 86.6052853386293
1650.0 86.33479899530703
1700.0 86.08608855468881
1750.0 85.80328311098208
1800.0 85.48207697080443
1850.0 85.32272548263174
1900.0 85.25872924986564
1950.0 85.30602467099507
2000.0 85.53282016685603
2060.0 85.80965283623394
2120.0 86.02536655408582
2180.0 86.17477483819209
2240.0 86.06202980397806
2300.0 85.77878663545775
2360.0 85.48786966630412
2400.0 85.30179804019288
2500.0 85.37271134881456
2580.0 85.64262663733535
2650.0 85.81752446801572
2720.0 85.90517083236801
2800.0 85.86763749599248
2900.0 85.7993895291615
3000.0 85.7221380562055
3070.0 85.67705604566262
3150.0 85.6816906464059
3250.0 85.85925273104796
3350.0 86.1482880833607
3450.0 86.60222139175714
3550.0 86.96930167001138
3650.0 87.18573891521412
3750.0 87.18573891521412
3870.0 87.0671014087172
4000.0 86.84881054395495
4120.0 86.55931698434165
4250.0 86.34272886256988
4370.0 86.30930962388888
4500.0 86.38006153175265
4620.0 86.51559981303339
4750.0 86.80447087413373
4870.0 86.97361310277485
5000.0 87.04463185341302
5150.0 87.24809777859394
5300.0 87.2734459326698
5450.0 87.32172352145085
5600.0 87.47030700836059
5800.0 87.65405307060826
6000.0 87.93424641291163
6150.0 88.19625618785082
6300.0 88.33487613855151
6500.0 88.22800841678574
6700.0 87.86441846895298
6900.0 87.33722569775308
7100.0 86.86768778243204
7300.0 86.58122268437916
7500.0 86.52809692366867
7750.0 86.62463050812443
8000.0 86.78845200305895
8250.0 87.03746174385847
8500.0 87.2616884342861
8750.0 87.46559705006229
9000.0 87.55633589674312
9250.0 87.51173317836395
9500.0 87.44609969004054
9750.0 87.29522693223913
10000.0 86.94543287535623
10300.0 86.5004949791182
10600.0 85.77775712316976
10900.0 84.92116793598359
11200.0 83.8282939123136
11500.0 82.33080590204258
11800.0 80.58112418526785
12200.0 78.93952147665723
12500.0 77.8025854027579
12800.0 77.4235404550254
13200.0 77.82958863559313
13600.0 78.27596260618672
14000.0 78.86052441803076
14500.0 79.50707043281827
15000.0 80.13612165546454
15500.0 81.01768602119739
16000.0 81.3801127237812
16500.0 80.90731712317447
17000.0 79.74999792877686
17500.0 77.84176107886086
18000.0 75.99098715918747
18500.0 74.73515094000258
19000.0 74.05777779378252
19500.0 74.03494752612086
