Freq "Rear Wall Bounce"
20.5078 72.88900715935857
21.2402 73.47437384659105
21.9727 74.12870958249715
22.7051 74.62286524539974
23.4375 75.44483022671446
24.1699 75.83369716272001
25.6348 76.620993834288
26.3672 77.02244543241848
27.0996 77.43244100307525
27.832 77.7393944435258
29.2969 78.82414590984824
30.0293 79.32384001404775
31.4941 80.20541667600075
32.2266 80.36810023274579
33.6914 80.9426342292891
34.4238 81.29351909376446
35.8887 82.00295751656135
37.3535 82.58263087257045
38.8184 83.1503822004591
39.5508 83.4385153313038
41.0156 83.98513687478106
42.4805 84.49080298913492
43.9453 85.01156736309346
45.4102 85.48484852005959
47.6074 86.06529672186723
49.0723 86.4148714895251
50.5371 86.70501704669802
52.7344 87.11636664893571
54.1992 87.35178936111738
56.3965 87.62288984943181
58.5938 87.82418046084298
60.0586 87.81489451090316
62.2559 88.00846370588089
64.4531 88.11682425123097
66.6504 88.11179936452919
69.5801 88.14543399362317
71.7773 88.0515367052041
73.9746 87.89848997108133
76.9043 87.66754362223232
79.834 87.50934249433958
82.7637 87.31176361501615
85.6934 87.1755266916789
88.623 87.01698370916749
91.5527 86.92070727191852
94.4824 86.83277391955326
98.1445 86.62460490041202
101.807 86.45829331178554
105.469 86.33786101459312
109.131 86.1580379404683
112.793 85.85720837532958
116.455 85.6682774338326
120.85 85.6832490023165
125.244 85.72702543810932
129.639 85.6784122465743
134.033 85.40967637925526
138.428 85.20342811638982
143.555 85.06916145191893
148.682 84.88325622135432
153.809 84.78188127391113
159.668 84.39095599021466
164.795 84.00719092938006
170.654 83.69351718871098
176.514 83.16182550467222
183.105 82.94913486906874
189.697 83.04656107952955
196.289 82.54162667937241
202.881 82.6205203798035
210.205 82.64475193388623
217.529 82.87696408657384
225.586 83.66007304279083
232.91 83.43383933367791
241.699 82.21439791427359
249.756 81.90723013905992
258.545 81.69899440866335
268.066 81.11846345995967
277.588 80.74367915424381
287.109 81.93771315580625
297.363 81.62337077437212
307.617 81.6974035573205
318.604 82.33870141174971
329.59 82.25561717318156
341.309 83.28315061509278
353.76 81.57391128801673
366.211 82.60472490232742
378.662 81.56910381569215
392.578 80.62579932611077
405.762 81.39408030794118
420.41 80.74141163634172
435.059 80.70981908529268
450.439 80.74866972329423
466.553 79.90379900950332
482.666 79.33001139812487
500.244 78.96530620096149
517.822 79.68929686530775
536.133 80.35001445910568
554.443 81.81956914540277
574.219 80.8342722260901
594.727 79.45152201795557
615.234 79.89802461475986
637.207 80.3284440775599
659.912 80.43613843376261
683.35 80.69384523081264
706.787 79.42291736507322
731.689 79.18078464677443
758.057 78.75610633971465
784.424 78.68071235216962
812.256 78.46432555545779
840.82 78.83497335639662
870.85 78.96579736900371
901.611 77.8950724815204
933.105 79.28946457624725
966.064 79.7919583250574
999.756 80.9681685930004
1034.91 81.5528785275119
1071.53 79.48361092881518
1109.62 78.24394069773551
1148.44 77.51371777800783
1189.45 77.35871183574908
1231.2 77.43566480089358
1274.41 76.21718801394596
1319.82 76.53661320271544
1365.97 76.2825412551348
1414.31 76.51642691992001
1464.11 76.77818743857286
1515.38 76.90197554721304
1568.85 76.33419301069661
1624.51 76.2387157245616
1681.64 76.44683698782939
1740.97 76.54818993370277
1802.49 76.76197313051861
1866.21 76.71561566909521
1932.13 75.96975595165232
2000.24 75.61411054165411
2070.56 76.21916070068774
2143.8 76.13401208697314
2219.24 75.36541704770937
2297.61 76.29069284488457
2378.17 76.57603213777018
2462.4 76.16027344792434
2548.83 75.37615324541815
2638.92 76.01572963919313
2731.93 75.5942480556848
2828.61 75.54467665291479
2928.22 75.68598944631722
3031.49 74.62229130608391
3138.43 75.9076941563821
3249.02 76.57035995197363
3363.28 76.63628269794411
3481.93 76.76826011528232
3604.98 76.45294067717086
3732.42 76.27327633661467
3863.53 76.18007431677212
3999.76 76.50474160809206
4141.11 76.23849537697797
4286.87 76.00079650918407
4438.48 76.20046288485574
4594.48 75.39722464254947
4757.08 75.21361648184657
4924.8 76.11514613834701
5098.39 75.27920172775283
5277.83 76.33478156578937
5463.87 75.74421452740044
5656.49 75.12202432540293
5856.45 75.21610569886177
6062.99 74.96927388434547
6276.86 74.16996569577041
6498.05 74.23288909591035
6727.29 73.30360603596523
6964.6 73.90375323101138
7209.96 73.97719209836605
7464.11 74.14121396828232
7727.78 73.2267452114967
8000.24 73.00458972254292
8282.23 73.21647888341543
8574.46 72.38355903182742
8876.22 72.47361624327229
9189.7 71.91337747352331
9513.43 70.79031302257872
9848.88 70.4791421093379
10196.8 69.72685603592541
10556.4 69.26468140643897
10928.5 68.25005508678596
11313.7 66.38444889288358
11712.9 65.13047569168573
12126.0 64.3809833815543
12553.7 63.74831908826768
12996.1 64.01822866777874
13454.6 65.06981326859893
13928.5 65.71481101331808
14419.9 65.52817046896227
14928.2 64.7718629626391
15454.8 63.08419684413411
15999.8 61.216327567192295
16564.5 60.16830114909719
17148.2 61.36526579541028
17753.2 64.48193656407688
18379.4 66.58229923892985
19027.6 66.94056693502849
19698.5 65.368198349365
19999.5 65.10893189930462
