Freq "Ceiling Bounce"
22.4 37.90306957104252
23.0 37.17150800786939
23.6 36.60690501035458
24.0 35.838211298887416
25.0 35.10690501035458
25.8 34.07609175449221
26.5 33.442830304719735
27.2 34.57609175449221
28.0 36.31227178315618
29.0 38.07609175449221
30.0 41.3069050103546
30.7 44.40690501035459
31.5 45.93821129888744
32.5 48.338211298887416
33.5 50.57150800786937
34.5 52.17150800786939
35.5 54.63821129888743
36.5 56.43821129888744
37.5 57.63821129888744
38.7 59.503069571042516
40.0 61.238211298887435
41.2 62.63821129888744
42.5 63.47150800786939
43.7 64.87150800786938
45.0 66.17150800786938
46.2 67.40306957104252
47.5 69.00306957104253
48.7 70.10306957104252
50.0 71.03821129888743
51.5 71.90306957104252
53.0 73.00306957104252
54.5 74.00306957104253
56.0 74.70306957104253
58.0 75.60306957104251
60.0 76.63821129888743
61.5 77.40306957104252
63.0 78.13821129888743
65.0 79.03821129888743
67.0 79.87150800786938
69.0 80.63821129888743
71.0 81.30306957104251
73.0 81.80306957104253
75.0 82.27150800786937
77.5 82.67150800786939
80.0 82.80306957104251
82.5 82.73821129888744
85.0 82.50690501035459
87.5 82.17150800786938
90.0 81.77150800786939
92.5 81.33821129888743
95.0 80.87150800786937
97.5 80.53821129888743
100.0 80.23821129888744
103.0 79.90690501035459
106.0 79.60690501035458
109.0 79.33821129888742
112.0 78.90690501035459
115.0 78.54283030471974
118.0 78.3069050103546
122.0 78.10690501035458
125.0 77.94283030471973
128.0 77.9069050103546
132.0 77.77609175449221
136.0 77.61227178315619
140.0 77.41227178315619
145.0 77.27928732607432
150.0 77.04898514879551
155.0 76.84898514879552
160.0 76.81227178315618
165.0 76.6489851487955
170.0 76.4489851487955
175.0 76.4489851487955
180.0 76.41916705502754
185.0 76.25667255930051
190.0 76.15667255930049
195.0 75.95667255930051
200.0 76.0566725593005
206.0 76.18982856673472
212.0 75.66588846059686
218.0 74.7026545034034
224.0 74.50982855556757
230.0 75.52526453928849
236.0 76.93546263134682
240.0 78.06194867563767
250.0 78.48219812790055
258.0 78.42179738688895
265.0 78.40963256681621
272.0 78.08219812790055
280.0 78.40963256681621
290.0 78.63752777300029
300.0 78.77082970284297
307.0 78.73752777300027
315.0 78.34898359150841
325.0 78.03546263134683
335.0 78.23546263134682
345.0 78.64898359150841
355.0 78.63546263134683
365.0 78.63546263134683
375.0 78.56194867563765
387.0 78.74898359150842
400.0 78.28888547155003
412.0 78.07641629732153
425.0 78.2672655885961
437.0 78.292378988098
450.0 78.69506458035829
462.0 78.74898359150842
475.0 78.42179738688895
487.0 77.3026545034034
500.0 76.64852015458806
515.0 78.3361070797735
530.0 77.95866027600835
545.0 75.85999961744992
560.0 74.90791075563449
580.0 76.40432912249857
600.0 78.45800804769343
615.0 78.09040221489246
630.0 77.10901938276999
650.0 76.72585044351925
670.0 75.41395652088275
690.0 74.01664590330462
710.0 73.92696820294228
730.0 73.3269682029423
750.0 72.55684436552909
775.0 70.65825149212044
800.0 70.3581092101685
825.0 71.4612748054792
850.0 72.53920982111144
875.0 72.94171952330976
900.0 72.8137899675559
925.0 71.68759923684219
950.0 69.56671702468141
975.0 69.42081894554056
1000.0 69.31323574403132
1030.0 68.16097559154804
1060.0 69.5708960000729
1090.0 71.09265755490995
1120.0 71.09751749841197
1150.0 71.6746684327642
1180.0 71.68120661450054
1220.0 71.00285095761178
1250.0 71.28681963215334
1280.0 70.3028509576118
1320.0 68.13907858744406
1360.0 68.41845254529693
1400.0 68.07569581518241
1450.0 65.61786801381467
1500.0 66.16136837622764
1550.0 68.97244826645844
1600.0 70.23746771551315
1650.0 70.3501707521257
1700.0 70.43897757455801
1750.0 69.5094224842602
1800.0 69.50542400732661
1850.0 69.52909084157254
1900.0 69.97245431186855
1950.0 71.03934630743584
2000.0 70.14749563719573
2060.0 67.96410210350322
2120.0 67.44460809313534
2180.0 68.70330511748405
2240.0 70.88796963813817
2300.0 72.34214978057115
2360.0 73.84827552839255
2400.0 75.10391141983602
2500.0 74.85081528908938
2580.0 73.9019056580271
2650.0 71.64878700732918
2720.0 70.25546408520384
2800.0 69.87075884571827
2900.0 69.22972358682664
3000.0 67.04640695475521
3070.0 67.81804420460128
3150.0 70.26073506160972
3250.0 72.01592692226706
3350.0 71.79959529697504
3450.0 71.05177290896783
3550.0 69.45423864669905
3650.0 67.15604123364533
3750.0 66.31163609336572
3870.0 64.92045201940027
4000.0 63.64228926513178
4120.0 64.28407839372548
4250.0 66.81627940083641
4370.0 67.8145789575331
4500.0 66.6280237724994
4620.0 64.32518045435593
4750.0 62.03600636487157
4870.0 62.21979257444691
5000.0 62.66644862347796
5150.0 65.69736051976008
5300.0 68.83449694180383
5450.0 69.30402010463239
5600.0 66.8404486422004
5800.0 61.260450159465506
6000.0 59.71904449785342
6150.0 62.697421986663
6300.0 66.99723682439924
6500.0 67.87579331079966
6700.0 63.900849680593325
6900.0 60.1568521738114
7100.0 59.510287724191045
7300.0 65.82149511736614
7500.0 71.52984199301267
7750.0 67.98503231183648
8000.0 60.469118342442115
8250.0 60.42919414341293
8500.0 67.48915630129642
8750.0 71.18982856673472
9000.0 67.92854947575142
9250.0 62.49552577898119
9500.0 61.070858595553716
9750.0 65.18403130609468
10000.0 64.75299092212623
10300.0 61.59351125469588
10600.0 64.10409483010014
10900.0 69.9801638467673
11200.0 70.87197672001346
11500.0 64.41227178315619
11800.0 63.426300314944456
12200.0 66.7692126909017
12500.0 64.7534144159412
12800.0 64.81488522805641
13200.0 65.96861590860004
13600.0 61.883625121262796
14000.0 62.14087709308416
14500.0 61.967187295252245
15000.0 68.23547371710487
15500.0 64.04845957033628
16000.0 59.939210370814536
16500.0 58.10348581491061
17000.0 54.87133549446028
17500.0 56.14291865911434
18000.0 53.40037592795045
18500.0 45.90989015644533
19000.0 50.220157211022894
19500.0 56.53617012104149
