Freq "Floor Bounce"
22.4 40.07150800786938
23.0 39.606905010354595
23.6 39.0069050103546
24.0 38.54283030471974
25.0 37.77928732607431
25.8 37.456672559300486
26.5 37.298974451309235
27.2 37.85667255930049
28.0 39.48623512455235
29.0 41.21916705502754
30.0 44.35667255930049
30.7 46.9489851487955
31.5 48.21227178315617
32.5 50.612271783156174
33.5 52.842830304719755
34.5 54.44283030471972
35.5 56.90690501035459
36.5 58.606905010354595
37.5 59.80690501035458
38.7 61.63821129888743
40.0 63.30690501035458
41.2 64.80690501035458
42.5 65.6069050103546
43.7 66.97150800786939
45.0 68.23821129888744
46.2 69.43821129888744
47.5 71.03821129888742
48.7 72.13821129888744
50.0 73.07150800786938
51.5 73.97150800786939
53.0 75.10306957104251
54.5 76.00306957104253
56.0 76.67150800786938
58.0 77.57150800786938
60.0 78.60306957104252
61.5 79.40306957104252
63.0 80.10306957104251
65.0 81.03513059177983
67.0 81.86845083805433
69.0 82.60306957104251
71.0 83.30306957104251
73.0 83.80306957104251
75.0 84.26845083805433
77.5 84.63513059177983
80.0 84.76845083805433
82.5 84.70306957104252
85.0 84.53513059177983
87.5 84.20306957104252
90.0 83.80306957104251
92.5 83.36845083805433
95.0 82.96845083805432
97.5 82.66845083805433
100.0 82.40306957104251
103.0 82.13513059177983
106.0 81.86845083805433
109.0 81.56845083805433
112.0 81.26845083805432
115.0 80.96845083805432
118.0 80.7007674944556
122.0 80.53435140868503
125.0 80.40076749445562
128.0 80.33435140868502
132.0 80.30076749445563
136.0 80.23435140868503
140.0 80.13435140868503
145.0 80.00076749445562
150.0 79.90076749445561
155.0 79.70076749445562
160.0 79.5669218511605
165.0 79.4669218511605
170.0 79.40076749445562
175.0 79.40076749445562
180.0 79.4669218511605
185.0 79.36692185116051
190.0 79.23358982687998
195.0 79.13358982687998
200.0 79.16692185116051
206.0 79.43358982687998
212.0 79.63358982687997
218.0 79.40076749445562
224.0 79.03435140868503
230.0 78.97150800786939
236.0 79.5069050103546
240.0 80.20690501035459
250.0 80.67150800786938
258.0 80.8053180676647
265.0 80.83663575667187
272.0 80.64044167945491
280.0 80.44576719438469
290.0 80.28982856673473
300.0 80.25260953202218
307.0 80.41916705502754
315.0 80.55260953202217
325.0 80.55260953202217
335.0 80.52349685065981
345.0 80.39897445130926
355.0 80.56096514237181
365.0 80.56096514237181
375.0 80.23752777300028
387.0 79.8096325668162
400.0 79.67662798253906
412.0 79.44898359150842
425.0 79.08888547155003
437.0 78.90473530118577
450.0 78.95380974359448
462.0 78.54680983520815
475.0 78.1840783937255
487.0 78.17314211136083
500.0 78.03663575667186
515.0 79.16235742942077
530.0 80.18219967332304
545.0 78.70542400732661
560.0 78.10473530118576
580.0 79.47082970284298
600.0 80.73257218046558
615.0 80.66668552790023
630.0 80.1053180676647
650.0 79.63513059177983
670.0 79.30231994589776
690.0 79.17150800786938
710.0 79.81430637862282
730.0 80.66336865784946
750.0 81.19965439277178
775.0 82.16336865784946
800.0 82.29965439277179
825.0 81.60722417372365
850.0 80.7552233498861
875.0 79.62361409713276
900.0 78.59272765338211
925.0 77.90473949550548
950.0 78.27641629732153
975.0 78.3094224842602
1000.0 78.08538710465899
1030.0 78.2026545034034
1060.0 77.97584607527145
1090.0 77.25906263657508
1120.0 76.9527499421436
1150.0 76.95131759580826
1180.0 77.35412591517941
1220.0 77.95477168396808
1250.0 78.15412591517942
1280.0 78.08318629029516
1320.0 76.995628709618
1360.0 75.55522779336133
1400.0 73.84635354888371
1450.0 71.90152535480432
1500.0 73.02057197226932
1550.0 73.68422821633101
1600.0 71.83991071577186
1650.0 69.67821671207984
1700.0 69.40914494217108
1750.0 69.51769305273636
1800.0 70.53600636487157
1850.0 71.607458292636
1900.0 72.53122235461814
1950.0 73.29955698518823
2000.0 73.46234633244238
2060.0 72.53113467688884
2120.0 71.87641629732153
2180.0 72.23049751401601
2240.0 72.50942076110276
2300.0 72.10986628672329
2360.0 72.88915630129641
2400.0 74.28623512455239
2500.0 74.79156164294318
2580.0 75.09218730938166
2650.0 74.82149085387151
2720.0 75.4515931685987
2800.0 76.34985150686697
2900.0 77.18528746757075
3000.0 77.79272955006294
3070.0 77.9261903437016
3150.0 77.32247649965568
3250.0 76.67705438677228
3350.0 75.27622700041395
3450.0 74.62236323694202
3550.0 73.72314582700679
3650.0 72.6657819002546
3750.0 72.46974806126137
3870.0 71.77867551096698
4000.0 72.08337459608077
4120.0 70.21426416469536
4250.0 69.93780266430699
4370.0 71.37436617787408
4500.0 71.87296429705675
4620.0 72.19628374205205
4750.0 71.08932381424366
4870.0 71.92129597378643
5000.0 72.69188145404553
5150.0 74.55355465961783
5300.0 76.98681963215331
5450.0 77.31008030995181
5600.0 75.43964868929713
5800.0 71.32150143602156
6000.0 69.493262621967
6150.0 69.81210644697298
6300.0 73.13283404808126
6500.0 74.81249723711507
6700.0 73.12702478168919
6900.0 72.26178817683372
7100.0 72.06895399038608
7300.0 75.41440116945873
7500.0 78.0998094841365
7750.0 74.13598672337152
8000.0 69.62002361533638
8250.0 69.47212189245407
8500.0 73.87658560391225
8750.0 76.09868001632913
9000.0 73.98599324812044
9250.0 72.36942862157194
9500.0 72.12967387895729
9750.0 71.7371301334992
10000.0 71.26506011325957
10300.0 72.02007983916177
10600.0 72.58040318907375
10900.0 73.58197072843022
11200.0 75.05934271306731
11500.0 73.77499246229395
11800.0 70.71690208684782
12200.0 73.66859045933919
12500.0 76.30116689230475
12800.0 74.7668421586779
13200.0 74.2358616148032
13600.0 73.81052211764553
14000.0 70.85597503611525
14500.0 70.1931725748879
15000.0 78.30085214006432
15500.0 71.58280528069406
16000.0 65.27814603037487
16500.0 69.64087743515095
17000.0 66.75612834324109
17500.0 64.91305194378084
18000.0 64.10222384079289
18500.0 57.482091711420054
19000.0 62.51068400967259
19500.0 65.54672638439607
