Freq "Rear Wall Bounce"
22.4 39.264803400379435
23.0 38.71214378904648
23.6 37.90295930800258
24.0 38.28996732880893
25.0 37.452753543352145
25.8 37.09371425136439
26.5 37.433391499770295
27.2 37.3482587951402
28.0 38.73988716437131
29.0 40.335431033385504
30.0 43.432896033395934
30.7 45.86264826550223
31.5 47.07811559437599
32.5 49.4886800785643
33.5 51.53791790204946
34.5 53.01363917146759
35.5 55.503135300969774
36.5 57.257511988100774
37.5 58.415862146934074
38.7 60.22284778354293
40.0 61.881808998870426
41.2 63.29261007736997
42.5 64.08774475471806
43.7 65.42083917854531
45.0 66.69930150547565
46.2 67.91601914152093
47.5 69.48436862136415
48.7 70.56911547920492
50.0 71.49544957628686
51.5 72.32241926302315
53.0 73.37719538340434
54.5 74.41157755875862
56.0 75.10067613867824
58.0 75.91777700958737
60.0 76.96963879608303
61.5 77.7640225476118
63.0 78.47929355605339
65.0 79.34404516013456
67.0 80.18938037890848
69.0 80.94702575901307
71.0 81.55719309917599
73.0 82.0478889362521
75.0 82.46917788436303
77.5 82.85281525308508
80.0 82.97232945185503
82.5 82.86136367263899
85.0 82.52726471103452
87.5 81.98206514144154
90.0 81.70438147519778
92.5 81.30828051444574
95.0 80.83119654640711
97.5 80.59614288997152
100.0 80.38163090899374
103.0 79.99891546392459
106.0 79.74000414840913
109.0 79.53167323635154
112.0 79.06710401815286
115.0 78.571735481862
118.0 78.19811315489645
122.0 77.84680387081252
125.0 77.52435402688445
128.0 77.45470986441674
132.0 77.31306816907849
136.0 77.18500684530491
140.0 76.88788413758147
145.0 76.92181527102736
150.0 76.65915476338398
155.0 76.06662949347727
160.0 76.20380849128556
165.0 76.03727309134118
170.0 75.62954395198005
175.0 75.5629334132569
180.0 75.35775916432235
185.0 74.63874578951311
190.0 74.16166576951146
195.0 73.89045656320559
200.0 73.9785640116968
206.0 74.07117781336018
212.0 73.51802493978106
218.0 72.35538409809098
224.0 71.47299820740784
230.0 71.95411514770014
236.0 73.01696573702267
240.0 74.47254502054065
250.0 75.2025253468089
258.0 74.74359507168828
265.0 74.07714977561481
272.0 73.15870520656549
280.0 73.06176193582823
290.0 73.04891324444006
300.0 72.69645112401159
307.0 72.57458715825621
315.0 72.58209852882439
325.0 72.515235153157
335.0 71.97344481605786
345.0 72.82918834942211
355.0 73.2921052518336
365.0 72.42722196385242
375.0 71.52757359696758
387.0 71.69808749622254
400.0 72.69327952099103
412.0 72.16126771603652
425.0 71.31200238181219
437.0 71.11534522889853
450.0 71.06343798909988
462.0 70.97858444689405
475.0 70.06599493159348
487.0 69.86550104871927
500.0 69.8526247324371
515.0 69.27288710816453
530.0 69.29264744041326
545.0 68.51213054171367
560.0 66.44646660857693
580.0 65.58979204517422
600.0 67.41652255500418
615.0 66.17485991102762
630.0 63.55349224784291
650.0 63.28531789993173
670.0 62.6596207335634
690.0 61.13108102593306
710.0 61.773310074986824
730.0 63.30186149489255
750.0 63.7065487139764
775.0 65.96692775052638
800.0 66.64088441742562
825.0 66.77260890143839
850.0 65.94631741056534
875.0 64.9001434080216
900.0 64.12039629018933
925.0 62.626569602349065
950.0 61.262579168029646
975.0 59.86183165248235
1000.0 57.13731054108791
1030.0 56.62581061239419
1060.0 55.89600068645805
1090.0 53.72527819298173
1120.0 55.720254658390076
1150.0 57.5904593657951
1180.0 56.50223779967422
1220.0 57.41704853675404
1250.0 58.38244488005353
1280.0 58.31374968598831
1320.0 58.406057238905504
1360.0 58.19981888120829
1400.0 56.01404694017998
1450.0 51.214752899957546
1500.0 54.8821564956842
1550.0 59.85323959594146
1600.0 60.54599378080657
1650.0 60.32033980457268
1700.0 59.806755750942855
1750.0 58.92213683832375
1800.0 59.11577500556112
1850.0 59.3813450880109
1900.0 59.33849196234786
1950.0 59.359648374952954
2000.0 58.66527482564268
2060.0 57.48736435257747
2120.0 56.85888736103544
2180.0 57.35034975740095
2240.0 57.87007952027032
2300.0 58.184813287653554
2360.0 58.94582245267351
2400.0 59.77765672785948
2500.0 59.263990625603
2580.0 58.105297932458896
2650.0 57.38871733929298
2720.0 57.98152871256909
2800.0 58.31458382373455
2900.0 58.9283038673981
3000.0 59.78526532276635
3070.0 59.942113637721405
3150.0 59.44902455579948
3250.0 59.186322926891734
3350.0 57.526217407136755
3450.0 55.557367891541475
3550.0 53.47197884499499
3650.0 52.52050510910982
3750.0 53.515463010179815
3870.0 55.60452370273268
4000.0 57.72491617699011
4120.0 58.22961520252561
4250.0 57.81765046840428
4370.0 56.64279821853893
4500.0 55.0804093013536
4620.0 52.457810525457546
4750.0 50.558555317783515
4870.0 53.15453053200724
5000.0 56.27636946155974
5150.0 58.544274676862145
5300.0 59.364375014331415
5450.0 58.34213748538846
5600.0 55.55756421797483
5800.0 50.57906548103884
6000.0 50.27604970016563
6150.0 53.05345822605395
6300.0 56.297064352350475
6500.0 56.721926679386144
6700.0 53.87707717964133
6900.0 51.311290783490875
7100.0 50.39016219027832
7300.0 53.17400190709324
7500.0 57.56771753879298
7750.0 56.95122681708125
8000.0 53.56398297384993
8250.0 51.582744687570795
8500.0 53.65869371935128
8750.0 56.05729225465362
9000.0 56.09831227763382
9250.0 54.45945158802982
9500.0 53.67285138704656
9750.0 52.908103342428376
10000.0 54.35885585155276
10300.0 55.933288515505666
10600.0 57.926777592992295
10900.0 52.49449213253877
11200.0 53.76697070435907
11500.0 59.953968575033116
11800.0 53.846950951753115
12200.0 48.90042390233876
12500.0 55.02831823600579
12800.0 56.14523417996142
13200.0 49.867865597772095
13600.0 52.616084451653535
14000.0 53.33171452414311
14500.0 47.55650607789653
15000.0 55.44709169668525
15500.0 51.94248802655491
16000.0 48.700556126223745
16500.0 52.742111760940105
17000.0 48.06839907034197
17500.0 45.913068979166724
18000.0 49.73915892655219
18500.0 44.03652887874091
19000.0 42.42310383617837
19500.0 44.07071906566782
