Freq "Side Wall Bounce"
22.4 39.42831539696331
23.0 38.837838777048034
23.6 38.05996375266258
24.0 37.600088700917894
25.0 36.58199362617981
25.8 36.03221208702786
26.5 35.96427784047418
27.2 36.54979405246502
28.0 38.202401688064896
29.0 39.94971009457868
30.0 43.20929787470271
30.7 45.98975498505493
31.5 47.37012375636482
32.5 49.78952948634017
33.5 52.02966797177959
34.5 53.60103649785569
35.5 56.12029434199928
36.5 57.87034510907884
37.5 59.05062574646112
38.7 60.920294341999295
40.0 62.63058253413888
41.2 64.04084641171812
42.5 64.91021673633549
43.7 66.24084641171812
45.0 67.54084641171812
46.2 68.78053134582805
47.5 70.33058253413888
48.7 71.45062574646111
50.0 72.4010364978557
51.5 73.25132431463416
53.0 74.39159041870396
54.5 75.3111354036006
56.0 75.99205181201862
58.0 76.86153934656723
60.0 77.93241156593665
61.5 78.69159041870395
63.0 79.43241156593665
65.0 80.33241156593665
67.0 81.14198709966905
69.0 81.91297264218863
71.0 82.55362639122106
73.0 83.06518232404646
75.0 83.51363026391513
77.5 83.88418892482579
80.0 84.0143554664901
82.5 83.9239708499223
85.0 83.69480424860086
87.5 83.35681607856546
90.0 82.97425866670076
92.5 82.51524227999579
95.0 82.06634305685633
97.5 81.76634305685633
100.0 81.47584414976244
103.0 81.14727322060972
106.0 80.87720183505192
109.0 80.59711024123698
112.0 80.20029287690204
115.0 79.83559955551993
118.0 79.53602919286564
122.0 79.33658395970406
125.0 79.17863550498765
128.0 79.09818803669128
132.0 78.99952491900596
136.0 78.8902908707351
140.0 78.75255160425903
145.0 78.64382220274601
150.0 78.37943558203283
155.0 78.12458609257588
160.0 78.06926260642737
165.0 77.84513963435512
170.0 77.70370967712492
175.0 77.66014846322196
180.0 77.56617335762341
185.0 77.41914368631397
190.0 77.28351227829968
195.0 77.16865253289204
200.0 77.22999247871917
206.0 77.35096078884132
212.0 77.169440052813
218.0 76.94753944050284
224.0 76.89291618741007
230.0 77.31318686433033
236.0 78.18054228701995
240.0 78.97066567893424
250.0 79.1674462713392
258.0 79.03739008320137
265.0 78.99595312591157
272.0 78.86230629198892
280.0 79.01650938610439
290.0 79.10636934838573
300.0 79.0981534169034
307.0 79.08452345143138
315.0 79.1661424286748
325.0 79.13490974784028
335.0 79.31831296666536
345.0 79.64917015179527
355.0 79.42543319906707
365.0 79.07671442990923
375.0 79.14315918569314
387.0 79.16636561486354
400.0 79.21843206282415
412.0 78.69814692074593
425.0 78.58047430037689
437.0 78.3765259737054
450.0 78.09769207556843
462.0 77.77711558581163
475.0 77.3713268435245
487.0 77.11029219028369
500.0 76.41517626701273
515.0 76.75006906263617
530.0 76.58339205460152
545.0 75.21166950948881
560.0 74.22527306513486
580.0 74.88564166187922
600.0 76.26055967191972
615.0 75.2117414041593
630.0 73.80927556215329
650.0 73.39864754098772
670.0 72.74895322967474
690.0 72.24470714370213
710.0 72.59456469413144
730.0 73.38660341565469
750.0 73.75094872307395
775.0 74.45621626026335
800.0 74.4798975332678
825.0 74.10174846608905
850.0 73.89254742501306
875.0 73.84206777643422
900.0 73.64246068528055
925.0 72.83150815055838
950.0 71.65417542597734
975.0 70.97799791698505
1000.0 70.305235885815
1030.0 69.50863336484275
1060.0 68.81088716554571
1090.0 68.19621504776312
1120.0 67.85301773238692
1150.0 67.98152443084555
1180.0 68.2691690186881
1220.0 68.58550306485937
1250.0 68.99321646439681
1280.0 69.18615006428891
1320.0 69.28084786314436
1360.0 69.06863470244542
1400.0 68.61595744527753
1450.0 65.95399225349765
1500.0 63.857250050338465
1550.0 66.9922583065287
1600.0 69.2574770525629
1650.0 69.84269790026194
1700.0 70.08891575526616
1750.0 69.91655414329621
1800.0 70.54788271571145
1850.0 71.15076370922421
1900.0 71.4847602510097
1950.0 71.93605955677796
2000.0 71.57454204904774
2060.0 70.78762641226824
2120.0 70.37056431254105
2180.0 70.49528399266414
2240.0 71.35490568648854
2300.0 72.18987807123032
2360.0 73.41490194352559
2400.0 74.07153862423932
2500.0 73.0165794356143
2580.0 72.04625285763049
2650.0 71.46311399784643
2720.0 71.70182891374256
2800.0 71.66817604112734
2900.0 72.24796980270477
3000.0 73.2120427537825
3070.0 73.62210669894037
3150.0 73.52175507412565
3250.0 73.58878000824454
3350.0 72.88503365734849
3450.0 72.01120294548572
3550.0 70.23197951824869
3650.0 68.96022916975423
3750.0 69.34011256661533
3870.0 70.14791972115786
4000.0 71.81946046582537
4120.0 72.78577316866892
4250.0 72.63358635099449
4370.0 72.5484420228075
4500.0 71.55886129853867
4620.0 70.02255119490411
4750.0 69.0625433561731
4870.0 70.71896026638204
5000.0 72.81074139346082
5150.0 74.60978002385053
5300.0 75.00408281370358
5450.0 73.95596342163391
5600.0 71.72391949949548
5800.0 69.36641717321265
6000.0 70.02004990873094
6150.0 71.79254176080772
6300.0 74.13751143468374
6500.0 74.37117861909947
6700.0 71.91917171537881
6900.0 69.72718442323358
7100.0 70.13575952540413
7300.0 73.44899206165914
7500.0 75.71415271282584
7750.0 73.18841823263588
8000.0 70.0562280719084
8250.0 70.06365885808569
8500.0 74.47011130909834
8750.0 76.26321071204958
9000.0 71.97852517683889
9250.0 69.2336205747217
9500.0 71.04970393318858
9750.0 71.91069962794663
10000.0 70.37490355518433
10300.0 70.57413746620537
10600.0 72.63099684989601
10900.0 71.72070202401974
11200.0 71.79732838797226
11500.0 75.05754985567235
11800.0 71.28632331607547
12200.0 70.30858787476096
12500.0 72.53168850289931
12800.0 72.27291024188524
13200.0 69.9647086735087
13600.0 71.78651371862178
14000.0 70.08833546672751
14500.0 65.44853453794549
15000.0 71.18284348043578
15500.0 64.68792087235451
16000.0 61.96567513359396
16500.0 64.25539080628232
17000.0 56.323712460709885
17500.0 55.66963169815108
18000.0 58.1822470359875
18500.0 52.75012483005682
19000.0 53.50428725709489
19500.0 54.57395409280906
