Freq "Total Early Reflection"
22.4 39.45938361226098
23.0 38.903404376487316
23.6 38.23091501415573
24.0 37.85178100087765
25.0 37.03129671588445
25.8 36.49709310998989
26.5 36.37181445676177
27.2 36.897951536051636
28.0 38.513290469393894
29.0 40.220701576029256
30.0 43.400950091987426
30.7 46.11431843589634
31.5 47.46004340495486
32.5 49.86578710091456
33.5 52.062591076413014
34.5 53.63512502398092
35.5 56.125489048279405
36.5 57.87552449932042
37.5 59.06140733830303
38.7 60.90997613641622
40.0 62.60256893074654
41.2 64.04144887748281
42.5 64.87200763271507
43.7 66.22552454002876
45.0 67.51330268890894
46.2 68.73217821062656
47.5 70.3168810333319
48.7 71.42455896280154
50.0 72.36251134738451
51.5 73.23185871428625
53.0 74.34397833353071
54.5 75.2919385433186
56.0 75.97515089331186
58.0 76.85870136072978
60.0 77.91062542818564
61.5 78.68649784111554
63.0 79.41218167267449
65.0 80.32102677789258
67.0 81.14739728917318
69.0 81.90618096502153
71.0 82.56498606304794
73.0 83.0782863167534
75.0 83.52896286916098
77.5 83.91189489570331
80.0 84.03472466715654
82.5 83.95920648643018
85.0 83.74563940826759
87.5 83.37785850442647
90.0 82.99285962056265
92.5 82.55764909418808
95.0 82.1286285299399
97.5 81.82974402541035
100.0 81.55692063486462
103.0 81.24240232013068
106.0 80.97612536884786
109.0 80.69907680164599
112.0 80.33126337494947
115.0 79.98004242103102
118.0 79.70164082308854
122.0 79.49672347589062
125.0 79.32944047198994
128.0 79.26686964854022
132.0 79.18216583599397
136.0 79.07976168964159
140.0 78.9353779548162
145.0 78.83594424341332
150.0 78.64711834314741
155.0 78.39247079037028
160.0 78.32565287949262
165.0 78.18456609196463
170.0 78.03890181482089
175.0 78.03048989561056
180.0 78.01325100525801
185.0 77.85064613038654
190.0 77.69148718222354
195.0 77.5589739717357
200.0 77.62601515640335
206.0 77.82126340264477
212.0 77.74361767572825
218.0 77.36864165068552
224.0 77.1239318502829
230.0 77.45724925913956
236.0 78.2852822182578
240.0 79.14637448399048
250.0 79.53749338685336
258.0 79.52705563340567
265.0 79.45271688910543
272.0 79.23882652246469
280.0 79.28709702027942
290.0 79.32719198621254
300.0 79.34262505610859
307.0 79.36946804862755
315.0 79.37023120652411
325.0 79.31769438929345
335.0 79.41049040744875
345.0 79.60111327381559
355.0 79.63271369838968
365.0 79.50869900469108
375.0 79.36324676588518
387.0 79.24696268708473
400.0 79.14971942103547
412.0 78.90162390300083
425.0 78.78057627721354
437.0 78.64348803104485
450.0 78.5933553004544
462.0 78.37312994119858
475.0 78.03159475333173
487.0 77.64370553436514
500.0 77.23708640953666
515.0 77.9604922331804
530.0 78.14572006757078
545.0 76.7564659848807
560.0 75.97319735600853
580.0 77.02698048739015
600.0 78.42715604509426
615.0 78.02417096274314
630.0 77.27903470124261
650.0 76.90279156978566
670.0 76.29817707142644
690.0 75.90884735615735
710.0 76.35517521171236
730.0 77.0282408135201
750.0 77.490322039982
775.0 78.10286389062047
800.0 78.22322151137729
825.0 77.7534056168324
850.0 77.32649672345372
875.0 76.86544962390873
900.0 76.3733093124666
925.0 75.63155243532846
950.0 75.19079543086713
975.0 75.00865156103434
1000.0 74.82178677363362
1030.0 74.7318110376005
1060.0 74.52178366449019
1090.0 74.30424282550693
1120.0 74.29251369565456
1150.0 74.43300409341411
1180.0 74.70079315411259
1220.0 75.08000356812296
1250.0 75.30308593842086
1280.0 75.12822354348121
1320.0 74.49196374561367
1360.0 73.71232035796572
1400.0 72.8614960115709
1450.0 72.08058137592568
1500.0 73.01169211720996
1550.0 73.74063615539957
1600.0 73.31220269594873
1650.0 72.64926566996625
1700.0 72.49013992799476
1750.0 72.09372496561792
1800.0 72.40043069770583
1850.0 72.8189079833295
1900.0 73.16537577731177
1950.0 73.70055111299519
2000.0 73.44639503319439
2060.0 72.51676649684165
2120.0 72.05083013975936
2180.0 72.26842938670693
2240.0 73.02773449363514
2300.0 73.64541676420826
2360.0 74.86506461856186
2400.0 75.83846192278722
2500.0 75.3188948937206
2580.0 74.76882402000885
2650.0 74.13903044626842
2720.0 74.35523263700155
2800.0 74.63999841086843
2900.0 75.0957826432456
3000.0 75.4398236891803
3070.0 75.46999267705323
3150.0 75.15797078040978
3250.0 75.00478981638034
3350.0 74.18762316705694
3450.0 73.84637308951416
3550.0 73.14939714202924
3650.0 72.31557133312766
3750.0 72.57564117849478
3870.0 72.99734216349663
4000.0 73.69611568820471
4120.0 73.76563641496816
4250.0 73.5646739276639
4370.0 73.82581686770584
4500.0 73.7163847143938
4620.0 73.22982876716416
4750.0 72.84664528446584
4870.0 73.82433037248552
5000.0 74.94108851128698
5150.0 76.02200733727227
5300.0 76.78732549614232
5450.0 76.5231667798926
5600.0 74.9542378185513
5800.0 72.73730939104986
6000.0 72.6334374961008
6150.0 73.57928599238517
6300.0 75.3196666807936
6500.0 75.77063568639961
6700.0 73.90363964180406
6900.0 72.29228688891578
7100.0 72.18063418361066
7300.0 74.93862897649818
7500.0 77.74721257566424
7750.0 75.55126661995334
8000.0 72.07386199847309
8250.0 71.35244081800677
8500.0 75.38043134581363
8750.0 78.03261764743542
9000.0 75.05622182214736
9250.0 71.60902532564391
9500.0 72.02809393438966
9750.0 74.09870809618126
10000.0 73.70848973672081
10300.0 72.31384887944476
10600.0 73.35185424814254
10900.0 74.88060014598912
11200.0 75.43624795553865
11500.0 75.49823395294158
11800.0 73.04685621675539
12200.0 73.87502061211464
12500.0 75.22007047593968
12800.0 74.91506742867978
13200.0 73.73165976191606
13600.0 74.48866361383274
14000.0 73.72352429040325
14500.0 70.68320269757632
15000.0 75.99670370055874
15500.0 71.06512311563115
16000.0 67.9362290532438
16500.0 70.44168016855596
17000.0 64.99939236476268
17500.0 63.783664444389046
18000.0 65.79028174606569
18500.0 61.17995220579573
19000.0 62.26414592809516
19500.0 64.18015694321221
