Freq,On Axis,Listening Window,Sound Power,Early Reflections,Early Reflections DI,Sound Power DI,DI offset
22.4,1.445569620253167,3.746280290970077,2.4800055231772262,3.4835966525476465,30.26268363842243,31.26627476779285,30
23.0,1.5455696202531612,4.664304894419558,3.342131234452893,4.359887753769584,30.304417140649974,31.322173659966666,30
23.6,1.645569620253184,5.467156127764383,4.112083520597082,5.124130804351182,30.3430253234132,31.3550726071673,30
24.0,1.7455696202531499,6.151833446520271,4.744497736210036,5.768432330655116,30.383401115865155,31.407335710310235,30
25.0,1.7455696202531499,6.620795494172853,5.210621896427369,6.234905842277527,30.385889651895326,31.410173597745484,30
25.8,1.645569620253184,6.915845136257133,5.541075034192943,6.563259161921991,30.352585974335142,31.37477010206419,30
26.5,1.445569620253167,7.092514142333414,5.804092832837682,6.8015837551808715,30.290930387152542,31.28842130949573,30
27.2,1.2455696202531499,7.221104675442064,6.074807224034231,7.040820003062578,30.180284672379486,31.146297451407833,30
28.0,0.7455696202531499,7.363107205738402,6.3552024929866775,7.2991874847360805,30.06391972100232,31.007904712751724,30
29.0,0.14556962025318398,7.596720705625046,6.685413623643939,7.600228678596437,29.99649202702861,30.911307081981107,30
30.0,-0.9544303797468388,7.932720514430997,7.099233984248883,7.98683847104823,29.945882043382767,30.833486530182114,30
30.7,-2.854430379746816,8.203569354361093,7.6164453114337505,8.43096423728997,29.772605117071123,30.587124042927343,30
31.5,-2.854430379746816,7.675681202531166,8.184877349272199,8.731623090519804,28.944058112011362,29.490803853258967,30
32.5,0.04556962025316125,6.923784707158632,8.895462754584685,9.131689158131621,27.79209554902701,28.028321952573947,30
33.5,2.145569620253184,6.292884293120977,9.781769926110144,9.733639497365346,26.55924479575563,26.511114367010833,30
34.5,3.8455696202531726,5.90241131970231,10.92694217829657,10.614939831975278,25.287471487727032,24.97546914140574,30
35.5,5.345569620253173,5.995242018120678,12.34915335025994,11.816611363464318,24.17863065465636,23.646088667860738,30
36.5,6.74556962025315,6.921709636464243,14.162189222196957,13.470572500287375,23.451137136176868,22.759520414267286,30
37.5,8.145569620253184,9.196492945076812,16.499177698884722,15.711934709508341,23.48455823556847,22.69731524619209,30
38.7,9.545569620253161,13.25580592818261,19.62837236693062,18.823532708611623,24.432273219570988,23.62743356125199,30
40.0,11.145569620253184,19.005638193230652,24.10934092483413,23.36045050542876,25.645187687801894,24.896297268396523,30
41.2,12.845569620253173,24.6055667684941,29.68513440415532,28.92746339106327,25.67810337743083,24.92043236433878,30
42.5,14.845569620253173,23.278968025273713,26.878062567590405,26.24337948976813,27.035588535505582,26.400905457683308,30
43.7,16.645569620253184,21.616668902455586,25.06473810665412,24.206418274950437,27.41025062750515,26.551930795801468,30
45.0,16.945569620253167,20.538524288605288,23.7888189813967,23.06007326571367,27.47845102289162,26.749705307208586,30
46.2,16.24556962025315,19.37027235795196,21.64467603001833,21.30880408359326,28.061468274358703,27.72559632793363,30
47.5,15.845569620253173,18.658076685504113,20.08763009244916,20.07936881378052,28.578707871723594,28.570446593054953,30
48.7,15.74556962025315,18.329369687009176,19.0981929897917,19.344229756130915,28.985139930878262,29.231176697217478,30
50.0,15.74556962025315,18.163176913621783,18.493491208331534,18.92811517850126,29.235061735120524,29.66968570529025,30
51.5,16.04556962025316,18.154701674750555,18.16905761658387,18.737725219260852,29.416976455489703,29.985644058166685,30
53.0,16.445569620253167,18.300925505168635,18.062194433954517,18.745882414506497,29.55504309066214,30.23873107121412,30
54.5,16.945569620253167,18.530166441745592,18.11850643481324,18.87908197982847,29.651084461917122,30.41166000693235,30
56.0,17.54556962025316,18.820328472731603,18.314155149781215,19.09945392874303,29.72087454398857,30.50617332295039,30
58.0,18.24556962025315,19.214328747509256,18.657372547209235,19.455992060016683,29.758336687492573,30.55695620030002,30
60.0,18.945569620253167,19.701240903289715,19.111290704519405,19.880339024057662,29.820901879232053,30.58995019877031,30
61.5,19.74556962025315,20.251270234866723,19.67531119490127,20.403083612827885,29.84818662203884,30.575959039965454,30
63.0,20.54556962025316,20.854407506131707,20.345016172388,21.003183149559874,29.851224356571834,30.509391333743707,30
65.0,21.345569620253173,21.543017145119904,21.099971561489753,21.672644633001198,29.870372512118706,30.443045583630152,30
67.0,22.145569620253184,22.31875025027017,21.918423680495977,22.404440620237608,29.914309630032562,30.400326569774194,30
69.0,23.04556962025316,23.10721328007037,22.81026375534256,23.198356048026227,29.90885723204414,30.296949524727808,30
71.0,23.845569620253173,23.93294763991588,23.733131043547615,24.017808311431736,29.915139328484145,30.199816596368265,30
73.0,24.74556962025315,24.808424193397855,24.660121795057933,24.866389592186266,29.94203460121159,30.148302398339922,30
75.0,25.54556962025316,25.695980228144265,25.575411629632697,25.72739118013166,29.968589048012603,30.120568598511568,30
77.5,26.445569620253167,26.55889925155799,26.45093179907215,26.562786676380597,29.996112575177392,30.107967452485838,30
80.0,27.345569620253173,27.44426941587352,27.261628509013917,27.36265618150918,30.08161323436434,30.182640906859604,30
82.5,28.24556962025315,28.28073838802254,27.98802715354836,28.101849832560674,30.178888555461867,30.292711234474183,30
85.0,29.04556962025316,29.075122625331744,28.678183316621414,28.8215876664203,30.253534958911445,30.39693930871033,30
87.5,29.945569620253167,29.838121004018916,29.35109228894393,29.525666830007992,30.312454174010924,30.487028715074985,30
90.0,30.74556962025315,30.59997006291499,30.046013579896595,30.23990240527695,30.36006765763804,30.553956483018396,30
92.5,31.54556962025316,31.375330239165464,30.788863473894935,30.980077424903953,30.39525281426151,30.58646676527053,30
95.0,32.34556962025317,32.205766638278476,31.6114330434485,31.788963838970403,30.416802799308073,30.594333594829976,30
97.5,33.34556962025317,33.09467319823531,32.45806318968434,32.64968507593369,30.444988122301623,30.636610008550974,30
100.0,34.34556962025317,34.103981631930395,33.35115318802434,33.581834546952564,30.52214708497783,30.752828443906054,30
103.0,35.44556962025317,35.19237139935831,34.23967522628428,34.56044980990035,30.63192158945796,30.95269617307403,30
106.0,36.645569620253184,36.424580024289526,35.146907978803085,35.64121639818893,30.783363626100595,31.27767204548644,30
109.0,37.94556962025317,37.713780468057195,36.09322111048863,36.80567098963027,30.908109478426923,31.620559357568567,30
112.0,39.24556962025315,39.11351672291468,37.172852879561106,38.113280486958615,31.000236235956066,31.940663843353576,30
115.0,40.645569620253184,40.624311081680304,38.48397772218303,39.579011187064026,31.045299894616278,32.140333359497276,30
118.0,42.145569620253184,42.124311081680304,39.99718037365895,41.12941024170212,30.994900839978186,32.127130708021355,30
122.0,43.54556962025316,43.62405981738226,41.69688786623851,42.760748342193324,30.863311475188937,31.927171951143748,30
125.0,45.04556962025316,45.12354553806696,43.41433410236735,44.37737792627314,30.746167611793823,31.709211435699615,30
128.0,46.54556962025316,46.62354553806696,45.12036995451129,45.95921075727432,30.664334780792643,31.503175583555674,30
132.0,47.94556962025317,48.04582546680902,46.753962023993864,47.468324992015226,30.577500474793794,31.291863442815156,30
136.0,49.34556962025317,49.445825466809026,48.36473906117098,48.93259050693911,30.51323495986992,31.081086405638047,30
140.0,50.74556962025315,50.77915944713314,49.982224909368,50.372014414541695,30.407145032591444,30.79693453776514,30
145.0,52.145569620253156,52.0685007227338,51.60003341555583,51.77576806269096,30.292732660042844,30.468467307177974,30
150.0,53.44556962025317,53.30243118578359,53.1505554956739,53.09098348284596,30.211447702937633,30.15187569010969,30
155.0,54.745569620253164,54.484754707065775,54.48960941627357,54.28980741487331,30.194947292192467,29.99514529079221,30
160.0,55.94556962025317,55.598122951191584,55.358993404070716,55.20913615438664,30.388986796804943,30.239129547120868,30
165.0,57.145569620253156,56.73685047602399,55.670597009934895,55.90862365995207,30.82822681607192,31.066253466089094,30
170.0,58.145569620253184,57.84439446164714,55.77359850340004,56.64819285241988,31.19620160922726,32.0707959582471,30
175.0,59.14556962025317,58.90647132986196,56.09810728043226,57.52958824144564,31.37688308841632,32.8083640494297,30
180.0,59.94556962025317,59.8376080433718,56.778531052858966,58.4324676546656,31.4051403887062,33.059076990512835,30
185.0,60.74556962025315,60.60394634562299,57.630697533933215,59.240635853081486,31.3633104925415,32.97324881168977,30
190.0,61.34556962025317,61.18119030433887,58.470817440496575,59.898291174111634,31.282899130227236,32.710372863842295,30
195.0,61.84556962025317,61.68319738039088,59.23657768625502,60.45357646471939,31.22962091567149,32.44661969413586,30
200.0,62.44556962025317,62.118331305036364,59.95764652017911,60.95674429250235,31.161587012534014,32.16068478485725,30
206.0,63.04556962025316,62.656424941154,60.642161915308236,61.499236082602664,31.157188858551336,32.014263025845764,30
212.0,63.745569620253164,63.35642494115399,61.20884383497524,62.1723795986798,31.184045342474192,32.14758110617875,30
218.0,64.54556962025316,64.37453177720242,61.507543804746035,63.04048250087436,31.33404927632806,32.866987972456386,30
224.0,65.44556962025317,65.37177977408574,61.829535219151495,63.92129190120242,31.450487872883315,33.54224455493424,30
230.0,66.34556962025317,66.2488541142787,62.717430420576335,64.80955357679636,31.43930053748234,33.531423693702365,30
236.0,67.14556962025316,66.97453177720242,63.90831491187069,65.5959925676483,31.37853920955412,33.066216865331725,30
240.0,67.94556962025317,67.53893161291256,64.93331224134965,66.14214228025995,31.396789332652617,32.60561937156291,30
250.0,68.64556962025317,68.04363196381702,65.28067645167576,66.39123602563403,31.65239593818299,32.76295551214126,30
258.0,69.14556962025317,68.8054974018163,65.08102793652304,66.95923092236686,31.84626647944944,33.724469465293254,30
265.0,69.54556962025316,69.47177977408575,65.40518859474604,67.78635043422211,31.68542933986363,34.06659117933971,30
272.0,69.64556962025316,69.61476448808803,65.86181686546902,68.09055421751195,31.524210270576077,33.752947622619004,30
280.0,69.64556962025316,69.41779821369266,65.85874029679773,67.84348879361809,31.57430942007457,33.55905791689493,30
290.0,69.64556962025316,69.19597523653903,65.49233986835445,67.34797019329326,31.848005043245763,33.70363536818458,30
300.0,69.94556962025317,69.34363196381703,65.25753020775099,67.21406732159966,32.129564642217375,34.08610175606604,30
307.0,70.44556962025317,69.94016135475769,65.34939717464825,67.68704999029892,32.253111364458775,34.590764180109446,30
315.0,71.14556962025317,70.80549740181631,65.90201145090847,68.63080944713482,32.17468795468149,34.903485950907836,30
325.0,71.74556962025318,71.42476557482952,66.66187093394979,69.38819686983399,32.03656870499553,34.762894640879736,30
335.0,71.94556962025317,71.48237496661838,66.78245334479578,69.34492209319644,32.137452873421935,34.6999216218226,30
345.0,71.84556962025317,71.30060798039221,66.37862506631073,68.95561916325545,32.344988817136766,34.92198291408148,30
355.0,71.44556962025317,71.04611271252674,66.1133148897938,68.80749485855331,32.23861785397342,34.93279782273294,30
365.0,71.04556962025316,70.74072032614787,66.01737895303722,68.62276941855356,32.117950907594306,34.72334137311064,30
375.0,70.74556962025315,70.28237496661838,65.63989762526299,68.10816989132475,32.17420507529363,34.64247734135539,30
387.0,70.74556962025315,70.14986154092193,65.12394495532925,67.71332459560693,32.436536945315,35.02591658559268,30
400.0,70.94556962025317,70.36160377270235,64.84389159106735,67.71825762914207,32.64334614356028,35.517712181635005,30
412.0,71.04556962025316,70.49542592033401,64.83423216329271,67.845438856803,32.649987063531015,35.6611937570413,30
425.0,70.94556962025317,70.26963333122389,64.73316009524888,67.58937488167832,32.68025844954556,35.53647323597501,30
437.0,70.74556962025315,70.03964782759462,64.19637918343216,67.14432641670172,32.895321410892905,35.843268644162464,30
450.0,70.94556962025317,70.21489491448263,63.68552471366044,67.14252288379572,33.07237203068691,36.529370200822186,30
462.0,71.34556962025317,70.67718081642865,64.04219017833155,67.6744402418298,33.002740574598846,36.63499063809709,30
475.0,72.04556962025316,71.44418312065275,64.84491155117674,68.46697024471783,32.977212875934924,36.59927156947602,30
487.0,72.54556962025316,71.99542592033399,65.51385425032011,69.1022690440237,32.893156876310286,36.48157167001388,30
500.0,72.74556962025316,72.21304285346432,65.78520828010015,69.36747285156677,32.84557000189754,36.427834573364166,30
515.0,72.84556962025317,72.31972534062334,65.74855110133427,69.34791826363562,32.971807076987716,36.571174239289064,30
530.0,72.94556962025317,72.23164537527455,65.29325552897619,69.06781631157742,33.163829063697136,36.938389846298364,30
545.0,72.84556962025317,72.18912094001666,65.15338752950159,69.02446418058751,33.16465675942915,37.03573341051508,30
560.0,72.54556962025316,71.79846308637212,64.85455341638932,68.62294090487876,33.17552218149336,36.9439096699828,30
580.0,72.14556962025316,71.27899399724868,64.16856807764624,67.8577327678039,33.42126122944478,37.110425919602434,30
600.0,72.34556962025317,71.34241078778038,63.70586269980035,67.67614480474921,33.66626598303117,37.63654808798003,30
615.0,72.84556962025317,71.78221775813225,63.87804862675219,68.08921132036741,33.693006437764836,37.90416913138006,30
630.0,73.14556962025318,72.26423038555458,64.39888891573801,68.63082161084235,33.63340877471224,37.86534146981657,30
650.0,72.94556962025317,71.92886638025962,64.11647132538971,68.32498552629168,33.60388085396794,37.81239505486991,30
670.0,72.84556962025317,71.91496261549568,64.16077681382941,68.32842300158079,33.586539613914894,37.75418580166627,30
690.0,73.54556962025316,72.53431145897395,64.88685508298622,68.96127972642955,33.57303173254439,37.64745637598773,30
710.0,74.04556962025316,73.10098102194532,65.23487522028731,69.42897818636371,33.67200283558161,37.86610580165801,30
730.0,74.04556962025316,73.00737579031258,64.80701609180953,69.15360137434982,33.85377441596276,38.20035969850305,30
750.0,74.24556962025318,73.18123110637546,65.03079644801116,69.32381327667672,33.85741782969875,38.150434658364304,30
775.0,74.74556962025316,73.59556895023567,65.26874975806258,69.63855746516509,33.95701148507058,38.32681919217309,30
800.0,74.74556962025316,73.62254546122897,65.25243953170907,69.63965357230398,33.98289188892498,38.370105929519895,30
825.0,74.64556962025316,73.45710635557084,64.81673741477346,69.31142854996729,34.145677805603555,38.64036894079739,30
850.0,74.94556962025317,73.80893886012765,65.3458123055247,69.74520906174966,34.06372979837799,38.46312655460295,30
875.0,75.04556962025316,73.76560710141365,65.13968625012143,69.56939501573521,34.19621208567844,38.62592085129222,30
900.0,74.94556962025317,73.64840883200185,65.18961226123686,69.50699627622834,34.14141255577351,38.45879657076499,30
925.0,74.54556962025316,72.94855038990147,63.881202692491456,68.47210522216236,34.476445167739115,39.067347697410014,30
950.0,73.84556962025317,72.17316986566746,63.08688904254403,67.66133003391552,34.51183983175194,39.08628082312343,30
975.0,73.74556962025316,72.30013234852308,63.096176862671584,67.79456506161237,34.505567286910704,39.203955485851495,30
1000.0,73.44556962025317,72.16360153404895,63.26776234805547,67.81456259919258,34.34903893485637,38.89583918599348,30
1030.0,74.04556962025316,72.65134802417107,63.668920418367335,68.23999394708544,34.41135407708563,38.982427605803736,30
1060.0,75.24556962025316,73.7854754036999,64.76906120649069,69.34460258311105,34.44087282058885,39.016414197209215,30
1090.0,76.64556962025317,75.01131010835468,65.91239798176747,70.49893201893498,34.5123780894197,39.09891212658721,30
1120.0,76.64556962025317,74.85374626691018,65.55222174396326,70.26866604631054,34.585080220599636,39.30152452294692,30
1150.0,75.34556962025317,73.64694143781483,64.43982196799723,69.11958017807339,34.52736125974144,39.2071194698176,30
1180.0,74.84556962025317,72.99498650774072,63.35841032497126,68.2392649669062,34.755721540834514,39.63657618276946,30
1220.0,73.74556962025316,72.0241708594182,62.60461992056237,67.42230010181977,34.601870757598434,39.419550938855835,30
1250.0,73.34556962025317,71.56885380938219,62.16514468338323,66.96305204190062,34.605801767481566,39.40370912599896,30
1280.0,73.04556962025316,71.21428571240378,61.75757367255605,66.56847612443181,34.64580958797197,39.45671203984773,30
1320.0,72.84556962025317,71.09122135776212,61.66651915779741,66.48593937274441,34.60528198501771,39.42470219996471,30
1360.0,71.74556962025318,69.97813387505997,60.55265189041478,65.32396081196735,34.654173063092614,39.42548198464519,30
1400.0,71.24556962025316,69.4688538093822,60.14467135349379,64.79750220394214,34.67135160544005,39.324182455888405,30
1450.0,70.84556962025317,69.01307091525054,59.75197805907018,64.45033714587545,34.562733769375086,39.261092856180355,30
1500.0,70.54556962025316,68.63079646909499,59.390647715555076,64.07431482639865,34.55648164269634,39.24014875353991,30
1550.0,70.44556962025317,68.74259863192661,59.56188656371957,64.21849476177417,34.524103870152445,39.18071206820704,30
1600.0,70.74556962025315,69.17177356394899,59.94796565130497,64.66778217009882,34.50399139385017,39.22380791264402,30
1650.0,71.04556962025316,69.33448781233741,59.75392732562594,64.61325175559114,34.72123605674628,39.58056048671148,30
1700.0,71.64556962025317,69.7217371249527,59.963601753080326,64.91798392012862,34.803753204824076,39.75813537187237,30
1750.0,72.34556962025317,70.17433276622997,60.25265712980104,65.26504859395338,34.909284172276585,39.92167563642893,30
1800.0,73.24556962025315,71.07194678799408,61.20044547432602,66.21751413934808,34.854432648646,39.87150131366806,30
1850.0,74.04556962025316,71.86975108291533,61.99647300003299,66.98402123324209,34.88572984967324,39.87327808288234,30
1900.0,74.94556962025317,72.79247930191897,62.964878888587364,67.89536165986127,34.89711764205771,39.82760041333161,30
1950.0,75.14556962025317,73.13850266157743,63.635615026696684,68.44821861277559,34.69028404880184,39.50288763488075,30
2000.0,74.94556962025317,72.86911272316219,63.66961601377868,68.36599492332859,34.5031177998336,39.19949670938351,30
2060.0,74.74556962025316,72.9882973856478,64.13688946014898,68.72471186855778,34.26358551709002,38.85140792549882,30
2120.0,74.24556962025318,72.8560833697692,63.94591300174548,68.59093186702749,34.2651515027417,38.910170368023714,30
2180.0,74.04556962025316,72.38821495677642,63.25729115746505,67.94099914541411,34.44721581136231,39.130923799311375,30
2240.0,74.34556962025317,72.14189567266897,62.51723195510655,67.32982999120047,34.812065681468496,39.62466371756241,30
2300.0,74.54556962025316,72.33080441144493,62.495098456912004,67.36505498916185,34.96574942228308,39.835705954532926,30
2360.0,74.64556962025316,72.18600626856578,61.86885818438449,66.9191808568471,35.26682541171867,40.317148084181284,30
2400.0,74.34556962025317,71.78120016898009,61.524459011649654,66.66526458405144,35.11593558492865,40.25674115733044,30
2500.0,74.14556962025317,71.24954722803209,60.95360531075056,66.17357066254496,35.075976565487125,40.295941917281525,30
2580.0,73.94556962025317,71.21178882905518,61.14012298244029,66.31839285094598,34.8933959781092,40.07166584661489,30
2650.0,73.44556962025317,70.88806601880846,60.797024094607536,65.97227957035904,34.915786448449424,40.09104192420092,30
2720.0,72.94556962025317,70.72969435384653,61.05259542917166,66.13116439502365,34.59852995882288,39.677098924674866,30
