Freq,On Axis,Listening Window,Sound Power,Early Reflections,Early Reflections DI,Sound Power DI,DI offset
20.0,24.94226877500239,24.438083225836465,25.611782111853444,24.634054541238925,19.80402868459754,18.82630111398302,20
20.2909,25.071204887928957,24.56884990873283,25.73188121588379,24.760692342860978,19.808157565871852,18.83696869284904,20
20.586,25.257143072272356,24.756009137034425,25.90826163476848,24.943765056918835,19.81224408011559,18.847747502265946,20
20.8855,25.70859314160012,25.20905030648143,26.350503802399317,25.392750795624636,19.816299510856794,18.858546504082113,20
21.1893,26.653535123692762,26.155534762735527,27.28673671396558,26.335319388286223,19.820215374449305,18.868798048769946,20
21.4975,27.430988357890357,26.935193950791273,28.05558895052178,27.11104268423955,19.824151266551723,18.879605000269493,20
21.8102,27.821934137918305,27.32736939232376,28.43755453569287,27.499540446261335,19.827828946062425,18.889814856630892,20
22.1274,28.03639053713573,27.543647142689878,28.643547792563567,27.71207786198056,19.831569280709317,18.90009935012631,20
22.4492,28.50884837504529,28.017708413762364,29.10718916563809,28.182369720166918,19.835338693595446,18.910519248124274,20
22.7758,29.498799679649835,29.009339799069494,30.088302228676014,29.17000005981572,19.839339739253774,18.92103757039348,20
23.1071,30.62526068277927,30.137185966920782,31.20574853207239,30.293995716351674,19.84319025056911,18.93143743484839,20
23.4432,31.38172312468697,30.89548254496742,31.953849045768266,31.048622917952713,19.84685962701471,18.941633499199156,20
23.7841,31.777187005397764,31.29294413011843,32.341067148811305,31.44221497887989,19.85072915123854,18.951876981307123,20
24.1301,32.16914556150448,31.68636812064034,32.72439238789201,31.832099486561503,19.854268634078835,18.96197573274833,20
24.4811,32.661612607665035,32.180774218816794,33.208939764293746,32.3229842542205,19.857789964596293,18.971834454523048,20
24.8372,33.136574962376386,32.65776563879709,33.67585163258474,32.79633565506407,19.861429983733018,18.98191400621235,20
25.1984,33.60353938910552,33.12602818466891,34.134084900947386,33.26101819041756,19.865009994251352,18.991943283721525,20
25.5649,34.25801132752909,33.78239744246352,34.7808779731223,33.91417384507275,19.868223597390767,19.00151946934122,20
25.9368,35.14397955304429,34.67022667195232,35.658554276388315,34.798423277056344,19.871803394895977,19.011672395564005,20
26.3141,36.00845465716668,35.53567469790349,36.51436830514723,35.66053166400124,19.875143033902248,19.02130639275626,20
26.6968,36.660426681569845,36.189784085346076,37.158883942589256,36.311377267685714,19.878406817660363,19.03090014275682,20
27.0851,37.23390495147092,36.76489754185033,37.724304236596595,36.883023758335355,19.881873783514976,19.040593305253736,20
27.4791,37.910384660385915,37.44323492908134,38.39285040365971,37.55793501373398,19.88529991534736,19.050384525421634,20
27.8788,38.54086580832836,38.07535646597495,39.015659715799984,38.18696785154259,19.88838861443236,19.059696750174965,20
28.2843,39.01684508539296,38.553047041238216,39.483603472101976,38.661177866564685,19.89186917467353,19.06944356913624,20
28.6957,39.51882643469472,39.05677909782878,39.97796731271242,39.161792674526566,19.894986423302214,19.078811785116358,20
29.1131,40.15331247541803,39.69313486762607,40.60537557155811,39.79541435244201,19.897720515184062,19.087759296067958,20
29.5365,40.81229762386613,40.353950315603754,41.25660408700185,40.452784402986936,19.90116591261682,19.097346228601907,20
29.9661,41.41778683056586,40.96163355985772,41.854813294782645,41.05727300566244,19.90436055419528,19.106820265075072,20
30.402,41.976277476357836,41.52128093431591,42.405558604144545,41.61416811235614,19.90711282195977,19.115722330171366,20
30.8442,42.50826815091861,42.0554302959672,42.93045183271556,42.14511406521592,19.910316230751278,19.124978463251637,20
31.2929,43.06876196273399,42.61742498394787,43.48364546979687,42.7044674100581,19.91295757388977,19.133779514151,20
31.748,43.66425721365806,43.21430556231246,44.0715597420741,43.298592227853135,19.915713334459326,19.14274582023836,20
32.2098,44.21425341439485,43.766290327889834,44.614309296447175,43.8473237629247,19.91896656496513,19.15198103144266,20
32.6783,44.65625168745629,44.20957876163368,45.04888223112934,44.28794659310964,19.92163216852404,19.16069653050434,20
33.1536,45.163751831367875,44.719366255502194,45.54980165788214,44.79489933252887,19.924466922973323,19.169564597620052,20
33.6359,45.77725341439485,45.334140860984434,46.1558422920005,45.4070977289761,19.927043132008336,19.178298568983934,20
34.1251,46.32625721365807,45.88488232652119,46.697813608230064,45.95514963378213,19.929732692739066,19.18706871829113,20
34.6215,46.83576196273398,46.39671900987685,47.20066880314613,46.46395376759847,19.93276524227838,19.196050206730717,20
35.125,47.38076956124824,46.94346836641405,47.738968034040894,47.008126627283815,19.935341739130237,19.204500332373158,20
35.6359,47.940277476357835,47.50481424294786,48.29183660779796,47.566879548039964,19.937934694907895,19.212977635149898,20
36.1543,48.49478683056586,48.06085143519175,48.839488633249516,48.12050206202548,19.94034937316627,19.221362801942234,20
36.6802,49.02279995521663,48.59087067041618,49.3611742604521,48.6481424871464,19.94272818326978,19.229696409964077,20
37.2137,49.55781515214764,49.12756998398403,49.88934357929884,49.18218033892762,19.94538964505641,19.238226404685193,20
37.755,50.077329399238295,49.64877523191075,50.402452284136444,49.701085477789945,19.947689754120802,19.246322947774303,20
38.3041,50.60084508539295,50.17372679031641,50.91898264356014,50.22365966720041,19.950067123116,19.254744146756266,20
38.8613,51.125865808328356,50.70038525815387,51.437347841331885,50.74774324365758,19.95264201449629,19.263037416821987,20
39.4265,51.65188860348114,51.22849991170753,51.957469603250075,51.27367979007818,19.954820121629353,19.271030308457455,20
40.0,52.16490495147093,51.74341845565475,52.46422932436724,51.786171516754976,19.95724693889977,19.27918913128751,20
40.5818,52.65943577653016,52.23976732574553,52.952487920892835,52.2802414798426,19.95952584590293,19.287279404852697,20
41.1721,53.14745465716666,52.72943614113993,53.4342869661655,52.76802586527151,19.961410275868417,19.295149174974426,20
41.771,53.5854847048961,53.16926870350517,53.866183802427884,53.20551943904033,19.963749264464838,19.303084901077284,20
42.3785,54.03251682472947,53.61840222887575,54.30741724419936,53.6525922685512,19.96580996032455,19.310984984676395,20
42.9949,54.45604517409241,54.043490425868356,54.72469461902075,54.075538222787,19.967952203081353,19.318795806847604,20
43.6203,54.81408109270197,54.403230648071144,55.076634086752435,54.43309043173309,19.970140216338052,19.32659656131871,20
44.2548,55.16861260766504,54.76002295671904,55.42595505152022,54.78808946401634,19.971933492702703,19.334067905198822,20
44.8985,55.64114556150447,55.23395147635735,55.892050397653364,55.259992329406856,19.97395914695049,19.341901078703984,20
45.5515,56.077187005397775,55.67165739905465,56.32239044444,55.69571811204062,19.97593928701403,19.34926695461465,20
46.2141,56.49772312468696,56.09413702047442,56.73719579691195,56.11624201272616,19.97789500774826,19.356941223562472,20
46.8863,56.88676836705194,56.4851160266288,57.12076328752107,56.50553067332439,19.979585353304415,19.36435273910773,20
47.5683,57.32630765167508,56.926385172868976,57.55462407649861,56.9449140870654,19.981471085803577,19.371761096370363,20
48.2602,57.78035669236667,57.38247643817023,58.00328554437395,57.399130164642855,19.983346273527374,19.379190893796277,20
48.9621,58.20189914219776,57.80575348549456,58.419510232679556,57.820815489761884,19.98493799573268,19.386243252815007,20
49.6743,58.66044303071534,58.265558640937286,58.872280112155266,58.2791631128394,19.986395528097887,19.39327852878202,20
50.3968,59.06749759596161,58.67466142920189,59.273846632736664,58.686160323974974,19.988501105226916,19.400814796465227,20
51.1299,59.485044649485815,59.09416837686399,59.68649844061596,59.10451283005675,19.989655546807242,19.407669936248027,20
51.8736,59.89610301265097,59.50658543867179,60.091996341510125,59.51539141556361,19.99119402310818,19.414589097161667,20
52.6281,60.29465323103088,59.907320044520176,60.48533355384944,59.914218948404084,19.993101096116092,19.421986490670733,20
53.3936,60.69171539192776,60.30589430014035,60.87744276235071,60.31160733142403,19.994286968716324,19.42845153778964,20
54.1702,61.068268775002394,60.68492631503,61.24940584095485,60.689062697634284,19.995863617395713,19.435520474075147,20
54.9581,61.45233473343171,61.07072572028909,61.6283915653877,61.07336553367337,19.997360186615722,19.44233415490139,20
55.7575,61.82389128102989,61.444038671381435,61.995029141303405,61.44542323001966,19.99861544136178,19.44900953007803,20
56.5685,62.19244926698855,61.814389096278745,62.35864546420379,61.814488572100544,19.9999005241782,19.455743632074956,20
57.3914,62.54652074872061,62.17005328085445,62.707633015970345,62.16867919149267,20.001374089361775,19.462420264884102,20
58.2261,62.897594301568205,62.52337805046618,63.054370032832196,62.52081319189823,20.00256485856795,19.469008017633982,20
59.073,63.24415717765949,62.87192412294132,63.39641848413348,62.868186970405276,20.003737152536047,19.475505638807846,20
59.9323,63.57323452736864,63.20238107529431,63.72070463441017,63.1976650230215,20.004716052272812,19.481676440884144,20
60.804,63.90928724435251,63.54048597265688,64.05211705977598,63.53432580641376,20.00616016624312,19.4883689128809,20
61.6884,64.24388171373192,63.87698286003956,64.38230096865325,63.86966059860521,20.007322261434354,19.494681891386307,20
62.5857,64.58145091751008,64.21632735645298,64.71530825861456,64.20797518857317,20.008352167879806,19.501019097838423,20
63.496,64.92602155927804,64.5630011568855,65.05587219199076,64.55386439823613,20.009136758649376,19.507128964894747,20
64.4196,65.25259363898907,64.89102846669118,65.3777588064498,64.88071898936023,20.01030947733095,19.513269660241377,20
65.3566,65.56968203265984,65.20972625510046,65.69024918438521,65.19854871448463,20.011177540615833,19.519477070715254,20
66.3073,65.88377249681552,65.52590079190338,66.00043823163733,65.51390091323191,20.011999878671475,19.52546256026605,20
67.2717,66.1803494651702,65.82488683552674,66.2933954569655,65.8118901580795,20.012996677447234,19.531491378561242,20
68.2502,66.47692787125078,66.1227055271045,66.58524104026323,66.10895726593394,20.013748261170562,19.537464486841273,20
69.2429,66.76602385627254,66.41407821688497,66.87081075726486,66.39958815393149,20.014490062953485,19.54326745962011,20
70.2501,67.06312191145332,66.71315872209311,67.16388189500685,66.69779697956032,20.01536174253279,19.54927682708626,20
71.2719,67.35070520540806,67.00202428097087,67.44713970162368,66.98606747853323,20.015956802437643,19.55488457934719,20
72.3086,67.65128993685323,67.3049235444762,67.74443831380523,67.28833129943922,20.016592245036975,19.560485230670963,20
73.3603,67.92539351199571,67.58065291049606,68.01480657905871,67.56370659749064,20.01694631300542,19.565846331437342,20
74.4274,68.17898140572099,67.83604535358876,68.26435168567076,67.81836550575908,20.017679847829683,19.571693667917998,20
75.5099,68.41608877543213,68.07514385045668,68.49788944018769,68.05701959710721,20.01812425334947,19.577254410268992,20
76.6083,68.62367983115595,68.28476026184717,68.70202037212664,68.26596988001778,20.01879038182939,19.58273988972053,20
77.7226,68.8247909950918,68.48761734479457,68.89968497395799,68.46847156188579,20.01914578290878,19.587932370836583,20
78.8531,69.05038521252247,68.71469708267712,69.12126499850507,68.69514114144019,20.01955594123693,19.59343208417205,20
80.0,69.29298086699347,68.95932535543875,69.36054416852203,68.9393381889017,20.01998716653705,19.598781186916725,20
81.1636,69.5340975491627,69.20255278280442,69.59849134436114,69.18213618365813,20.020416599146287,19.60406143844328,20
82.3442,69.76469636489824,69.43497275116957,69.82598267496518,69.4144719798548,20.020500771314772,19.608990076204392,20
83.5419,69.98829661746821,69.66083019304847,70.04647538671928,69.64003178091295,20.02079841213552,19.61435480632919,20
84.757,70.18541881708015,69.85938275606017,70.24032918786114,69.83861370071642,20.02076905534375,19.619053568199035,20
85.9899,70.35354308552164,70.029814681204,70.40545013252782,70.00845901838426,20.021355662819744,19.624364548676184,20
87.2406,70.50914822282681,70.187276732667,70.55792875027801,70.16580037580908,20.021476356857917,19.629347982388992,20
88.5096,70.6662762838136,70.34603102507123,70.71201123584129,70.32469584678458,20.021335178286648,19.63401978922994,20
89.797,70.81988458140363,70.50150057783455,70.86261646441227,70.48009561878627,20.021404959048283,19.63888411342228,20
91.1031,70.95849431537277,70.64194827796703,70.99827969650069,70.62054683232536,20.021401445641672,19.643668581466343,20
92.4282,71.05210548564844,70.737400001866,71.08915425028532,70.71618173778192,20.021218264084084,19.64824575158069,20
93.7726,71.09324078580025,70.78085574901716,71.12767172716006,70.75935295217613,20.021502796841034,19.6531840218571,20
95.1366,71.09937815399866,70.7886557519399,71.13081645924866,70.76724056015004,20.021415191789856,19.657839292691236,20
96.5204,71.13699420716084,70.82792851903407,71.16582751806352,70.80698105571142,20.020947463322656,19.66210100097055,20
97.9243,71.19261169629894,70.8858280760837,71.21887232191445,70.86481414876378,20.021013927319913,19.66695575416925,20
99.3486,71.25423062133524,70.94943805409892,71.27820712384289,70.92874332596801,20.020694728130906,19.67123093025603,20
100.794,71.30937522665369,71.00644486747096,71.33083508834825,70.98602553057765,20.020419336893312,19.67560977912271,20
102.26,71.36152189941458,71.06073251606907,71.38088224125863,71.04056170015441,20.020170815914653,19.679850274810434,20
103.747,71.40514570591098,71.10596403841237,71.42167232152013,71.08604920652562,20.01991483188675,19.684291716892233,20
105.256,71.440296168619,71.14325921695863,71.45488864754748,71.12391504131469,20.019344175643937,19.68837056941115,20
106.787,71.46892313320535,71.17410258347437,71.48152574020611,71.15505475425527,20.01904782921909,19.692576843268256,20
108.34,71.47307738537904,71.18024542642682,71.48343244564951,71.16154181846795,20.01870360795887,19.69681298077731,20
109.916,71.41870750764913,71.12776667453667,71.42701503410625,71.1096795481279,20.018087126408773,19.700751640430425,20
111.515,71.35786554879502,71.06858744768255,71.36387894609226,71.05111338022483,20.017474067457712,19.70470850159029,20
113.137,71.3434988283326,71.05611616619272,71.34758644541502,71.03923025827172,20.016885907921008,19.708529720777705,20
114.783,71.32413354285146,71.03862700643236,71.32629842434692,71.02251420576552,20.016112800666846,19.712328582085448,20
116.452,71.29329709432395,71.00983326194171,71.29334332487099,70.99408756287755,20.015745699064155,19.71648993707072,20
118.146,71.27293496548691,70.9915453627499,71.27154278992728,70.9766711150366,20.01487424771331,19.720002572822622,20
119.865,71.25657427134296,70.97687426483472,71.25320830375162,70.96282379697465,20.014050467860073,19.7236659610831,20
121.608,71.2347433320354,70.9567402883331,71.22939869978572,70.94351653027492,20.013223758058174,19.727341588547375,20
123.377,71.21591445839249,70.94027075703269,71.20920643225975,70.92762242268682,20.01264833434587,19.731064324772944,20
125.171,71.19755864151092,70.92336011304891,71.18896825642452,70.9118387473093,20.01152136573961,19.7343918566244,20
126.992,71.17920425891046,70.90724713247687,71.16932209317221,70.89655707724768,20.01069005522919,19.737925039304656,20
128.839,71.15638089290539,70.88665491770581,71.14531499561153,70.87694655775981,20.009708359946003,19.741339922094284,20
130.713,71.1210296653834,70.85300629052017,71.10822505601146,70.84421864638603,20.008787644134145,19.744781234508707,20
132.615,71.04521008518873,70.7792245418692,71.0311336705924,70.77150077341773,20.00772376845147,19.7480908712768,20
134.543,70.9683925697392,70.70444969313486,70.95297534172781,70.69771584921682,20.00673384391804,19.751474351407055,20
136.5,70.91751537310122,70.65576540054256,70.90100435522928,70.65002776150551,20.00573763903705,19.754761045313288,20
138.486,70.86870129850713,70.60856979458131,70.85069931106514,70.60420543918555,20.004364355395765,19.75787048351617,20
140.5,70.7898892881912,70.5316077653222,70.77077980860433,70.52837860848962,20.00322915683259,19.760827956717876,20
142.544,70.69501576138029,70.43891955512768,70.67518201389221,70.43712895353377,20.00179060159391,19.76373754123547,20
144.617,70.62873929674008,70.37430492654232,70.60769383687489,70.37376017573132,20.000544750811002,19.766611089667435,20
146.721,70.55140068467682,70.29909608902997,70.52946059475926,70.29985463739553,19.999241451634447,19.769635494270716,20
148.855,70.53306350567846,70.28267764354217,70.51002235948798,70.28462655305,19.99805109049217,19.772655284054196,20
151.02,70.52426078237475,70.27626319943816,70.50077573178359,70.27951175754254,19.996751441895626,19.77548746765457,20
153.217,70.42046012234226,70.1744058832646,70.39602059393457,70.17895086316838,19.995455020096216,19.778385289330032,20
155.445,70.36512781495526,70.12080211059215,70.3398421801265,70.12695979674703,19.99384231384512,19.780959930465656,20
157.706,70.33079694015332,70.08839932148823,70.30491958172993,70.09619332406668,19.99220599742155,19.78347973975829,20
160.0,70.08646749782497,69.84634443351378,70.06022350979877,69.85570142767892,19.990643005834855,19.786120923715004,20
162.327,69.89867405773754,69.66007482979009,69.87163767799524,69.67115383450563,19.98892099528446,19.788437151794852,20
164.688,69.85888268005372,69.62255343046,69.83127271289516,69.6350206949866,19.98753273547341,19.791280717564845,20
167.084,69.83955810728821,69.6053794932642,69.81185629898557,69.61972706014176,19.98565243312244,19.79352319427862,20
169.514,69.87177051016178,69.63967861286565,69.84356158156558,69.65557603702402,19.984102575841632,19.79611703130007,20
171.98,69.68944908757956,69.4592992821832,69.66081314426592,69.47680706526774,19.98249221691546,19.79848613791728,20
174.481,69.49912909671103,69.27051160492408,69.4698454956523,69.28986166272041,19.98064994220367,19.800666109271788,20
177.019,69.41334699736375,69.18689085696248,69.38419499752656,69.20833485581142,19.978556001151063,19.802695859435914,20
179.594,69.40003015584627,69.17598616138059,69.37087322919677,69.19903405433583,19.976952107044767,19.805112932183818,20
182.206,69.37825183537106,69.15596073457085,69.3489208925337,69.18113819690892,19.974822537661936,19.807039842037156,20
184.856,69.41693814262032,69.19660109925981,69.38758189988405,69.22375722978398,19.972843869475824,19.809019199375754,20
187.545,69.4726258809313,69.25445784165348,69.44344841739175,69.28363713057921,19.970820711074268,19.811009424261727,20
190.273,69.50185305573171,69.28610610697719,69.47291645715771,69.31706637981003,19.969039727167157,19.813189649819478,20
193.041,69.47708229086724,69.26330937491193,69.4480962096741,69.29620899539583,19.967100379516097,19.81521316523782,20
195.849,69.44877489385712,69.23643091817387,69.41966933096742,69.2717894154091,19.964641502764763,19.816761587206443,20
198.697,69.48346892735738,69.27362554572854,69.4551316279598,69.31113165667207,19.96249388905646,19.818493917768734,20
201.587,69.46470365565138,69.25675447192195,69.43650200388538,69.29646151236156,19.96029295956039,19.82025246803657,20
204.52,69.28179260303732,69.13540993476488,69.2471272057407,69.1244885779322,20.010921356832682,19.888282729024183,20
207.494,69.07145127104998,68.91821600918686,69.03644184100945,68.91891809409756,19.9992979150893,19.881774168177415,20
210.512,68.83520150121691,68.60717545824593,68.79566278299554,68.66601512100739,19.941160337238543,19.8115126752504,20
213.574,68.87470137692532,68.72558000131805,68.86938621246372,68.75018933502287,19.975390666295183,19.856193788854327,20
