Freq "Listening Window"
20.0 23.753831653509422
20.2909 23.884598336405816
20.586 24.071757564707383
20.8855 24.524798734154388
21.1893 25.471283190408485
21.4975 26.25094237846423
21.8102 26.643117819996746
22.1274 26.859395570362835
22.4492 27.33345684143535
22.7758 28.32508822674245
23.1071 29.45293439459374
23.4432 30.21123097264038
23.7841 30.608692557791386
24.1301 31.002116548313268
24.4811 31.49652264648975
24.8372 31.973514066470045
25.1984 32.4417766123419
25.5649 33.09814587013648
25.9368 33.98597509962528
26.3141 34.851423125576446
26.6968 35.505532513019034
27.0851 36.08064596952329
27.4791 36.75898335675433
27.8788 37.391104893647906
28.2843 37.86879546891117
28.6957 38.372527525501766
29.1131 39.00888329529903
29.5365 39.66969874327671
29.9661 40.2773819875307
30.402 40.83702936198887
30.8442 41.371178723640156
31.2929 41.93317341162083
31.748 42.53005398998542
32.2098 43.08203875556279
32.6783 43.525327189306665
33.1536 44.03511468317515
33.6359 44.64988928865742
34.1251 45.20063075419415
34.6215 45.712467437549805
35.125 46.25921679408701
35.6359 46.82056267062082
36.1543 47.37659986286471
36.6802 47.90661909808914
37.2137 48.44331841165699
37.755 48.96452365958372
38.3041 49.489475217989366
38.8613 50.016133685826844
39.4265 50.544248339380474
40.0 51.059166883327705
40.5818 51.555515753418504
41.1721 52.045184568812886
41.771 52.485017131178125
42.3785 52.93415065654871
42.9949 53.359238853541314
43.6203 53.7189790757441
44.2548 54.075771384391984
44.8985 54.549699904030305
45.5515 54.98740582672761
46.2141 55.40988544814738
46.8863 55.800864454301745
47.5683 56.24213360054193
48.2602 56.69822486584319
48.9621 57.121501913167535
49.6743 57.58130706861024
50.3968 57.99040985687485
51.1299 58.40991680453695
51.8736 58.82233386634476
52.6281 59.223068472193134
53.3936 59.62164272781331
54.1702 60.000674742702955
54.9581 60.38647414796205
55.7575 60.75978709905439
56.5685 61.1301375239517
57.3914 61.485801708527404
58.2261 61.839126478139136
59.073 62.187672550614266
59.9323 62.518129502967284
60.804 62.856234400329825
61.6884 63.19273128771252
62.5857 63.53207578412594
63.496 63.87874958455845
64.4196 64.20677689436414
65.3566 64.52547468277342
66.3073 64.84164921957634
67.2717 65.1406352631997
68.2502 65.43845395477746
69.2429 65.72982664455793
70.2501 66.02890714976607
71.2719 66.31777270864382
72.3086 66.62067197214915
73.3603 66.896401338169
74.4274 67.1517937812617
75.5099 67.39089227812964
76.6083 67.60050868952011
77.7226 67.80336577246753
78.8531 68.03044551035009
80.0 68.27507378311171
81.1636 68.51830121047738
82.3442 68.75072117884253
83.5419 68.97657862072141
84.757 69.17513118373311
85.9899 69.34556310887696
87.2406 69.50302516033996
88.5096 69.66177945274418
89.797 69.81724900550749
91.1031 69.95769670563999
92.4282 70.05314842953896
93.7726 70.09660417669012
95.1366 70.10440417961286
96.5204 70.14367694670702
97.9243 70.20157650375666
99.3486 70.26518648177188
100.794 70.32219329514392
102.26 70.37648094374202
103.747 70.42171246608532
105.256 70.45900764463158
106.787 70.48985101114732
108.34 70.4959938540998
109.916 70.44351510220963
111.515 70.3843358753555
113.137 70.37186459386567
114.783 70.35437543410532
116.452 70.32558168961467
118.146 70.30729379042286
119.865 70.29262269250768
121.608 70.27248871600605
123.377 70.25601918470565
125.171 70.23910854072187
126.992 70.22299556014983
128.839 70.20240334537878
130.713 70.16875471819313
132.615 70.09497296954214
134.543 70.0201981208078
136.5 69.97151382821552
138.486 69.92431822225427
140.5 69.84735619299516
142.544 69.75466798280064
144.617 69.69005335421528
146.721 69.61484451670292
148.855 69.59842607121513
151.02 69.59201162711113
153.217 69.49015431093756
155.445 69.4365505382651
157.706 69.40414774916118
160.0 69.16209286118674
162.327 68.97582325746303
164.688 68.93830185813297
167.084 68.92112792093717
169.514 68.95542704053861
171.98 68.77504770985614
174.481 68.58626003259704
177.019 68.50263928463544
179.594 68.49173458905356
182.206 68.47170916224381
184.856 68.51234952693278
187.545 68.57020626932643
190.273 68.60185453465013
193.041 68.57905780258491
195.849 68.55217934584682
198.697 68.58937397340148
201.587 68.57250289959491
204.52 68.45115836243784
207.494 68.23396443685982
210.512 67.92292388591889
213.574 68.041328428991
216.681 68.1277659421059
219.833 68.01766713557906
223.03 67.96682191005263
226.274 68.02095846545784
229.565 67.97470578773209
232.905 67.8908987051806
236.292 67.8550918935669
239.729 67.75153669332202
243.216 67.79601617910232
246.754 67.84901260608243
250.343 67.82333239226797
253.984 67.69165391157311
257.678 67.60088147342204
261.426 67.57610927046898
265.229 67.54260445440883
269.087 67.3507339026767
273.001 67.26104520678146
276.972 67.3324620117132
281.0 67.13865156690171
285.088 67.24102370375681
289.234 67.40587878930204
293.441 67.59024955569902
297.709 67.57102168790675
302.04 67.22914624952568
306.433 67.00104809413351
310.89 67.1342897064247
315.412 67.2976399836811
320.0 67.2215413283229
324.655 67.07231820468093
329.377 67.02022472638721
334.168 67.16498135124962
339.028 66.87930979550308
343.959 66.8374261173628
348.962 66.84020555926371
354.038 66.81065615045253
359.188 66.9727734445097
364.412 66.9152222737013
369.713 66.80558340046392
375.09 66.67723064172864
380.546 66.72973631866256
386.081 66.9138008183134
391.697 66.64240305100112
397.394 66.73930166865931
403.175 66.70090631282595
409.039 66.84912377737449
414.989 66.84353720015169
421.025 66.99914295271645
427.149 67.15625274382816
433.362 67.31295029924028
439.665 67.50925187128445
446.06 67.5830018531231
452.548 67.63843596826605
459.131 67.68035841281079
465.809 67.71571701162259
472.584 67.71490319981413
479.458 67.69836790964987
486.432 67.61055712494515
493.507 67.57214219265482
500.686 67.53315133499083
507.968 67.46300879389922
515.357 67.37426069307443
522.853 67.31912636153088
530.458 67.27334980425805
538.174 67.26175530747415
546.002 67.2665058188104
553.943 67.28951849886454
562.001 67.32915013899076
570.175 67.38336031820954
578.469 67.45247788490317
586.883 67.53323485666075
595.419 67.6218170639154
604.08 67.72261738948724
612.866 67.8190305092881
621.78 67.9239336361126
630.824 68.0226879926788
640.0 68.1162628483222
649.309 68.19325354236769
658.753 68.26680079326128
668.335 68.32441303664655
678.056 68.3671675683982
687.919 68.39385392149192
697.925 68.40553548894113
708.077 68.39718233987827
718.376 68.37504479362822
728.825 68.34515547649583
739.426 68.30274272518494
750.181 68.2510254195682
761.093 68.19670715157613
772.163 68.14512474354888
783.394 68.09985315805312
794.789 68.06187162052353
806.349 68.03653741476094
818.078 68.0236213792447
829.977 68.01955617613618
842.05 68.03194827099377
854.298 68.0484239544399
866.724 68.06926824571254
879.33 68.09308590459133
892.12 68.10801660857351
905.097 68.11293863790974
918.262 68.110597052131
931.618 68.09401391088568
945.169 68.06566585596032
958.917 68.02886222473337
972.864 67.98554784417307
987.015 67.9408719957681
1001.37 67.90227168503631
1015.94 67.87377120042254
1030.71 67.85693729017689
1045.71 67.85975612077367
1060.92 67.87648414692754
1076.35 67.90147132897144
1092.0 67.92865324146089
1107.89 67.94624941278447
1124.0 67.94799636186828
1140.35 67.93067402600227
1156.94 67.8873409598502
1173.77 67.81556304244721
1190.84 67.72874081050746
1208.16 67.62988628488753
1225.73 67.53134929263709
1243.56 67.44353247829002
1261.65 67.38306786059123
1280.0 67.34973868875552
1298.62 67.34479649579991
1317.51 67.36364675534732
1336.67 67.38699945027659
1356.11 67.40922492091795
1375.84 67.4159873867199
1395.85 67.40556876370907
1416.15 67.38081446767399
1436.75 67.35390114932525
1457.65 67.32540545556442
1478.85 67.31240610681174
1500.36 67.32235351260616
1522.19 67.34581944488185
1544.33 67.36969941550461
1566.79 67.37562087895375
1589.58 67.3495062972248
1612.7 67.28626383293101
1636.16 67.1840195973544
1659.95 67.06132068681865
1684.1 66.94491667333448
1708.6 66.85503960143575
1733.45 66.81410394658465
1758.66 66.81730038162372
1784.24 66.84149851438714
1810.19 66.86001533593497
1836.52 66.8491687679837
1863.24 66.80256373208408
1890.34 66.73289685395689
1917.83 66.66912952037809
1945.73 66.63375685785573
1974.03 66.63889034750103
2002.74 66.66680925865401
2031.87 66.68773334530282
2061.43 66.67121692813372
2091.41 66.6107586194718
2121.83 66.52631340651024
2152.69 66.45902210101416
2184.01 66.43902945244794
2215.77 66.47062125424776
2248.0 66.52369998072743
2280.7 66.56341300178727
2313.87 66.5596679771181
2347.53 66.51481640018159
2381.68 66.45953386698557
2416.32 66.42433342830597
2451.46 66.41214308807496
2487.12 66.40955788019153
2523.3 66.39703100800124
2560.0 66.37564751085301
2597.24 66.36819119845526
2635.01 66.38907611160563
2673.34 66.42244432720831
2712.23 66.4318007153471
2751.68 66.38851922723173
2791.7 66.30282593657272
2832.31 66.21978872988021
2873.5 66.1841293333323
2915.3 66.18677829836736
2957.7 66.17571152638297
3000.72 66.10776703524678
3044.37 66.00001119384683
3088.65 65.89489242165162
3133.58 65.81224479279336
3179.16 65.71743165285287
3225.4 65.55905256388047
3272.31 65.34267504681723
3319.91 65.12254461188103
3368.2 64.94952697489029
3417.19 64.80460419346616
3466.89 64.64563548666106
3517.32 64.48733335328507
3568.48 64.38776404222017
3620.39 64.36050616171102
3673.05 64.36510942574793
3726.47 64.38723938738283
3780.67 64.44961598025387
3835.67 64.53460806581514
3891.46 64.59154733325784
3948.06 64.63497866345739
4005.49 64.71500552491156
4063.75 64.78887960390911
4122.86 64.76244077009471
4182.82 64.66653477111686
4243.66 64.6002277147325
4305.39 64.51689387152545
4368.01 64.33209529006714
4431.55 64.099115108944
4496.01 63.92469798847833
4561.4 63.78123977076717
4627.75 63.65682611466363
4695.06 63.59701745089063
4763.35 63.60203567686743
4832.64 63.68815736838269
4902.93 63.862842045329984
4974.24 64.08036040641002
5046.6 64.33890962812472
5120.0 64.58900223152328
5194.47 64.76923849727822
5270.03 64.88577026136598
5346.68 64.89366024137114
5424.45 64.81030875514251
5503.35 64.711416264149
5583.4 64.58705046705674
5664.61 64.55597570699138
5747.01 64.55871869228281
5830.6 64.56620139315649
5915.41 64.73977145655739
6001.45 64.80224621907436
6088.74 64.7604636623478
6177.3 64.68488755584906
6267.15 64.60014882539726
6358.31 64.7109308409701
6450.8 64.8443961006713
6544.62 65.16038568548396
6639.82 65.42892566099854
6736.4 65.7058905343959
6834.38 65.90438081013372
6933.79 66.02086838840174
7034.64 66.08054400663217
7136.96 66.00422398222501
7240.77 65.85370117928132
7346.09 65.65340595227522
7452.94 65.54671006674454
7561.35 65.51851633646538
7671.33 65.57487492812453
7782.91 65.72012780244307
7896.12 65.87906350574269
8010.97 66.10066399706704
8127.49 66.27563105405964
8245.71 66.44009735516372
8365.65 66.44331286450883
8487.33 66.49084938328616
8610.78 66.46279372172026
8736.03 66.22546243598043
8863.09 65.97305512548297
8992.01 65.72615347248433
9122.8 65.65586191494128
9255.5 65.78294389511464
9390.12 65.97944775100417
9526.7 66.1224916436284
9665.27 66.07775005952345
9805.86 65.93082415387131
9948.49 65.81883654278548
10093.2 65.82770277508958
10240.0 65.99595321095852
10388.9 66.24834665752255
10540.1 66.469848781378
10693.4 66.60994986921689
10848.9 66.67061100270179
11006.7 66.6814220753651
11166.8 66.67857504794118
11329.2 66.60237050829062
11494.0 66.48409616997944
11661.2 66.47229529740899
11830.8 66.66552888725377
12002.9 66.97161067418855
12177.5 67.14411237136223
12354.6 67.04728928819804
12534.3 66.73274730833778
12716.6 66.41004074747224
12901.6 66.2599393646538
13089.2 66.23821900436661
13279.6 66.23807567151573
13472.8 66.12191803746515
13668.8 65.865049341209
13867.6 65.46985654372611
14069.3 65.0030630035268
14273.9 64.59772256051063
14481.5 64.38150107161124
14692.2 64.28419050706923
14905.9 64.0642645983509
15122.7 63.613564530570045
15342.7 63.08975461165066
15565.8 62.77855195945398
15792.2 62.771124380977824
16021.9 62.83932350230282
16255.0 62.77667661600967
16491.4 62.63169760716012
16731.3 62.55323969180435
16974.7 62.74537330627386
17221.6 62.84629148627275
17472.1 62.601286382755774
17726.2 62.201311345426404
17984.0 61.735410370073936
18245.6 61.473337482098046
18511.0 61.4008414028043
18780.2 61.34974306171213
19053.4 61.12667874087495
19330.5 60.845212235453516
19611.7 60.74182780253268
19897.0 60.62190566988991
