Freq "On Axis"
20.0 24.94226877500239
20.2909 25.071204887928957
20.586 25.257143072272356
20.8855 25.70859314160012
21.1893 26.653535123692762
21.4975 27.430988357890357
21.8102 27.821934137918305
22.1274 28.03639053713573
22.4492 28.50884837504529
22.7758 29.498799679649835
23.1071 30.62526068277927
23.4432 31.38172312468697
23.7841 31.777187005397764
24.1301 32.16914556150448
24.4811 32.661612607665035
24.8372 33.136574962376386
25.1984 33.60353938910552
25.5649 34.25801132752909
25.9368 35.14397955304429
26.3141 36.00845465716668
26.6968 36.660426681569845
27.0851 37.23390495147092
27.4791 37.910384660385915
27.8788 38.54086580832836
28.2843 39.01684508539296
28.6957 39.51882643469472
29.1131 40.15331247541803
29.5365 40.81229762386613
29.9661 41.41778683056586
30.402 41.976277476357836
30.8442 42.50826815091861
31.2929 43.06876196273399
31.748 43.66425721365806
32.2098 44.21425341439485
32.6783 44.65625168745629
33.1536 45.163751831367875
33.6359 45.77725341439485
34.1251 46.32625721365807
34.6215 46.83576196273398
35.125 47.38076956124824
35.6359 47.940277476357835
36.1543 48.49478683056586
36.6802 49.02279995521663
37.2137 49.55781515214764
37.755 50.077329399238295
38.3041 50.60084508539295
38.8613 51.125865808328356
39.4265 51.65188860348114
40.0 52.16490495147093
40.5818 52.65943577653016
41.1721 53.14745465716666
41.771 53.5854847048961
42.3785 54.03251682472947
42.9949 54.45604517409241
43.6203 54.81408109270197
44.2548 55.16861260766504
44.8985 55.64114556150447
45.5515 56.077187005397775
46.2141 56.49772312468696
46.8863 56.88676836705194
47.5683 57.32630765167508
48.2602 57.78035669236667
48.9621 58.20189914219776
49.6743 58.66044303071534
50.3968 59.06749759596161
51.1299 59.485044649485815
51.8736 59.89610301265097
52.6281 60.29465323103088
53.3936 60.69171539192776
54.1702 61.068268775002394
54.9581 61.45233473343171
55.7575 61.82389128102989
56.5685 62.19244926698855
57.3914 62.54652074872061
58.2261 62.897594301568205
59.073 63.24415717765949
59.9323 63.57323452736864
60.804 63.90928724435251
61.6884 64.24388171373192
62.5857 64.58145091751008
63.496 64.92602155927804
64.4196 65.25259363898907
65.3566 65.56968203265984
66.3073 65.88377249681552
67.2717 66.1803494651702
68.2502 66.47692787125078
69.2429 66.76602385627254
70.2501 67.06312191145332
71.2719 67.35070520540806
72.3086 67.65128993685323
73.3603 67.92539351199571
74.4274 68.17898140572099
75.5099 68.41608877543213
76.6083 68.62367983115595
77.7226 68.8247909950918
78.8531 69.05038521252247
80.0 69.29298086699347
81.1636 69.5340975491627
82.3442 69.76469636489824
83.5419 69.98829661746821
84.757 70.18541881708015
85.9899 70.35354308552164
87.2406 70.50914822282681
88.5096 70.6662762838136
89.797 70.81988458140363
91.1031 70.95849431537277
92.4282 71.05210548564844
93.7726 71.09324078580025
95.1366 71.09937815399866
96.5204 71.13699420716084
97.9243 71.19261169629894
99.3486 71.25423062133524
100.794 71.30937522665369
102.26 71.36152189941458
103.747 71.40514570591098
105.256 71.440296168619
106.787 71.46892313320535
108.34 71.47307738537904
109.916 71.41870750764913
111.515 71.35786554879502
113.137 71.3434988283326
114.783 71.32413354285146
116.452 71.29329709432395
118.146 71.27293496548691
119.865 71.25657427134296
121.608 71.2347433320354
123.377 71.21591445839249
125.171 71.19755864151092
126.992 71.17920425891046
128.839 71.15638089290539
130.713 71.1210296653834
132.615 71.04521008518873
134.543 70.9683925697392
136.5 70.91751537310122
138.486 70.86870129850713
140.5 70.7898892881912
142.544 70.69501576138029
144.617 70.62873929674008
146.721 70.55140068467682
148.855 70.53306350567846
151.02 70.52426078237475
153.217 70.42046012234226
155.445 70.36512781495526
157.706 70.33079694015332
160.0 70.08646749782497
162.327 69.89867405773754
164.688 69.85888268005372
167.084 69.83955810728821
169.514 69.87177051016178
171.98 69.68944908757956
174.481 69.49912909671103
177.019 69.41334699736375
179.594 69.40003015584627
182.206 69.37825183537106
184.856 69.41693814262032
187.545 69.4726258809313
190.273 69.50185305573171
193.041 69.47708229086724
195.849 69.44877489385712
198.697 69.48346892735738
201.587 69.46470365565138
204.52 69.28179260303732
207.494 69.07145127104998
210.512 68.83520150121691
213.574 68.87470137692532
216.681 68.88457397010474
219.833 68.83092718527564
223.03 68.79953626116959
226.274 68.83548791185129
229.565 68.82113759204525
232.905 68.72902908586266
236.292 68.6627392469033
239.729 68.57629430122122
243.216 68.6565287950693
246.754 68.68970692717224
250.343 68.62950095640349
253.984 68.52716417495395
257.678 68.43750095640348
261.426 68.42333552668185
265.229 68.39166193119824
269.087 68.17942154538927
273.001 68.08610516356484
276.972 68.13509931491353
281.0 68.00962069701828
285.088 68.10386344798631
289.234 68.24455453826286
293.441 68.44710834092737
297.709 68.40519221841082
302.04 68.0776445803477
306.433 67.85338283347816
310.89 67.96082892131207
315.412 68.13591882412301
320.0 68.06452879506932
324.655 67.94583041225935
329.377 67.88329476806042
334.168 68.03212321238317
339.028 67.73459726798966
343.959 67.6963073596446
348.962 67.70093845886815
354.038 67.67995211345158
359.188 67.843405706489
364.412 67.78400057574349
369.713 67.67886903381738
375.09 67.56335691372927
380.546 67.61969956615
386.081 67.8091880651968
391.697 67.53585019336413
397.394 67.64761356076771
403.175 67.61328687714997
409.039 67.75424512700592
414.989 67.76498863138394
421.025 67.91671543208463
427.149 68.08286803310594
433.362 68.24712143370331
439.665 68.45461352363995
446.06 68.52838484584427
452.548 68.61835846072285
459.131 68.64312837616457
465.809 68.68564222135882
472.584 68.70773382256903
479.458 68.68183252194777
486.432 68.60403527400963
493.507 68.58215968946256
500.686 68.55602998283597
507.968 68.49442251876967
515.357 68.40179607092243
522.853 68.3372441160206
530.458 68.28512811845536
538.174 68.29105866482296
546.002 68.28269956615
553.943 68.30927052843028
562.001 68.3403987333717
570.175 68.38724297727168
578.469 68.44341765093735
586.883 68.51342082048642
595.419 68.60713354285147
604.08 68.68775479666742
612.866 68.787272324056
621.78 68.880803111627
630.824 68.97359430156821
640.0 69.06327610887553
649.309 69.12256287439351
658.753 69.21679097519527
668.335 69.26877577820785
678.056 69.32225341439485
687.919 69.3482516874563
697.925 69.36425157232705
708.077 69.36425721365808
718.376 69.34675804834441
728.825 69.33275183136787
739.426 69.29375229188484
750.181 69.2497725545999
761.093 69.21626550295196
772.163 69.16732939923828
783.394 69.13589666235447
794.789 69.10094985066836
806.349 69.08105691673656
818.078 69.06962561653685
829.977 69.0672012804555
842.05 69.07932376837499
854.298 69.09447917736418
866.724 69.11469444146951
879.33 69.13544926698853
892.12 69.14788171373193
905.097 69.1600563113197
918.262 69.15750017032697
931.618 69.15001643452572
945.169 69.128145705911
958.917 69.0999905156713
972.864 69.0618010693816
987.015 69.03533595752836
1001.37 68.99199354625273
1015.94 68.96892675573963
1030.71 68.9584840570818
1045.71 68.96474035590003
1060.92 68.9759905156713
1076.35 68.99477094795255
1092.0 69.0214244029415
1107.89 69.03819067998272
1124.0 69.05298069270455
1140.35 69.04375479666741
1156.94 69.02249431537277
1173.77 68.9791956304668
1190.84 68.9184988283326
1208.16 68.8434431802691
1225.73 68.77408957589176
1243.56 68.70838579389091
1261.65 68.66044869836873
1280.0 68.6277119947514
1298.62 68.62205631131972
1317.51 68.62996103678016
1336.67 68.64124548688754
1356.11 68.65518700539776
1375.84 68.6679341379183
1395.85 68.66482738609292
1416.15 68.65446162113906
1436.75 68.63507738537902
1457.65 68.61333151215024
1478.85 68.60646012234227
1500.36 68.60166188610594
1522.19 68.60938089290539
1544.33 68.60899731038795
1566.79 68.596019531139
1589.58 68.56032423191608
1612.7 68.5038761057327
1636.16 68.42015035590809
1659.95 68.32886201226971
1684.1 68.24578235610005
1708.6 68.19302908586268
1733.45 68.17697205310215
1758.66 68.19614723082162
1784.24 68.23021493205638
1810.19 68.27010051855345
1836.52 68.28675086017758
1863.24 68.28059495242786
1890.34 68.25716851358247
1917.83 68.22841324289655
1945.73 68.21439186069138
1974.03 68.21817877508906
2002.74 68.22819221841081
2031.87 68.2314044077889
2061.43 68.21390818552447
2091.41 68.16918990287411
2121.83 68.12135735491144
2152.69 68.09594904354921
2184.01 68.10695856326137
2215.77 68.15405365430155
2248.0 68.21713759204525
2280.7 68.27174460768708
2313.87 68.28868097277663
2347.53 68.27250428135963
2381.68 68.22861356076771
2416.32 68.18328687714998
2451.46 68.13899142729578
2487.12 68.10185952709682
2523.3 68.0658550669981
2560.0 68.03311359665813
2597.24 68.01074460768709
2635.01 67.98932618653548
2673.34 67.95539256973919
2712.23 67.88175457864338
2751.68 67.76754308552165
2791.7 67.62810599551658
2832.31 67.50521630046758
2873.5 67.41974211204838
2915.3 67.3556523249356
2957.7 67.2627580483444
3000.72 67.12626089778999
3044.37 66.97613220730491
3088.65 66.84842306343745
3133.58 66.75681684039651
3179.16 66.64160648515345
3225.4 66.44444908757957
3272.31 66.15620599742269
3319.91 65.84207702768741
3368.2 65.57225171608309
3417.19 65.33512029825908
3466.89 65.08398742559086
3517.32 64.81868077961255
3568.48 64.62187281242664
3620.39 64.56920022711147
3673.05 64.63270496206385
3726.47 64.7700788419515
3780.67 64.95386499133144
3835.67 65.16838579389092
3891.46 65.39950079614447
3948.06 65.64940068467682
4005.49 65.914883514548
4063.75 66.13490818552447
4122.86 66.27464626794871
4182.82 66.38865057544157
4243.66 66.51462154475743
4305.39 66.54759751520805
4368.01 66.43473398948639
4431.55 66.2867712487706
4496.01 66.19264222135882
4561.4 66.09570854643268
4627.75 66.00177901205485
4695.06 65.98476790563046
4763.35 66.0307433320354
4832.64 66.15510822748026
4902.93 66.38588198962134
4974.24 66.65880479060763
5046.6 66.94725260849027
5120.0 67.23805691673655
5194.47 67.47042590000424
5270.03 67.63098069270457
5346.68 67.69284176931568
5424.45 67.6292947680604
5503.35 67.50087674947949
5583.4 67.36071315846121
5664.61 67.3089668882325
5747.01 67.2786529016523
5830.6 67.23976647133355
5915.41 67.42607397367027
6001.45 67.6436945763526
6088.74 67.64699218248812
6177.3 67.4444640413213
6267.15 67.13686243413702
6358.31 66.93746404132129
6450.8 66.79111242869288
6544.62 66.84261258355963
6639.82 66.88362882602074
6736.4 66.9443152861506
6834.38 67.00315609239041
6933.79 67.01230011853141
7034.64 67.04251960747244
7136.96 66.94294665071044
7240.77 66.84627123010175
7346.09 66.74769504575195
7452.94 66.81112712880685
7561.35 66.9164873859057
7671.33 67.11302286133575
7782.91 67.3062481890456
7896.12 67.49620887977034
8010.97 67.6500164310159
8127.49 67.77102314024333
8245.71 67.85871625037967
8365.65 67.69769991665466
8487.33 67.05953973109547
8610.78 66.78739543944617
8736.03 66.98371195732875
8863.09 67.04364323640188
8992.01 67.02947560498602
9122.8 67.10846098894811
9255.5 67.24383191304926
9390.12 67.44593413791829
9526.7 67.71676956124824
9665.27 67.80828484459667
9805.86 67.83178291619123
9948.49 67.84234183303738
10093.2 67.94136946361706
10240.0 68.17575229188483
10388.9 68.45430234413048
10540.1 68.70185867043583
10693.4 68.8914847048961
10848.9 69.03451682472948
11006.7 69.16642668156986
11166.8 69.24928104534956
11329.2 69.1807580483444
11494.0 69.05879097519527
11661.2 69.04525721365806
11830.8 69.27259314160008
12002.9 69.63737985644019
12177.5 69.86698474896082
12354.6 69.8515073158875
12534.3 69.62346371198944
12716.6 69.3596566661802
12901.6 69.24041881708013
13089.2 69.26541207501904
13279.6 69.28678291619123
13472.8 69.12898140572098
13668.8 68.82706084518607
13867.6 68.38942590000426
14069.3 67.86929053099789
14273.9 67.430603295015
14481.5 67.16346162113908
14692.2 66.98525203284406
14905.9 66.67509754916269
15122.7 66.12963909399883
15342.7 65.51033712079501
15565.8 65.15794041034997
15792.2 65.10175505498606
16021.9 65.07930234413048
16255.0 64.96569411415018
16491.4 64.85992830262984
16731.3 64.9010882187901
16974.7 65.30967502069265
17221.6 65.58716150503516
17472.1 65.38096493082597
17726.2 64.94871665585822
17984.0 64.47814583984305
18245.6 64.24040076668159
18511.0 64.20891868840665
18780.2 64.13402573833896
19053.4 63.87570129850715
19330.5 63.536315050180306
19611.7 63.34233552668185
19897.0 63.143751831367865
