Freq "Sound Power"
20.0 25.611782111853444
20.2909 25.73188121588379
20.586 25.90826163476848
20.8855 26.350503802399317
21.1893 27.28673671396558
21.4975 28.05558895052178
21.8102 28.43755453569287
22.1274 28.643547792563567
22.4492 29.10718916563809
22.7758 30.088302228676014
23.1071 31.20574853207239
23.4432 31.953849045768266
23.7841 32.341067148811305
24.1301 32.72439238789201
24.4811 33.208939764293746
24.8372 33.67585163258474
25.1984 34.134084900947386
25.5649 34.7808779731223
25.9368 35.658554276388315
26.3141 36.51436830514723
26.6968 37.158883942589256
27.0851 37.724304236596595
27.4791 38.39285040365971
27.8788 39.015659715799984
28.2843 39.483603472101976
28.6957 39.97796731271242
29.1131 40.60537557155811
29.5365 41.25660408700185
29.9661 41.854813294782645
30.402 42.405558604144545
30.8442 42.93045183271556
31.2929 43.48364546979687
31.748 44.0715597420741
32.2098 44.614309296447175
32.6783 45.04888223112934
33.1536 45.54980165788214
33.6359 46.1558422920005
34.1251 46.697813608230064
34.6215 47.20066880314613
35.125 47.738968034040894
35.6359 48.29183660779796
36.1543 48.839488633249516
36.6802 49.3611742604521
37.2137 49.88934357929884
37.755 50.402452284136444
38.3041 50.91898264356014
38.8613 51.437347841331885
39.4265 51.957469603250075
40.0 52.46422932436724
40.5818 52.952487920892835
41.1721 53.4342869661655
41.771 53.866183802427884
42.3785 54.30741724419936
42.9949 54.72469461902075
43.6203 55.076634086752435
44.2548 55.42595505152022
44.8985 55.892050397653364
45.5515 56.32239044444
46.2141 56.73719579691195
46.8863 57.12076328752107
47.5683 57.55462407649861
48.2602 58.00328554437395
48.9621 58.419510232679556
49.6743 58.872280112155266
50.3968 59.273846632736664
51.1299 59.68649844061596
51.8736 60.091996341510125
52.6281 60.48533355384944
53.3936 60.87744276235071
54.1702 61.24940584095485
54.9581 61.6283915653877
55.7575 61.995029141303405
56.5685 62.35864546420379
57.3914 62.707633015970345
58.2261 63.054370032832196
59.073 63.39641848413348
59.9323 63.72070463441017
60.804 64.05211705977598
61.6884 64.38230096865325
62.5857 64.71530825861456
63.496 65.05587219199076
64.4196 65.3777588064498
65.3566 65.69024918438521
66.3073 66.00043823163733
67.2717 66.2933954569655
68.2502 66.58524104026323
69.2429 66.87081075726486
70.2501 67.16388189500685
71.2719 67.44713970162368
72.3086 67.74443831380523
73.3603 68.01480657905871
74.4274 68.26435168567076
75.5099 68.49788944018769
76.6083 68.70202037212664
77.7226 68.89968497395799
78.8531 69.12126499850507
80.0 69.36054416852203
81.1636 69.59849134436114
82.3442 69.82598267496518
83.5419 70.04647538671928
84.757 70.24032918786114
85.9899 70.40545013252782
87.2406 70.55792875027801
88.5096 70.71201123584129
89.797 70.86261646441227
91.1031 70.99827969650069
92.4282 71.08915425028532
93.7726 71.12767172716006
95.1366 71.13081645924866
96.5204 71.16582751806352
97.9243 71.21887232191445
99.3486 71.27820712384289
100.794 71.33083508834825
102.26 71.38088224125863
103.747 71.42167232152013
105.256 71.45488864754748
106.787 71.48152574020611
108.34 71.48343244564951
109.916 71.42701503410625
111.515 71.36387894609226
113.137 71.34758644541502
114.783 71.32629842434692
116.452 71.29334332487099
118.146 71.27154278992728
119.865 71.25320830375162
121.608 71.22939869978572
123.377 71.20920643225975
125.171 71.18896825642452
126.992 71.16932209317221
128.839 71.14531499561153
130.713 71.10822505601146
132.615 71.0311336705924
134.543 70.95297534172781
136.5 70.90100435522928
138.486 70.85069931106514
140.5 70.77077980860433
142.544 70.67518201389221
144.617 70.60769383687489
146.721 70.52946059475926
148.855 70.51002235948798
151.02 70.50077573178359
153.217 70.39602059393457
155.445 70.3398421801265
157.706 70.30491958172993
160.0 70.06022350979877
162.327 69.87163767799524
164.688 69.83127271289516
167.084 69.81185629898557
169.514 69.84356158156558
171.98 69.66081314426592
174.481 69.4698454956523
177.019 69.38419499752656
179.594 69.37087322919677
182.206 69.3489208925337
184.856 69.38758189988405
187.545 69.44344841739175
190.273 69.47291645715771
193.041 69.4480962096741
195.849 69.41966933096742
198.697 69.4551316279598
201.587 69.43650200388538
204.52 69.2471272057407
207.494 69.03644184100945
210.512 68.79566278299554
213.574 68.86938621246372
216.681 68.91156589649489
219.833 68.84718877619397
223.03 68.80382375822957
226.274 68.84717815145942
229.565 68.82134876571969
232.905 68.71929836332598
236.292 68.677656108286
239.729 68.58202383194923
243.216 68.60518576746013
246.754 68.65674587858668
250.343 68.62356836178927
253.984 68.48620530576025
257.678 68.40099370295435
261.426 68.36285842692719
265.229 68.32679443256296
269.087 68.11994761242376
273.001 68.01409888617296
276.972 68.0886957140115
281.0 67.89744914863539
285.088 67.98647636341458
289.234 68.14458149441765
293.441 68.33299489411326
297.709 68.2908311470405
302.04 67.94242979924056
306.433 67.71363904644754
310.89 67.82475425332328
315.412 67.98554921223555
320.0 67.88903961292479
324.655 67.7371166294626
329.377 67.68392210746167
334.168 67.80620179376736
339.028 67.5092103948393
343.959 67.45627032074631
348.962 67.44097978668167
354.038 67.3988441579063
359.188 67.5526396223897
364.412 67.4758881582359
369.713 67.35131266443932
375.09 67.21005673776362
380.546 67.2324862297053
386.081 67.40426259084867
391.697 67.10645998559548
397.394 67.18516462414217
403.175 67.11545545194046
409.039 67.24067718874882
414.989 67.20773836250956
421.025 67.33178159002051
427.149 67.45365903855236
433.362 67.57875957641619
439.665 67.73414791081484
446.06 67.76536848283713
452.548 67.7702025122387
459.131 67.76342687125124
465.809 67.74978025396408
472.584 67.68175863052124
479.458 67.60331997325653
486.432 67.44563401969761
493.507 67.32688271136634
500.686 67.20974207817076
507.968 67.05547393605714
515.357 66.88086121687812
522.853 66.72334227128724
530.458 66.58111563534209
538.174 66.47507880302608
546.002 66.38611769696848
553.943 66.31453894612716
562.001 66.26534140929711
570.175 66.23299672442324
578.469 66.22686681877086
586.883 66.23735247509907
595.419 66.26634606119627
604.08 66.30854579467932
612.866 66.36378477056522
621.78 66.42285660247462
630.824 66.48537155020668
640.0 66.53914409984506
649.309 66.58727695466155
658.753 66.62214049206898
668.335 66.64383208967423
678.056 66.6417757039304
687.919 66.62171857334765
697.925 66.57875472106058
708.077 66.51347697741687
718.376 66.42544858463542
728.825 66.31814251809166
739.426 66.18914789352995
750.181 66.05207495991895
761.093 65.90248137627478
772.163 65.75731092007555
783.394 65.61520964687568
794.789 65.48515042842563
806.349 65.37415267767528
818.078 65.28727122715448
829.977 65.22576258383972
842.05 65.18988965020202
854.298 65.17797791099385
866.724 65.17928218149113
879.33 65.19003132661604
892.12 65.20337910364053
905.097 65.20669523016602
918.262 65.20000158530296
931.618 65.17742064002107
945.169 65.13418200706137
958.917 65.07413488589813
972.864 64.99958272339613
987.015 64.91594781619274
1001.37 64.8281895329593
1015.94 64.74418917409439
1030.71 64.67439653723252
1045.71 64.62218910261402
1060.92 64.59022976483871
1076.35 64.56846516705885
1092.0 64.55485752317199
1107.89 64.536412960044
1124.0 64.5015693270746
1140.35 64.44589689875201
1156.94 64.35492404278496
1173.77 64.22802221118323
1190.84 64.06974445876332
1208.16 63.88857939683429
1225.73 63.691413454787096
1243.56 63.498256491036685
1261.65 63.32731316155963
1280.0 63.19503377189558
1298.62 63.10543146453314
1317.51 63.0555217375009
1336.67 63.02923133421879
1356.11 63.0134041915895
1375.84 62.979804638657185
1395.85 62.9192733793776
1416.15 62.8267938598015
1436.75 62.7046985334149
1457.65 62.56968329810442
1478.85 62.44907227560165
1500.36 62.35877905841096
1522.19 62.30801451311652
1544.33 62.288002268112564
1566.79 62.280719096464466
1589.58 62.253866311939944
1612.7 62.18791949784216
1636.16 62.06090580034808
1659.95 61.88271418508543
1684.1 61.67694088919441
1708.6 61.48477046878848
1733.45 61.34897279399891
1758.66 61.279882376721176
1784.24 61.262842908763616
1810.19 61.25012218299673
1836.52 61.19207390058459
1863.24 61.05787890286132
1890.34 60.8524303859499
1917.83 60.61943531705501
1945.73 60.41791623601286
1974.03 60.30468615467039
2002.74 60.280883483208584
2031.87 60.29770715838674
2061.43 60.281316590902435
2091.41 60.19008455819392
2121.83 60.028127568058565
2152.69 59.85771177541625
2184.01 59.74885204227064
2215.77 59.73603771734953
2248.0 59.794467935514945
2280.7 59.850104048609026
2313.87 59.85947258692954
2347.53 59.829780277371015
2381.68 59.81383551256859
2416.32 59.8484840453994
2451.46 59.93345292982629
2487.12 60.02036271933753
2523.3 60.07694376985073
2560.0 60.117726476806624
2597.24 60.19796476535784
2635.01 60.35269190897098
2673.34 60.554706983394254
2712.23 60.74283139301396
2751.68 60.87435354840562
2791.7 60.961869214389324
2832.31 61.05697126665015
2873.5 61.189318972205285
2915.3 61.346228130930996
2957.7 61.488436933570426
3000.72 61.59370710950594
3044.37 61.664416726174565
3088.65 61.72434284927813
3133.58 61.790216912739496
3179.16 61.85583278440902
3225.4 61.892558258103605
3272.31 61.8719339760938
3319.91 61.80591317649194
3368.2 61.72327278865953
3417.19 61.63961492944058
3466.89 61.53131064721123
3517.32 61.40005413596589
3568.48 61.30276863220192
3620.39 61.2725938021872
3673.05 61.265007709050764
3726.47 61.2543445035013
3780.67 61.288807887306945
3835.67 61.377507837984055
3891.46 61.44285747926348
3948.06 61.474245865889685
4005.49 61.54240282651847
4063.75 61.62130469818702
4122.86 61.61642217477555
4182.82 61.56863502659783
4243.66 61.55686775436325
4305.39 61.51294969024117
4368.01 61.40342722763474
4431.55 61.293171803739426
4496.01 61.15967143060804
4561.4 61.00326555871422
4627.75 60.940253752606665
4695.06 60.8967485206209
4763.35 60.81762330442071
4832.64 60.8519835021589
4902.93 60.89370680944015
4974.24 60.87810994743742
5046.6 60.97374971674614
5120.0 61.01304213638676
5194.47 60.995121171989794
5270.03 61.09511761668165
5346.68 61.06979218929675
5424.45 61.05722951154428
5503.35 61.14059371666704
5583.4 61.07933721399016
5664.61 61.157649551116194
5747.01 61.19710353603861
5830.6 61.17859102879332
5915.41 61.24182522176494
6001.45 61.09040960608982
6088.74 61.05686074051367
6177.3 60.94856260518927
6267.15 60.90947572783526
6358.31 60.99679693840824
6450.8 61.094089297257966
6544.62 61.35799300967203
6639.82 61.52484246979499
6736.4 61.731211018126174
6834.38 61.73601342238196
6933.79 61.747719774686246
7034.64 61.58494230261401
7136.96 61.450182643721845
7240.77 61.185606531331544
7346.09 61.044990932693
7452.94 60.873389853521104
7561.35 60.87609720957164
7671.33 60.85666358232669
7782.91 60.9620977671762
7896.12 61.01434075131169
8010.97 61.06183818526385
8127.49 61.057094709577996
8245.71 60.95026334102511
8365.65 60.867415780023336
8487.33 60.88188937011023
8610.78 60.89218080525016
8736.03 60.50711781641685
8863.09 60.02170555925234
8992.01 59.62309625175553
9122.8 59.3673804075184
9255.5 59.33958379334945
9390.12 59.409667305496484
9526.7 59.36381515813618
9665.27 59.168921966034574
9805.86 58.890941649556936
9948.49 58.620280501698545
10093.2 58.491236091716104
10240.0 58.56068679323138
10388.9 58.71828268889091
10540.1 58.840233852002754
10693.4 58.900471505358155
10848.9 58.906381986208956
11006.7 58.867617774115985
11166.8 58.80769687665908
11329.2 58.681307143594964
11494.0 58.50576089445033
11661.2 58.40650607607125
11830.8 58.48943411883933
12002.9 58.696618999442194
12177.5 58.827234339589836
12354.6 58.724484374848316
12534.3 58.422220727618935
12716.6 58.112439233582876
12901.6 57.98899713491225
13089.2 57.95528825672922
13279.6 57.921356589504455
13472.8 57.8364158666361
13668.8 57.667557443360124
13867.6 57.404430920869444
14069.3 57.047676359491575
14273.9 56.7002516745097
14481.5 56.59388013361237
14692.2 56.675838950550215
14905.9 56.6036295463923
15122.7 56.21211273617628
15342.7 55.75953806028055
15565.8 55.567414226412666
15792.2 55.607124665274114
16021.9 55.62862161927872
16255.0 55.52438899120355
16491.4 55.33722004370968
16731.3 55.120099251594525
16974.7 54.94963921705606
17221.6 54.67377417903013
17472.1 54.43049381023482
17726.2 54.08507511371428
17984.0 53.647950679973746
18245.6 53.42877832201742
18511.0 53.44619522966494
18780.2 53.47342487947114
19053.4 53.312799448024194
19330.5 53.142467689752266
19611.7 53.212376773457535
19897.0 53.33986387011852
