Freq "Floor Bounce"
20.0 43.20802017311817
20.2909 43.89652869213768
20.586 44.556039355391306
20.8855 45.144242734298075
21.1893 45.630128859162056
21.4975 46.07769748246085
21.8102 46.54796022890142
22.1274 47.08952210673459
22.4492 47.72440601120104
22.7758 48.43390702095499
23.1071 49.165279317701106
23.4432 49.85465166825833
23.7841 50.460639313795696
24.1301 50.989433889538304
24.4811 51.471538725573396
24.8372 51.94995486521728
25.1984 52.46188964458011
25.5649 53.0251407296696
25.9368 53.629020173118164
26.3141 54.25054887848961
26.6968 54.86508755959272
27.0851 55.456268213371516
27.4791 56.0228274907206
27.8788 56.57414322743142
28.2843 57.12445859842214
28.6957 57.68588987759604
29.1131 58.26232391338729
29.5365 58.84617665384627
29.9661 59.430356821427324
30.402 60.00631237211644
30.8442 60.57000411361639
31.2929 61.12733123503436
31.748 61.68133781511287
32.2098 62.23065869960716
32.6783 62.77134454141044
33.1536 63.29965869960715
33.6359 63.817922336914904
34.1251 64.33413614879198
34.6215 64.85571539380032
35.125 65.38319663098657
35.6359 65.91563732278284
36.1543 66.44280819849205
36.6802 66.95957540575971
37.2137 67.46366696072823
37.755 67.96412439235694
38.3041 68.46563460447723
38.8613 68.96878964315594
39.4265 69.46663058740621
40.0 69.95847404346098
40.5818 70.44468079649587
41.1721 70.9185666813681
41.771 71.36545397938447
42.3785 71.77201307484832
42.9949 72.15392669036862
43.6203 72.53751193631442
44.2548 72.93873337521808
44.8985 73.34967628888027
45.5515 73.75262112406003
46.2141 74.14652696165608
46.8863 74.53112003669364
47.5683 74.90935834548442
48.2602 75.28423882921093
48.9621 75.65776493472198
49.6743 76.01993731743951
50.3968 76.3641119749823
51.1299 76.69225128737868
51.8736 77.0120710043787
52.6281 77.32057063832988
53.3936 77.61307048603483
54.1702 77.8906084663918
54.9581 78.15118093917141
55.7575 78.39275655371102
56.5685 78.61272245025062
57.3914 78.8126563430437
58.2261 78.98659249235436
59.073 79.13588426526539
59.9323 79.2788194245847
60.804 79.42604381246599
61.6884 79.56659010350108
62.5857 79.69813891390984
63.496 79.82465934578033
64.4196 79.93018443838051
65.3566 80.00668313987063
66.3073 80.06653914229392
67.2717 80.0990473800199
68.2502 80.11458846696881
69.2429 80.13615768739817
70.2501 80.16507632932272
71.2719 80.18966805668694
72.3086 80.20826129321887
73.3603 80.20850730583281
74.4274 80.17875702189295
75.5099 80.13063257518726
76.6083 80.06918485331957
77.7226 80.0107395456789
78.8531 79.97866922881205
80.0 79.96225176574049
81.1636 79.94951118715808
82.3442 79.94110113506456
83.5419 79.92902290840689
84.757 79.90125034246203
85.9899 79.87215155164711
87.2406 79.84206872182834
88.5096 79.80998550843313
89.797 79.76357876392795
91.1031 79.69781094069427
92.4282 79.59106718901934
93.7726 79.46496481589219
95.1366 79.37222876209074
96.5204 79.30185962487988
97.9243 79.24549268378262
99.3486 79.2191007941959
100.794 79.20636622572479
102.26 79.20324488694969
103.747 79.19913896459789
105.256 79.19604050223379
106.787 79.18929483252374
108.34 79.15058109441905
109.916 79.07386431561946
111.515 79.02415316885443
113.137 79.02144148683509
114.783 79.03107136322947
116.452 79.04038613631548
118.146 79.05703023271367
119.865 79.08300734772885
121.608 79.11064176382736
123.377 79.14294630043034
125.171 79.17557684305062
126.992 79.19989140470665
128.839 79.2298801772091
130.713 79.24987884759082
132.615 79.24221222434024
134.543 79.23688750591505
136.5 79.24822754920933
138.486 79.25524225369867
140.5 79.26726019334373
142.544 79.27961749619426
144.617 79.22764114762893
146.721 79.20900008772149
148.855 79.28568392270256
151.02 79.36270210412422
153.217 79.35442205831575
155.445 79.2941563274471
157.706 79.24621599354066
160.0 79.1185765907522
162.327 79.08326887188835
164.688 79.12065317498927
167.084 79.26438193525712
169.514 79.3674308480575
171.98 79.04948418425073
174.481 78.90320702149907
177.019 78.91891112195768
179.594 78.9503022403131
182.206 78.96605587657353
184.856 79.02613893243829
187.545 79.16517781936794
190.273 79.35520264886324
193.041 79.5148884743914
195.849 79.57025299810851
198.697 79.61596873353963
201.587 79.69434455041164
204.52 79.62740241472643
207.494 79.48976130653914
210.512 79.3580633465316
213.574 79.33738230611954
216.681 79.30835266669499
219.833 79.19794515063131
223.03 79.12191323914186
226.274 79.01227450341115
229.565 79.00720533829747
232.905 79.08685132818927
236.292 79.13119395803567
239.729 79.21068524076513
243.216 79.3185134793026
246.754 79.35279275330156
250.343 79.38108648890248
253.984 79.47934256520557
257.678 79.50925080762968
261.426 79.46617214666601
265.229 79.4281063411288
269.087 79.03206016636281
273.001 78.94834257455419
276.972 79.0489613853548
281.0 79.06928852871536
285.088 79.08197419665254
289.234 79.09864253582745
293.441 79.21969247987387
297.709 79.25374168448324
302.04 79.27706223183952
306.433 78.97875595614997
310.89 79.07312921490578
315.412 79.15352870268777
320.0 79.0238843587255
324.655 78.71690096329857
329.377 78.75598800022985
334.168 78.78969195518057
339.028 78.82055365406298
343.959 78.92735544092201
348.962 79.04954496746473
354.038 79.15215955230374
359.188 79.3535169639925
364.412 79.37825033406702
369.713 79.3681129670608
375.09 79.5616446617495
380.546 79.70686693797735
386.081 79.7445595559636
391.697 79.79880555220855
397.394 79.95187056797955
403.175 79.83988951513827
409.039 79.77359656713573
414.989 79.76955581211361
421.025 79.78482826409893
427.149 79.73563609978876
433.362 79.7080864555225
439.665 79.7601488510791
446.06 79.59325201572067
452.548 79.5281114806877
459.131 79.37689448397353
465.809 79.3481375333231
472.584 79.18524181161112
479.458 79.0424118357048
486.432 78.93445333431809
493.507 78.7738876531512
500.686 78.62985288601818
507.968 78.51590081879789
515.357 78.4289284414801
522.853 78.36227725067714
530.458 78.33266424463743
538.174 78.34481888745702
546.002 78.39840161199729
553.943 78.488064581596
562.001 78.61553283736255
570.175 78.77351239174416
578.469 78.96048770789008
586.883 79.1538595846491
595.419 79.35328325059922
604.08 79.54791534624565
612.866 79.73398159140854
621.78 79.90017317478991
630.824 80.04480638375321
640.0 80.15450601481751
649.309 80.2316275415029
658.753 80.27015874782951
668.335 80.2703809199167
678.056 80.2290102947926
687.919 80.14563188790642
697.925 80.01951721084409
708.077 79.85930054859179
718.376 79.66516920710082
728.825 79.44564678489792
739.426 79.21148727317149
750.181 78.97339215711787
761.093 78.7483759385719
772.163 78.55557998772183
783.394 78.40242922323873
794.789 78.30084491070933
806.349 78.25341243996489
818.078 78.25696140304996
829.977 78.29983745128449
842.05 78.36506480121851
854.298 78.43769557405616
866.724 78.50039782781748
879.33 78.5431829732858
892.12 78.55623321279793
905.097 78.5383674034255
918.262 78.49533217255835
931.618 78.43744522619986
945.169 78.38391189197213
958.917 78.35676311473084
972.864 78.37464653743324
987.015 78.45605150408565
1001.37 78.60317019923099
1015.94 78.81019774522204
1030.71 79.05321889498263
1045.71 79.31257200367841
1060.92 79.5581218372158
1076.35 79.76135930804374
1092.0 79.90732776018925
1107.89 79.98468847388457
1124.0 79.99005385727278
1140.35 79.93200419719048
1156.94 79.82471827340467
1173.77 79.69413681510359
1190.84 79.57339378624836
1208.16 79.49170194813559
1225.73 79.47533282789354
1243.56 79.5277122818313
1261.65 79.63304864705093
1280.0 79.75876855487199
1298.62 79.87114986048303
1317.51 79.93829051877506
1336.67 79.93277932012137
1356.11 79.85203327756662
1375.84 79.70530279945751
1395.85 79.5203541972106
1416.15 79.33948823037889
1436.75 79.20596303041042
1457.65 79.1498310590839
1478.85 79.17194280593483
1500.36 79.24076500158425
1522.19 79.30547321362317
1544.33 79.31916431091807
1566.79 79.24554308299352
1589.58 79.07505234850498
1612.7 78.83162451160169
1636.16 78.56223551400869
1659.95 78.32881774615828
1684.1 78.18473571164802
1708.6 78.13643872480237
1733.45 78.14347203816223
1758.66 78.12977786361375
1784.24 78.03058655381643
1810.19 77.80310033352973
1836.52 77.4459776891688
1863.24 77.00301148312454
1890.34 76.54906181491629
1917.83 76.15781281538044
1945.73 75.8591159140837
1974.03 75.61528470596424
2002.74 75.35284483482197
2031.87 75.0272055792602
2061.43 74.65175508892115
2091.41 74.30323884526585
2121.83 74.08080439694044
2152.69 74.02343129407646
2184.01 74.06678543427051
2215.77 74.107080442031
2248.0 74.07633369576912
2280.7 73.9912992686041
2313.87 73.9230257870241
2347.53 73.93921817678886
2381.68 74.03601612891207
2416.32 74.1397329189119
2451.46 74.17887450219989
2487.12 74.13218037274792
2523.3 74.03024162348265
2560.0 73.92705151561566
2597.24 73.84513707645904
2635.01 73.77089399491189
2673.34 73.67782182343322
2712.23 73.54445928547781
2751.68 73.37916382460676
2791.7 73.19131149838549
2832.31 72.99691037053344
2873.5 72.82177622714211
2915.3 72.68989222212576
2957.7 72.62483248962025
3000.72 72.64113568139227
3044.37 72.76164622004924
3088.65 73.02469983146801
3133.58 73.42554923730138
3179.16 73.90606943920773
3225.4 74.41204762430057
3272.31 74.91790714722339
3319.91 75.40716363106112
3368.2 75.83419894591455
3417.19 76.17177188093268
3466.89 76.44972172828503
3517.32 76.70484325962346
3568.48 76.91608750484241
3620.39 77.05223397796046
3673.05 77.17021910673363
3726.47 77.36071523659007
3780.67 77.5811064982987
3835.67 77.71284590523209
3891.46 77.78258683736703
3948.06 77.9310091545872
4005.49 78.12287185541322
4063.75 78.16924496257225
4122.86 78.08986122938875
4182.82 78.09296689845578
4243.66 78.14340428707754
4305.39 78.04476659094546
4368.01 77.91055189787599
4431.55 77.93727747829193
4496.01 77.90789726128342
4561.4 77.69180780386006
4627.75 77.6013641848414
4695.06 77.64484919350222
4763.35 77.50038516658037
4832.64 77.37698045105819
4902.93 77.48596007759684
4974.24 77.48662088689382
5046.6 77.45409171781697
5120.0 77.62662197680213
5194.47 77.63919906019783
5270.03 77.54346049764348
5346.68 77.6873652890907
5424.45 77.75855527691432
5503.35 77.8002194321561
5583.4 78.07036050757966
5664.61 78.25394979683816
5747.01 78.44736368216391
5830.6 78.74834891354723
5915.41 78.8578153782548
6001.45 78.9126165600639
6088.74 78.90972655984397
6177.3 78.70867840584324
6267.15 78.52860943123592
6358.31 78.32254925789441
6450.8 78.15721704804785
6544.62 78.1118495713973
6639.82 77.99172300078003
6736.4 77.9936256586795
6834.38 77.93528222035889
6933.79 77.84407593372482
7034.64 77.79769202409958
7136.96 77.67149893106523
7240.77 77.55241894891009
7346.09 77.47273128569266
7452.94 77.57159063418922
7561.35 77.57743254911983
7671.33 77.81488356171968
7782.91 77.99661600461127
7896.12 78.16616958515789
8010.97 78.28338598868243
8127.49 78.40835428056961
8245.71 78.38705613680892
8365.65 78.34869507656538
8487.33 78.17636724701765
8610.78 77.90252169150078
8736.03 77.49949017138849
8863.09 76.9745375096636
8992.01 76.61920997322635
9122.8 76.46743970970923
9255.5 76.52071415301998
9390.12 76.70027218878377
9526.7 76.85934042945358
9665.27 76.85557387158056
9805.86 76.75636531788285
9948.49 76.67864308275509
10093.2 76.77708036096567
10240.0 76.99080448444799
10388.9 77.18117128381867
10540.1 77.09698158324622
10693.4 76.95450023103697
10848.9 76.71232536722039
11006.7 76.45750444001575
11166.8 76.19793948547769
11329.2 75.87792351553622
11494.0 75.52811998047423
11661.2 75.38846451698564
11830.8 75.63425266925611
12002.9 76.14729761848648
12177.5 76.58890627141264
12354.6 76.77329780476312
12534.3 76.729800668088
12716.6 76.75286925535408
12901.6 76.88340201320149
13089.2 77.14932901809779
13279.6 77.40482221614738
13472.8 77.6796306427122
13668.8 77.80042419596042
13867.6 77.60279645546787
14069.3 77.07654069964227
14273.9 76.4062417217927
14481.5 76.14016557602696
14692.2 76.26126235669054
14905.9 76.33755050768674
15122.7 76.17798163738414
15342.7 75.78425600118999
15565.8 75.31932067799706
15792.2 74.82899840385792
16021.9 74.02518836783854
16255.0 73.1730563734366
16491.4 74.16447112196192
16731.3 74.70613965369806
16974.7 74.17982529337357
17221.6 73.64497965220106
17472.1 72.99317207445047
17726.2 71.94892963172639
17984.0 70.67951528394832
18245.6 69.57178843803547
18511.0 68.88756530466308
18780.2 68.32711449979962
19053.4 67.65840460994012
19330.5 67.00238754590193
19611.7 66.69962036569476
19897.0 66.76196990486068
