Freq "Listening Window"
20.5078 56.101791114603486
23.4375 57.099377090567856
26.3672 58.71701988663756
29.2969 59.77110664131075
32.2266 60.676716626354136
35.1563 61.249483196483
38.0859 61.85887214942451
41.0156 61.89845368391076
43.9453 63.250757069600496
46.875 65.99688928094182
49.8047 69.80606687308588
52.7344 73.28114783499227
55.6641 76.23095531853505
58.5938 78.62056313593808
61.5234 80.29377059213135
64.4531 81.45522037825515
67.3828 82.25252744432443
70.3125 82.68062103898363
73.2422 82.99757585874384
76.1719 83.35888635465807
79.1016 83.54955630757526
82.0313 83.66883551545071
84.9609 83.79707915644052
87.8906 83.83499134033775
90.8203 83.78135089950366
93.75 84.08490637093738
96.6797 84.15448067836219
102.539 83.94333241318867
105.469 83.92718532788157
108.398 83.94096024903473
111.328 83.90074063027055
117.188 83.82519238354749
120.117 83.81893672707288
125.977 83.44060058093793
128.906 83.16973099361472
134.766 82.8722763240827
137.695 82.79139381160599
143.555 82.64038080053174
149.414 82.48696404251021
155.273 82.51902189475521
158.203 82.579465689987
164.063 82.63186529598063
169.922 82.24964945429174
175.781 82.1777177433022
181.641 82.4310773642857
190.43 82.58718068716183
196.289 82.77001323131728
202.148 82.94544974396818
210.938 83.18953758176565
216.797 83.34611681138033
225.586 83.88928121597837
234.375 84.43624157751299
240.234 84.49731465581581
249.023 84.94372508219332
257.813 85.27178829880232
266.602 85.0903092994278
278.32 85.20132675626851
287.109 85.25724205036377
295.898 85.49305718024704
307.617 84.79875708441887
319.336 84.47716729222688
331.055 84.42328667194755
342.773 84.10981335507908
354.492 84.59866467011484
366.211 84.7779345947616
377.93 84.92210955235623
392.578 84.22115563036797
407.227 84.07454438609503
421.875 84.14643506317272
436.523 84.93612837979083
451.172 85.93345762339612
465.82 85.48211692386872
483.398 86.6924378548894
500.977 86.09590387752844
518.555 85.52391591716906
536.133 85.67499714299628
553.711 85.90961494819395
574.219 85.09550607257893
594.727 85.52428378229719
615.234 86.16517775790533
638.672 86.30771007467496
659.18 85.91118987613518
682.617 86.67775125977171
706.055 86.49327692071434
732.422 85.88551684132912
758.789 86.84023629556162
785.156 85.80405427615302
811.523 85.32584430736023
840.82 84.92147522976698
870.117 85.73550039988645
902.344 85.37470473919166
931.641 85.77474469643121
966.797 84.88695940249062
999.023 84.57899362464953
1034.18 84.28669887231933
1072.27 83.66299133997086
1110.35 83.01050126702003
1148.44 83.46031347782186
1189.45 84.08338150047112
1230.47 84.46728536781578
1274.41 84.04537861468853
1318.36 84.00808923602536
1365.23 84.26606576931353
1415.04 84.53327027934102
1464.84 84.87685480418865
1514.65 85.38805867770121
1570.31 85.73433576824354
1623.05 85.42320142934518
1681.64 85.28169774695198
1740.23 85.54336109727177
1801.76 85.9496645569364
1866.21 85.24979273281231
1930.66 84.7852120560515
2000.98 84.89664581392887
2071.29 85.94301968377735
2144.53 85.6681727205452
2217.77 84.72373297494374
2296.88 85.68212320702541
2378.91 86.08172271511924
2460.94 85.1184337054473
2548.83 84.95562565224868
2639.65 84.79238291731126
2733.4 84.38941478056773
2827.15 84.77135047336509
2926.76 84.62253993310146
3032.23 84.43050179305158
3137.7 84.7019048837947
3249.02 84.34756279116479
3363.28 83.65535457990416
3483.4 83.84564904815615
3606.45 83.86768091090633
3732.42 83.3924998996143
3864.26 83.3810870211351
3999.02 83.3521950957003
4139.65 83.33124805679635
4286.13 83.56550458556181
4438.48 82.55510193742352
4593.75 82.2661064903998
4757.81 81.78814058579817
4924.8 82.46093651971103
5097.66 83.19193690580047
5279.3 83.11542787947634
5463.87 83.39100028677007
5657.23 82.98581455945697
5856.45 83.261368246613
6061.52 83.97340851960276
6275.39 83.96683231042961
6498.05 83.84438510039428
6726.56 84.16032843072321
6963.87 83.48759711625993
7209.96 83.11783227641881
7464.84 83.02047394687537
7728.52 82.8967742301381
8000.98 82.95045928623446
8282.23 83.02705778089644
8575.2 82.40022096994252
8876.95 82.1934386356482
9190.43 82.76387419045366
9512.7 83.54186344264511
9849.61 84.12770122522932
10195.3 85.72919598294772
10555.7 87.29227153284484
10927.7 87.44925535962903
11314.5 87.57938347683896
11712.9 87.348212410587
12126.0 87.49741776455875
12553.7 87.64277225484993
12996.1 87.69366236440749
13453.1 87.55810065934054
13927.7 87.17508095453549
14419.9 87.51257207323162
14929.7 87.3846201029275
15454.1 87.05292892395147
15999.0 86.08396405742486
16564.5 84.3651317418277
17147.5 83.3330104225347
17753.9 83.49791315533163
18377.9 82.67589146242865
19028.3 81.91249423727453
19699.2 80.88460301042494
19998.0 80.21698294773789
