Freq,On Axis,Listening Window,Sound Power,Early Reflections,Early Reflections DI,Sound Power DI,DI offset
20.5078,60.38140000000001,60.43718865795975,61.92596760164244,60.88557509226743,49.55161356569232,48.51122105631731,50
21.9727,62.77770000000001,62.822747445841145,64.0849072574926,63.19063129800233,49.632116147838815,48.73784018834854,50
23.4375,65.0332,65.07023807867347,66.14942810697576,65.36765828662229,49.70257979205118,48.92080997169771,50
24.9023,66.91229999999999,66.93907896149614,67.7872724344721,67.14429377825618,49.79478518323995,49.151806527024036,50
26.3672,68.70320000000001,68.7216089327776,69.38295754290692,68.84679702809348,49.87481190468412,49.33865138987068,50
27.832,70.49350000000001,70.50352059228607,70.98466122146485,70.55996996184939,49.943550630436675,49.51885937082122,50
29.2969,71.9066,71.9099961845427,72.24973799206883,71.90995431933325,50.000041865209454,49.660258192473876,50
30.7617,73.0877,73.08566673139892,73.31807689443329,73.04208384611327,50.043582885285645,49.76758983696563,50
32.2266,74.2794,74.27255291517112,74.3939037848303,74.18498334807082,50.0875695671003,49.87864913034082,50
33.6914,75.34870000000001,75.33823172311129,75.37942489684418,75.22058199706265,50.11764972604864,49.95880682626711,50
35.1562,76.27519999999998,76.26176632451109,76.23619841859238,76.11961702354894,50.142149300962146,50.025567905918706,50
36.6211,77.1139,77.09854591382826,77.03876952492195,76.94848355370873,50.150062360119534,50.059776388906315,50
38.0859,77.8923,77.87310508441206,77.72870780197103,77.6876495361498,50.185455548262254,50.144397282441034,50
39.5508,78.7216,78.69339869876603,78.37089089658014,78.42537948206832,50.26801921669771,50.322507802185896,50
41.0156,79.3685,79.34153054450928,79.01108015381531,79.07242682413396,50.26910372037533,50.33045039069397,50
42.4805,79.9893,79.9597556996078,79.6095789990229,79.68567036630311,50.27408533330468,50.350176700584896,50
43.9453,80.6795,80.64517117075465,80.18007712681715,80.32050592080058,50.324665249954066,50.4650940439375,50
45.4102,81.3376,81.299771136769,80.72846317748849,80.9279329471244,50.37183818964459,50.5713079592805,50
46.875,81.8713,81.83577235840914,81.31282565007203,81.488122109989,50.34765024842014,50.522946708337116,50
48.3398,82.2971,82.26494805719568,81.84497582350605,81.96298999852135,50.30195805867433,50.419972233689634,50
51.2695,83.4279,83.39106131651727,82.91228073935036,83.06689750763756,50.3241638088797,50.4787805771669,50
52.7344,84.0079,83.96767740293511,83.43091250300472,83.61761305644613,50.35006434648898,50.53676489993039,50
54.1992,84.5053,84.46351291890963,83.8782524740642,84.09257058628602,50.37094233262361,50.58526044484543,50
55.6641,84.93370000000002,84.89415226287477,84.37504735168373,84.55405378733316,50.34009847554161,50.519104911191036,50
58.5938,85.9632,85.91737418724864,85.32599014998462,85.54410288732589,50.37327129992275,50.59138403726402,50
60.0586,86.4594,86.4109856494646,85.77884193684571,86.01796158140357,50.39302406806104,50.6321437126189,50
62.9883,87.36449999999999,87.31135593694248,86.61167301065058,86.88529607002626,50.42605986691622,50.6996829262919,50
64.4531,87.86930000000001,87.8133334694491,87.06365154759557,87.36674364070757,50.44658982874154,50.749681921853536,50
67.3828,88.6898,88.63123018157688,87.73501215552588,88.1269318587958,50.50429832278108,50.896218026051,50
68.8477,89.0632,89.0090218867018,88.21676387124066,88.55075105538558,50.45827083131623,50.792258015461144,50
71.7773,89.7957,89.73815489783986,88.96697248852318,89.2849698559437,50.45318504189616,50.77118240931668,50
74.707,90.4986,90.43717261751618,89.6008154381773,89.95367204758855,50.48350056992763,50.836357179338876,50
77.6367,90.94820000000001,90.88620397543984,90.07597682800478,90.4156019546084,50.470602020831436,50.81022714743506,50
79.1016,91.13,91.06682853373212,90.26998062011714,90.60200109116823,50.46482744256389,50.79684791361498,50
82.0312,91.4754,91.4078702670874,90.5946875248143,90.93287953758342,50.474990729503986,50.8131827422731,50
84.9609,91.793,91.716651697164,90.78308268149081,91.18331507962307,50.533336617540925,50.933569015673186,50
87.8906,91.8967,91.815837286583,90.92717743953855,91.29911283851428,50.51672444806873,50.88865984704445,50
90.8203,92.3614,92.26999613452979,91.25961830242734,91.69796265074584,50.572033483783954,51.01037783210245,50
95.2148,92.8527,92.75595254745647,91.57263171619934,92.10867423071014,50.64727831674634,51.183320831257134,50
98.1445,92.7626,92.66246056602,91.44864171320279,91.99921052954302,50.66325003647698,51.21381885281721,50
101.074,92.6279,92.5205026042498,91.20556718079737,91.80912870502993,50.711373899219865,51.314935423452425,50
105.469,92.46280000000002,92.34636651699692,90.76563587688632,91.52223508797555,50.82413142902138,51.5807306401106,50
108.398,92.32490000000001,92.21401601490894,90.71873397588215,91.43161223165043,50.7824037832585,51.49528203902679,50
112.793,91.8292,91.71449723208946,90.36714501071086,90.98206917665932,50.732428055430134,51.3473522213786,50
117.188,91.2551,91.12173768076497,89.58001921182677,90.27866982369444,50.84306785707052,51.5417184689382,50
120.117,91.5518,91.41069608041141,89.60213408557021,90.45683044795054,50.953865632460875,51.8085619948412,50
124.512,91.6895,91.5499126124042,89.8544156201256,90.65079025805055,50.89912235435365,51.695496992278606,50
128.906,91.5397,91.3893521749068,89.58751553469729,90.44039625537121,50.94895591953559,51.801836640209515,50
133.301,91.43189999999998,91.27532183293016,89.06032300186203,90.16808706615797,51.107234766772194,52.21499883106813,50
139.16,90.7824,90.6407363209369,88.59376964282646,89.61467240527374,51.02606391566316,52.04696667811044,50
143.555,90.2275,90.05517894615328,87.87469833550776,88.93555236088383,51.119626585269444,52.18048061064552,50
147.949,90.8152,90.63105967826961,88.02884278544092,89.33595512481193,51.295104553457676,52.60221689282869,50
153.809,90.648,90.47598591538437,88.04146743766644,89.27825796379523,51.197727951589144,52.43451847771793,50
159.668,89.9859,89.80352769058752,87.11665042385303,88.51516337832207,51.28836431226544,52.686877266734484,50
165.527,89.88130000000001,89.666957737233,86.84300145386246,88.2937115216014,51.37324621563161,52.82395628337055,50
171.387,90.6505,90.43907131545286,87.14328820302495,88.89206012940964,51.54701118604322,53.29578311242791,50
177.246,91.09479999999999,90.89161589986722,87.75757960866795,89.42227274495872,51.4693431549085,53.134036291199266,50
183.105,91.1531,90.96287836426544,87.92229033210238,89.53859025377827,51.42428811048717,53.04058803216306,50
188.965,91.5594,91.34522051594539,88.22560282133796,89.85614150797713,51.48907900796826,53.11961769460743,50
196.289,92.567,92.35535470506343,89.01276824696183,90.80703483823567,51.54831986682777,53.34258645810161,50
203.613,92.00899999999999,91.78942969488169,88.6176446622689,90.30064248025367,51.48878721462802,53.17178503261279,50
210.938,93.2444,92.9954317509031,89.23642214579814,91.26417805036442,51.73125370053867,53.75900960510495,50
218.262,93.8819,93.68803661349065,90.0378164662508,92.05337339855913,51.63466321493152,53.65022014723985,50
225.586,93.3634,93.1469237090897,90.13386350645635,91.68418550161284,51.46273820747686,53.013060202633355,50
232.91,93.46970000000002,93.21989125478618,89.815524568786,91.60129825140045,51.618593003385726,53.404366686000174,50
241.699,94.3483,94.10354572705533,90.15252379289116,92.30979727424324,51.793748452812096,53.951021934164174,50
250.488,92.9424,92.70705446140906,89.07839077950612,91.04148546237491,51.66556899903415,53.628663681902935,50
259.277,93.9903,93.6794256499021,89.47571700939625,91.7635926326571,51.915833017245006,54.20370864050585,50
268.066,95.1436,94.91325766296322,90.7082368825521,93.05699429107239,51.85626337189083,54.20502078041112,50
276.855,93.0798,92.8137712446887,89.24566264787059,91.21861695779903,51.59515428688967,53.56810859681811,50
287.109,93.4011,93.12999333428658,89.11570631290664,91.3363197770405,51.79367355724608,54.01428702137994,50
297.363,94.36349999999999,94.11860712402392,89.60042014688433,92.10719657035304,52.011410553670885,54.51818697713959,50
307.617,94.4571,94.1939880399205,89.80487569012301,92.13090863776266,52.06307940215784,54.389112349797486,50
319.336,94.3249,94.0996771565294,89.79393633996241,92.14058324549273,51.95909391103666,54.30574081656698,50
329.59,93.7357,93.49580447681848,89.61977468079576,91.6989762197237,51.796828257094774,53.87602979602272,50
341.309,94.72969999999998,94.40150512571316,89.61295377700588,92.2009437278538,52.20056139785936,54.78855134870727,50
353.027,94.2909,94.0068106651253,89.54414873718036,91.99759568270895,52.00921498241635,54.462661927944936,50
366.211,94.8154,94.55066071726236,89.86036681463995,92.48600476787843,52.06465594938393,54.690293902622415,50
379.395,94.1261,93.87708034639222,89.51194802188834,91.91561243336457,51.96146791302765,54.365132324503875,50
392.578,94.4064,94.07473063514735,89.46179431532889,91.93077937997784,52.14395125516951,54.61293631981846,50
405.762,95.1675,94.81383044959478,90.07332954550613,92.65733156815206,52.156498881442715,54.74050090408865,50
420.41,94.8493,94.40260558091451,89.13808769275849,91.85737761052539,52.54522797038912,55.26451788815602,50
435.059,94.56359999999998,94.13828986372947,89.39285019350265,91.93022369157381,52.208066172155654,54.745439670226816,50
451.172,95.03999999999999,94.58766812047588,89.2691494749396,91.95274473382375,52.63492338665213,55.31851864553629,50
465.82,95.4553,94.99262946418926,89.5915199110429,92.33902548726807,52.65360397692119,55.40110955314637,50
483.398,95.6795,95.16937052029155,89.76393441116664,92.57865219718599,52.59071832310556,55.405436109124906,50
499.512,94.354,93.86915476488817,88.90161449621155,91.26480549991999,52.60434926496818,54.967540268676615,50
517.09,95.4637,94.85876967624496,89.26223334642859,91.78356838251588,53.07520129372908,55.596536329816374,50
536.133,95.7343,95.10628721990791,89.19964490118083,92.18651427473262,52.919772945175296,55.90664231872708,50
555.176,94.4156,93.97978181408408,89.0123938299387,91.5990699277983,52.38071188628578,54.967387984145375,50
574.219,94.69460000000001,94.08018482841872,88.86462260896003,91.6549375161288,52.425247312289926,55.21556221945869,50
594.727,94.52090000000001,93.94410533631712,88.73374019175485,91.59702857671583,52.34707675960129,55.210365144562275,50
615.234,93.4724,92.90959522899009,88.19304365149267,90.5083087881418,52.40128644084828,54.71655157749741,50
637.207,92.8503,92.27711654869839,88.17406654262994,90.7174288167932,51.559687731905186,54.10305000606844,50
659.18,92.5724,92.1010202749813,87.82602767271611,90.8045840148637,51.29643626011759,54.274992602265186,50
682.617,92.19029999999998,91.79314616166405,87.66977198638689,90.77603266356397,51.01711349810009,54.12337417527716,50
707.52,92.3758,91.94538655550402,87.62795137962085,90.97535726456334,50.97002929094067,54.31743517588316,50
732.422,92.2004,91.84383348710182,87.42550279295412,90.83721224089395,51.00662124620787,54.4183306941477,50
757.324,93.23929999999999,92.96922219560689,87.9672027506948,91.53565510812575,51.43356708748114,55.002019444912094,50
785.156,93.2974,92.88796248308485,87.55640969604727,91.27163636516906,51.61632611791579,55.33155278703758,50
811.523,94.55019999999999,94.0969604135177,88.07115873611085,91.81579223644441,52.2811681770733,56.02580167740686,50
840.82,94.93969999999999,94.4777518352275,88.09970223326535,92.0037685659377,52.47398326928979,56.37804960196215,50
870.117,95.3978,94.94290204147389,88.32214513000878,92.2622774978023,52.680624543671584,56.62075691146511,50
900.879,95.5729,95.11592793050987,88.50838270962643,92.49140711194173,52.62452081856814,56.60754522088344,50
933.105,95.2116,94.74477947516476,88.10794757095346,91.96108685896243,52.78369261620233,56.636831904211306,50
965.332,95.2911,94.90344480694382,88.26812800952659,92.08578712105178,52.817657685892044,56.63531679741723,50
1000.49,95.50630000000001,94.91836797378183,88.15169372357634,91.6985192214514,53.21984875233042,56.76667425020548,50
1035.64,95.5518,95.09119904660253,88.49606389037001,91.86974278084068,53.221456265761844,56.595135156232516,50
1072.27,96.3864,95.7820905540003,89.15532727708941,92.42032296790332,53.36176758609699,56.62676327691089,50
1108.89,96.46440000000001,95.92360056776924,89.34272456546204,92.60317800028899,53.32042256748025,56.58087600230721,50
1148.44,95.848,95.39238663412172,89.15567512162553,92.16016072384093,53.23222591028079,56.236711512496186,50
1189.45,95.1893,94.82587716941892,88.28321983499956,91.3603664098069,53.465510759612016,56.54265733441936,50
1230.47,95.09310000000002,94.50992408429464,87.47464630424884,90.6718241266318,53.838099957662834,57.0352777800458,50
1274.41,94.475,93.78566456199123,86.22056606720872,89.59360704281366,54.19205751917757,57.565098494782504,50
1319.82,94.55869999999999,93.53719673985516,85.17526624241901,88.72480358890697,54.812393150948196,58.36193049743615,50
1366.7,94.7086,93.45269893452443,84.54758159298405,88.34065174249844,55.112047192026,58.90511734154039,50
1413.57,94.4749,93.14784162840473,84.41827354933213,88.11905463025496,55.02878699814977,58.72956807907261,50
1463.38,93.4544,92.52705988985724,84.45048691216219,87.85464103314683,54.67241885671041,58.07657297769505,50
1516.11,92.6036,91.95112300807521,84.1986804269004,87.50362072491143,54.447502283163786,57.75244258117482,50
1568.85,92.3528,91.80091276767789,83.99032044755533,87.42012047233281,54.380792295345074,57.81059232012255,50
1624.51,92.8347,92.2197635202848,84.39445257555232,88.0100658132259,54.20969770705889,57.82531094473248,50
1681.64,94.0916,93.03267525942222,84.92782261609395,88.73680897576077,54.295866283661454,58.10485264332827,50
1741.7,94.2071,93.29928561148162,85.20257953567531,89.11686195418397,54.18242365729765,58.09670607580631,50
1803.22,93.9357,93.10365340038756,85.3546418264804,89.38411629958438,53.71953710080318,57.749011573907154,50
1866.21,94.27169999999998,93.23411583117078,85.64450865574977,89.50273353707293,53.731382294097855,57.58960717542101,50
1932.13,94.2454,93.15371578297251,85.49051431308985,89.54356219799456,53.61015358497795,57.663201469882665,50
1999.51,93.9663,93.07863093738801,85.48570661810692,89.44628866307875,53.632342274309266,57.592924319281096,50
2069.82,93.08510000000001,92.57968269600374,85.88687672042673,89.25424767275864,53.325435023245106,56.692805975577016,50
2143.07,93.6026,92.82391334277655,85.03244099154689,89.08934281835947,53.73457052441708,57.79147235122966,50
2219.24,93.265,92.44200457810868,84.55680389937399,88.6930829100025,53.74892166810618,57.88520067873469,50
2296.88,92.1885,91.48090276594102,83.76776077267009,87.96926894023889,53.511633825702134,57.71314199327094,50
2378.91,92.5235,91.5645907477811,83.5685595133482,87.63258311291769,53.93200763486341,57.99603123443289,50
2462.4,92.45089999999999,91.57059751208513,83.37168787190656,87.51486266693811,54.055734845147015,58.19890964017857,50
2548.83,91.6085,90.64519495153257,82.60706013462578,86.72730130942482,53.91789364210776,58.03813481690679,50
2639.65,91.4802,90.35715653689729,82.18840950820194,86.31361913151241,54.04353740538488,58.16874702869535,50
2731.93,91.3331,90.17090660966593,81.64570416236754,85.88389769292739,54.28700891673854,58.5252024472984,50
2828.61,90.05429999999998,89.01414519959862,80.45910316740226,84.71039711810461,54.30374808149401,58.555042032196354,50
2928.22,89.5041,88.37253265050785,79.68734998089279,84.07042816158662,54.30210448892123,58.68518266961506,50
3030.76,90.50900000000001,89.23154707819756,80.26442555809163,84.67482028876472,54.556726789432844,58.967121520105934,50
3137.7,90.2572,89.17685432241909,80.44655813449754,84.77569978274917,54.40115453966992,58.73029618792155,50
3249.02,90.6015,89.50433774732772,80.87305017522988,85.08619340055986,54.41814434676786,58.63128757209785,50
3363.28,91.0553,90.19386825206249,81.43022807874004,85.57628039167139,54.6175878603911,58.76364017332244,50
3481.93,91.2335,90.50785301475716,81.79485866577839,85.95695746972973,54.55089554502743,58.71299434897877,50
3604.98,91.9577,91.2236265927054,82.29798981828824,86.4910912815153,54.732535311190105,58.92563677441716,50
3732.42,92.5686,91.72684921931865,82.63886134368872,86.98046223077648,54.74638698854217,59.087987875629935,50
3864.26,93.1013,92.15538276895306,82.87811894055682,87.23564700035885,54.91973576859421,59.277263828396244,50
4000.49,93.4414,92.29479375791745,82.9848372841851,87.42904982792969,54.86574392998776,59.30995647373234,50
4141.11,93.2869,92.31966084395421,82.86869049499869,87.21121671958414,55.10844412437007,59.45097034895552,50
4287.6,93.6577,92.45698075510438,83.05210005292729,87.50528054032678,54.9517002147776,59.404880702177095,50
4438.48,93.2623,92.27980406182068,82.76857273100806,87.1417943882539,55.138009673566785,59.51123133081262,50
4595.21,93.3517,92.30929137397666,82.80330359081162,87.22518445558464,55.084106918392024,59.50598778316504,50
4756.35,93.32510000000002,92.2121049089223,82.64398012775288,87.10884758334973,55.10325732557257,59.568124781169416,50
4924.8,92.90709999999999,92.02607800294047,82.40059395561998,86.84233915032448,55.18373885261599,59.625484047320484,50
5097.66,93.1722,92.14038013924926,82.56399581118791,87.0286553134026,55.111724825846665,59.57638432806135,50
5277.83,92.6531,91.80696796282994,82.19679210521932,86.6614413408777,55.14552662195224,59.61017585761063,50
5463.87,92.6943,92.05646360382977,82.30099307389288,86.7694441297062,55.28701947412357,59.755470529936886,50
5657.23,92.3718,91.7746200124503,82.03698336744627,86.61913032550814,55.15548968694216,59.73763664500403,50
5856.45,92.4129,91.93051162747815,82.17125293632014,86.72394886551297,55.20656276196519,59.75925869115801,50
6062.99,92.7706,92.4092207688946,82.6598312300753,87.22478786758181,55.18443290131279,59.7493895388193,50
6276.86,93.2234,92.77548424973668,82.98369015643618,87.56910467871424,55.20637957102244,59.791794093300496,50
6498.05,93.031,92.53907770187172,82.64832634448386,87.25079073175955,55.28828697011217,59.890751357387856,50
6726.56,93.73430000000002,93.09831959116984,83.1615018116482,87.80945295234727,55.28886663882257,59.93681777952165,50
6963.87,94.1939,93.37879443954802,83.35637291962948,88.04044066949032,55.338353770057694,60.02242151991854,50
7209.96,94.4731,93.63647362411297,83.61021946430455,88.25203600823019,55.384437615882774,60.02625415980842,50
7464.84,94.59210000000002,93.76068784508972,83.73455072611937,88.35541254475336,55.405275300336356,60.026137118970354,50
7727.05,94.4207,93.72298810333744,83.72792332047976,88.31788512018463,55.405102983152815,59.99506478285768,50
7999.51,94.1284,93.59211345959704,83.6112970053923,88.19668039509173,55.39543306450531,59.98081645420474,50
8282.23,94.1816,93.77538467617637,83.8287997962668,88.3929350334388,55.38244964273757,59.94658487990958,50
8573.73,94.6489,94.32315693023904,84.38039786238063,88.9584826477485,55.36467428249054,59.942759067858404,50
8876.95,95.1779,94.71892480720895,84.74034351478711,89.33046221328789,55.38846259392106,59.978581292421836,50
9188.96,95.5082,94.84361413203737,84.86232861375738,89.45813038941907,55.385483742618305,59.98128551827999,50
9514.16,95.5422,94.89247044750749,84.93524459446887,89.57185944842226,55.32061099908523,59.95722585303862,50
9849.61,95.446,94.71133863254734,84.6918627951904,89.36247059755613,55.34886803499121,60.019475837356936,50
10196.8,94.77790000000002,93.90202692009879,83.83170615975833,88.54112431593425,55.36090260416454,60.070320760340465,50
10555.7,94.3502,93.33483594725207,83.30657097056121,87.95848670683817,55.3763492404139,60.02826497669086,50
10927.7,93.3605,92.45892979153203,82.41283145856787,87.14562799929817,55.31330179223386,60.04609833296416,50
11313.0,93.2099,92.50033364632365,82.47047679265717,87.16133522663657,55.33899841968709,60.02985685366649,50
11712.9,93.3123,92.66917607679733,82.70647511886754,87.28315114168589,55.386024935111436,59.96270095792978,50
12126.0,93.9657,93.47584525817945,83.4922558466169,88.11351996344797,55.36232529473148,59.98358941156255,50
