Freq "Sound Power"
20.5078 61.92596760164244
21.9727 64.0849072574926
23.4375 66.14942810697576
24.9023 67.7872724344721
26.3672 69.38295754290692
27.832 70.98466122146485
29.2969 72.24973799206883
30.7617 73.31807689443329
32.2266 74.3939037848303
33.6914 75.37942489684418
35.1562 76.23619841859238
36.6211 77.03876952492195
38.0859 77.72870780197103
39.5508 78.37089089658014
41.0156 79.01108015381531
42.4805 79.6095789990229
43.9453 80.18007712681715
45.4102 80.72846317748849
46.875 81.31282565007203
48.3398 81.84497582350605
51.2695 82.91228073935036
52.7344 83.43091250300472
54.1992 83.8782524740642
55.6641 84.37504735168373
58.5938 85.32599014998462
60.0586 85.77884193684571
62.9883 86.61167301065058
64.4531 87.06365154759557
67.3828 87.73501215552588
68.8477 88.21676387124066
71.7773 88.96697248852318
74.707 89.6008154381773
77.6367 90.07597682800478
79.1016 90.26998062011714
82.0312 90.5946875248143
84.9609 90.78308268149081
87.8906 90.92717743953855
90.8203 91.25961830242734
95.2148 91.57263171619934
98.1445 91.44864171320279
101.074 91.20556718079737
105.469 90.76563587688632
108.398 90.71873397588215
112.793 90.36714501071086
117.188 89.58001921182677
120.117 89.60213408557021
124.512 89.8544156201256
128.906 89.58751553469729
133.301 89.06032300186203
139.16 88.59376964282646
143.555 87.87469833550776
147.949 88.02884278544092
153.809 88.04146743766644
159.668 87.11665042385303
165.527 86.84300145386246
171.387 87.14328820302495
177.246 87.75757960866795
183.105 87.92229033210238
188.965 88.22560282133796
196.289 89.01276824696183
203.613 88.6176446622689
210.938 89.23642214579814
218.262 90.0378164662508
225.586 90.13386350645635
232.91 89.815524568786
241.699 90.15252379289116
250.488 89.07839077950612
259.277 89.47571700939625
268.066 90.7082368825521
276.855 89.24566264787059
287.109 89.11570631290664
297.363 89.60042014688433
307.617 89.80487569012301
319.336 89.79393633996241
329.59 89.61977468079576
341.309 89.61295377700588
353.027 89.54414873718036
366.211 89.86036681463995
379.395 89.51194802188834
392.578 89.46179431532889
405.762 90.07332954550613
420.41 89.13808769275849
435.059 89.39285019350265
451.172 89.2691494749396
465.82 89.5915199110429
483.398 89.76393441116664
499.512 88.90161449621155
517.09 89.26223334642859
536.133 89.19964490118083
555.176 89.0123938299387
574.219 88.86462260896003
594.727 88.73374019175485
615.234 88.19304365149267
637.207 88.17406654262994
659.18 87.82602767271611
682.617 87.66977198638689
707.52 87.62795137962085
732.422 87.42550279295412
757.324 87.9672027506948
785.156 87.55640969604727
811.523 88.07115873611085
840.82 88.09970223326535
870.117 88.32214513000878
900.879 88.50838270962643
933.105 88.10794757095346
965.332 88.26812800952659
1000.49 88.15169372357634
1035.64 88.49606389037001
1072.27 89.15532727708941
1108.89 89.34272456546204
1148.44 89.15567512162553
1189.45 88.28321983499956
1230.47 87.47464630424884
1274.41 86.22056606720872
1319.82 85.17526624241901
1366.7 84.54758159298405
1413.57 84.41827354933213
1463.38 84.45048691216219
1516.11 84.1986804269004
1568.85 83.99032044755533
1624.51 84.39445257555232
1681.64 84.92782261609395
1741.7 85.20257953567531
1803.22 85.3546418264804
1866.21 85.64450865574977
1932.13 85.49051431308985
1999.51 85.48570661810692
2069.82 85.88687672042673
2143.07 85.03244099154689
2219.24 84.55680389937399
2296.88 83.76776077267009
2378.91 83.5685595133482
2462.4 83.37168787190656
2548.83 82.60706013462578
2639.65 82.18840950820194
2731.93 81.64570416236754
2828.61 80.45910316740226
2928.22 79.68734998089279
3030.76 80.26442555809163
3137.7 80.44655813449754
3249.02 80.87305017522988
3363.28 81.43022807874004
3481.93 81.79485866577839
3604.98 82.29798981828824
3732.42 82.63886134368872
3864.26 82.87811894055682
4000.49 82.9848372841851
4141.11 82.86869049499869
4287.6 83.05210005292729
4438.48 82.76857273100806
4595.21 82.80330359081162
4756.35 82.64398012775288
4924.8 82.40059395561998
5097.66 82.56399581118791
5277.83 82.19679210521932
5463.87 82.30099307389288
5657.23 82.03698336744627
5856.45 82.17125293632014
6062.99 82.6598312300753
6276.86 82.98369015643618
6498.05 82.64832634448386
6726.56 83.1615018116482
6963.87 83.35637291962948
7209.96 83.61021946430455
7464.84 83.73455072611937
7727.05 83.72792332047976
7999.51 83.6112970053923
8282.23 83.8287997962668
8573.73 84.38039786238063
8876.95 84.74034351478711
9188.96 84.86232861375738
9514.16 84.93524459446887
9849.61 84.6918627951904
10196.8 83.83170615975833
10555.7 83.30657097056121
10927.7 82.41283145856787
11313.0 82.47047679265717
11712.9 82.70647511886754
12126.0 83.4922558466169
12553.7 84.73877956954308
12996.1 85.33822107273937
13454.6 84.89470031159108
13929.2 84.43450990709604
14419.9 84.90784067303807
14928.2 84.48281229768604
15455.6 83.65804830039038
16000.5 84.01693452879408
16564.5 83.91218511457714
17148.9 85.97629223326159
17752.4 87.10355603442825
18379.4 84.18329648225493
19026.9 81.18354924068268
19697.8 79.98682755129059
19999.5 75.6099050220117
