Freq "Ceiling Bounce"
22.4 -20.1566305900582
23.0 -19.04005703605162
23.6 -17.77947159673002
24.0 -14.942303485862112
25.0 -12.375880442930509
25.8 -10.141787177826558
26.5 -5.660404161044454
27.2 2.7793921343193517
28.0 8.679230583731623
29.0 13.049915110888179
30.0 16.225604165205596
30.7 17.86846588708957
31.5 19.213338494045047
32.5 20.541713773476744
33.5 22.470942740923448
34.5 23.855396434935273
35.5 24.843189208482613
36.5 30.465183874062888
37.5 36.35478246366992
38.7 41.43926720908112
40.0 41.88734867694623
41.2 42.79743475391666
42.5 44.72298238425813
43.7 46.92036202879498
45.0 49.02865299804162
46.2 51.603780207924245
47.5 54.49406215534948
48.7 59.12115312673919
50.0 62.06431913142691
51.5 62.41162769157327
53.0 62.33325403990314
54.5 62.84566602792776
56.0 63.94566602792777
58.0 65.14566602792777
60.0 66.11156659855845
61.5 67.01234578165327
63.0 68.0472300724482
65.0 69.01542648876087
67.0 69.58028476091597
69.0 70.08028476091596
71.0 70.48412020022802
73.0 70.78412020022803
75.0 71.18412020022802
77.5 71.44872319774281
80.0 71.71234578165327
82.5 72.24566602792777
85.0 72.47798268432905
87.5 72.44413704103394
90.0 72.51156659855846
92.5 72.51080501675341
95.0 72.87798268432906
97.5 72.94413704103393
100.0 73.14413704103394
103.0 73.04413704103395
106.0 73.14413704103394
109.0 73.04413704103395
112.0 73.04413704103395
115.0 72.74413704103395
118.0 72.57798268432906
122.0 72.37798268432906
125.0 71.97798268432905
128.0 71.74566602792777
132.0 71.47798268432906
136.0 71.38028476091597
140.0 71.14872319774281
145.0 71.01542648876088
150.0 71.51857669410931
155.0 71.7472300724482
160.0 71.64872319774283
165.0 71.5510948021016
170.0 71.48948697302961
175.0 71.42004549459317
180.0 71.35941486319649
185.0 71.19638224490097
190.0 71.02982472189561
195.0 70.93388774917393
200.0 71.00480238270936
206.0 71.17193448106548
212.0 71.43818033224527
218.0 71.2431036504703
224.0 70.68684775668964
230.0 70.22619878138185
236.0 69.7391638655111
240.0 69.48663767413363
250.0 69.26610066142347
258.0 69.42619878138186
265.0 69.70480238270937
272.0 69.17618964118269
280.0 68.98684775668963
290.0 68.9819504910592
300.0 68.8719344810655
307.0 68.33957261929422
315.0 67.61052542789018
325.0 66.94966345633189
335.0 66.62134571368921
345.0 67.06610066142346
355.0 68.3391638655111
365.0 69.12619878138186
375.0 69.59349302165091
387.0 69.68195049105918
400.0 70.34310365047031
412.0 71.6818602130588
425.0 72.99314211214052
437.0 73.78708147659673
450.0 74.02298238425814
462.0 74.42298238425813
475.0 74.45941486319647
487.0 74.0761896411827
500.0 74.15941331777401
515.0 73.95363148719497
530.0 73.71979792650359
545.0 72.12573534446149
560.0 70.94044023772945
580.0 70.42273852155871
600.0 70.09045093390476
615.0 69.77896120112113
630.0 69.62242035086726
650.0 69.86481442671563
670.0 69.84990664309939
690.0 69.93916386551109
710.0 69.29475322227277
730.0 68.78046131040048
750.0 68.41918541544828
775.0 67.75820009538023
800.0 67.27386300280577
825.0 66.32663700461372
850.0 65.53674684991523
875.0 64.01857669410931
900.0 63.204828747308994
925.0 62.75176766821042
950.0 62.74460666252402
975.0 65.22527183742959
1000.0 67.77798268432905
1030.0 69.48642444214283
1060.0 71.38688688512306
1090.0 72.41809228295759
1120.0 72.59554195901225
1150.0 73.13392863951394
1180.0 73.86761740476592
1220.0 74.28572839738277
1250.0 74.65245342782092
1280.0 75.12880835847214
1320.0 75.07114778443676
1360.0 75.06959933962492
1400.0 74.02036345096778
1450.0 73.85363148719497
1500.0 74.12113108056582
1550.0 73.67415223369234
1600.0 73.25681640420804
1650.0 73.31064067655704
1700.0 73.4887384529231
1750.0 72.9713048277791
1800.0 72.10533619477292
1850.0 72.27191737608368
1900.0 72.88665472652573
1950.0 72.42714991589197
2000.0 72.42714991589197
2060.0 72.09128358514346
2120.0 72.16796797640875
2180.0 72.89377518304948
2240.0 72.72113108056581
2300.0 72.44804489271642
2360.0 71.48729318767636
2400.0 70.48253325753814
2500.0 70.51156659855847
2580.0 71.28627949003328
2650.0 71.85941486319649
2720.0 72.09205042620823
2800.0 72.29743679603641
2900.0 71.90648049870914
3000.0 71.1257366104071
3070.0 71.61279365733284
3150.0 71.62305132322868
3250.0 71.8710238299017
3350.0 71.48879992361347
3450.0 71.2406177533878
3550.0 70.68263919720005
3650.0 71.74390071777366
3750.0 72.59117171075617
3870.0 72.84144833938672
4000.0 72.27810800763942
4120.0 72.44991138405501
4250.0 72.74715586840607
4370.0 72.37413434577782
4500.0 72.23012659005781
4620.0 71.20809522401665
4750.0 71.17411503731033
4870.0 71.23257426133394
5000.0 71.97810800763943
5150.0 72.46576027829926
5300.0 71.97859254028215
5450.0 71.71927897123396
5600.0 70.80970120813801
5800.0 70.28837600746601
6000.0 70.38575551696476
6150.0 70.44643454563312
6300.0 70.52571016651322
6500.0 70.68555223699127
6700.0 70.46096985523114
6900.0 70.72171653719442
7100.0 70.80688199057028
7300.0 70.22749128764303
7500.0 69.61265069526151
7750.0 70.50146813087154
8000.0 70.90732076102177
8250.0 70.07925687399776
8500.0 69.11539970342402
8750.0 69.63461448906843
9000.0 69.7957618241386
9250.0 68.68177106179296
9500.0 68.58138112485722
9750.0 70.2048676047462
10000.0 70.49192552965302
10300.0 68.24371057412426
10600.0 70.28132435625942
10900.0 70.38968160248825
11200.0 70.37115462382394
11500.0 70.94959614767872
11800.0 70.9096499459209
12200.0 70.20648049870914
12500.0 71.05274195186702
12800.0 71.07115462382394
13200.0 70.69156000419815
13600.0 70.83849230196778
14000.0 71.5709229634035
14500.0 72.10533939372118
15000.0 72.24855301096198
15500.0 71.05882707486933
16000.0 70.00192391973118
16500.0 68.88390549029621
17000.0 67.76019048578313
17500.0 65.76433398389291
18000.0 62.730441102606704
18500.0 59.84658853558352
19000.0 58.09349134037333
19500.0 57.33864484573712
