Freq,Floor Bounce,Ceiling Bounce,Front Wall Bounce,Side Wall Bounce,Rear Wall Bounce,Total Early Reflection
22.4,43.69106613641871,43.52593838761622,43.64227995595961,43.555351356818946,43.207593885487526,43.52769343037336
23.0,45.125938387616216,44.95749995078937,45.08455968057366,44.995630210991706,44.650200492858104,44.96595228966804
23.6,46.557499950789364,46.35749995078935,46.51251921227323,46.39563021099168,46.06084625064484,46.38024930942696
24.0,47.89106613641873,47.75749995078935,47.884559680573645,47.776001097201814,47.41834446803388,47.74886495048243
25.0,49.25749995078935,49.057499950789364,49.21251921227322,49.0956302109917,48.73977178964297,49.07634100603714
25.8,50.52288121780116,50.357499950789375,50.51251921227323,50.37600109720181,50.0183444680339,50.36123426380625
26.5,51.75749995078935,51.589560971526666,51.75641898066705,51.63507635753275,51.2712245306643,51.60555916511289
27.2,53.02288121780116,52.857499950789375,53.01251921227323,52.87507381282764,52.507838894844454,52.859108416905215
28.0,54.222881217801174,54.057499950789364,54.21251921227322,54.05489089269601,53.69706224285416,54.053076778686275
29.0,55.42288121780119,55.25749995078935,55.41251921227321,55.254890892696,54.89706224285415,55.253076778686264
30.0,56.55519787420246,56.38956097152668,56.55508824044111,56.3956302109917,56.039771789642984,56.39107235527099
30.7,57.689560971526674,57.489560971526686,57.68323753649213,57.53507635753276,57.15044311036144,57.51394749247105
31.5,58.78956097152667,58.58956097152668,58.78323753649212,58.63507635753275,58.26084625064482,58.615862932229064
32.5,59.88956097152666,59.722125592799784,59.926755300536186,59.73507635753276,59.360846250644826,59.731423953255074
33.5,60.98956097152667,60.82212559279978,61.02609313366575,60.815625122088676,60.4502004928581,60.82544389377482
34.5,62.05519787420245,61.88956097152666,62.08323753649212,61.91562512208867,61.5183444680339,61.89700351651909
35.5,63.122125592799804,62.92212559279979,63.183237536492115,62.95535135681894,62.56084625064484,62.95410564781987
36.5,64.15519787420247,64.0221255927998,64.22609313366574,64.01562512208868,63.6183444680339,64.01249301905436
37.5,65.18802020662682,65.02212559279978,65.22609313366574,64.99516337080811,64.6183444680339,65.01521594549409
38.7,66.18802020662682,66.02212559279978,66.25443037974686,66.01562512208868,65.61834446803388,66.0252563219175
40.0,67.18802020662683,67.02212559279978,67.25443037974685,67.01562512208866,66.6183444680339,67.02525632191751
41.2,68.18802020662683,68.02212559279978,68.25443037974685,68.01562512208868,67.6183444680339,68.02525632191751
42.5,69.15519787420247,68.95519787420245,69.25443037974685,68.99563021099169,68.5712245306643,68.99255500677452
43.7,70.15519787420246,69.95519787420247,70.25443037974684,69.97600109720182,69.56084625064483,69.98674989300537
45.0,71.15519787420246,70.95519787420245,71.22609313366577,70.97600109720182,70.55044311036143,70.9788505659916
46.2,72.12135223090733,71.95519787420245,72.22609313366576,71.93599091989206,71.51834446803389,71.95802314319242
47.5,73.08802020662682,72.95519787420245,73.19756977508466,72.91562512208868,72.49706224285416,72.93714938933452
48.7,74.02135223090735,73.85519787420246,74.09756977508466,73.83599091989207,73.40759388548753,73.8500270875107
50.0,74.95519787420247,74.75519787420247,75.02609313366575,74.73599091989206,74.30783889484445,74.76317957188087
51.5,75.82135223090735,75.62288121780118,75.89756977508468,75.57600109720181,75.19190698319916,75.62882296828094
53.0,76.65519787420247,76.45519787420247,76.72609313366576,76.41562512208868,75.99706224285417,76.45719880245187
54.5,77.38878178843186,77.15519787420247,77.49756977508466,77.15673270038734,76.71834446803389,77.19147456556456
56.0,78.08802020662682,77.85519787420246,78.19756977508466,77.85673270038734,77.40759388548753,77.88938888114963
58.0,78.75519787420247,78.48956097152667,78.82609313366576,78.45673270038735,78.01834446803389,78.51838236686886
60.0,79.35519787420246,79.08956097152667,79.42609313366574,79.05673270038734,78.59706224285416,79.11459646943372
61.5,79.95519787420247,79.68956097152667,80.02609313366575,79.65673270038734,79.19706224285417,79.71459646943372
63.0,80.45519787420245,80.22288121780117,80.56951352218567,80.15673270038734,79.69706224285416,80.23059480996358
65.0,80.85519787420246,80.62288121780118,81.02609313366575,80.61838102794181,80.12334361765066,80.65968250815486
67.0,81.25519787420245,81.02288121780117,81.36951352218567,80.9778555635899,80.48650499888808,81.0328925610721
69.0,81.55519787420246,81.32288121780117,81.72609313366576,81.29839883023129,80.78650499888809,81.34923619815176
71.0,81.95519787420245,81.65749995078937,82.04061488476636,81.59839883023129,81.10233125657469,81.68318574454874
73.0,82.22288121780117,81.92288121780116,82.34061488476634,81.85903477697424,81.33381179690764,81.94976641007307
75.0,82.45519787420247,82.15749995078936,82.56951352218569,82.07966705245396,81.56023549441795,82.17848404804347
77.5,82.62288121780117,82.32288121780117,82.76951352218568,82.26041494965428,81.72334361765066,82.35456461509355
80.0,82.82288121780118,82.45749995078937,82.9695135221857,82.40116715216153,81.8498308892651,82.51739869680674
82.5,82.92288121780118,82.55749995078936,83.06951352218569,82.48201033292072,81.91822226106359,82.60826581808337
85.0,83.02288121780119,82.65749995078936,83.16951352218568,82.58201033292072,81.97109817838144,82.7002616790986
87.5,83.05749995078938,82.65749995078936,83.21283622478747,82.58201033292072,81.98686308872823,82.72007588343267
90.0,83.05749995078938,82.65749995078936,83.21283622478747,82.56363649155092,81.96047755198127,82.71207243525164
92.5,83.05749995078938,82.65749995078936,83.21283622478747,82.56363649155092,81.8976650473169,82.70156964209438
95.0,83.05749995078938,82.65749995078936,83.21283622478747,82.50669997327311,81.84486498286508,82.68184316925634
97.5,83.02288121780119,82.59264167863428,83.16951352218568,82.42664410079543,81.71394295623543,82.61475249852762
100.0,82.85749995078936,82.42593838761621,83.06951352218569,82.26777788922155,81.56640390244475,82.46819241746213
103.0,82.75749995078937,82.29264167863427,82.9695135221857,82.12020005961655,81.3878365262914,82.33984125071846
106.0,82.62593838761623,82.12593838761622,82.84191967866725,81.93123357992303,81.16254608975048,82.17641913407445
109.0,82.45749995078937,81.96133539010144,82.64191967866726,81.73123357992303,80.90440216129407,81.98132248021182
112.0,82.25749995078935,81.76133539010144,82.51350041586625,81.53265496412938,80.6736613218988,81.79359875119427
115.0,82.05749995078936,81.53052213423905,82.34191967866725,81.27513226095927,80.4009575711731,81.57227750712015
118.0,81.82593838761623,81.26133539010145,82.05672514668377,81.01959878311771,80.05906812779364,81.29926820678085
122.0,81.62593838761622,80.99726068446657,81.85672514668376,80.71959878311772,79.72297047187055,81.04767362852527
125.0,81.32593838761622,80.73052213423905,81.58618551836592,80.4225646945872,79.3617493240655,80.75298212251346
128.0,81.06133539010143,80.43052213423906,81.35672514668377,80.12604675083207,78.98900034510908,80.4684683829514
132.0,80.86133539010144,80.16670216290304,81.15672514668377,79.89120425452283,78.67842346140725,80.23382361345774
136.0,80.66133539010143,79.93663005306989,80.9296816061714,79.61314567143064,78.31773434637068,79.9846242035874
140.0,80.46133539010142,79.73663005306989,80.78618551836591,79.40311766159205,77.99855011311101,79.78090510914666
145.0,80.33052213423905,79.53663005306989,80.62968160617142,79.16512355360851,77.64218614782635,79.58092698505699
150.0,80.13052213423906,79.27359743477439,80.42968160617141,78.9118305549395,77.29023100500797,79.33960473835968
155.0,79.93052213423906,79.07359743477438,80.2296816061714,78.63861796880015,76.92347037887629,79.10590504680098
160.0,79.63052213423906,78.77359743477439,80.02968160617141,78.36352802644883,76.54858359628335,78.82756096090851
165.0,79.43052213423907,78.54425894648156,79.8296816061714,78.11133447329253,76.17245191450446,78.59188795712002
170.0,79.30019757413153,78.34425894648156,79.65932537348306,77.89650620679292,75.84354170179552,78.39962844320955
175.0,79.13052213423907,78.21539552211867,79.55932537348305,77.72224241498662,75.53769268445144,78.24110914355164
180.0,79.03052213423905,78.08201757258276,79.43291516121701,77.56482117842596,75.2641438905964,78.09877698940296
185.0,78.96670216290302,77.98201757258276,79.35932537348306,77.48363750547865,75.03692484561512,78.00526075215909
190.0,79.00019757413153,77.98201757258276,79.37441461376129,77.45974282033846,74.87919075437848,77.99790783044152
195.0,79.03663005306989,78.01539552211868,79.47441461376128,77.4457402331052,74.75500330164144,78.02706929065945
200.0,79.06670216290304,78.0534048310561,79.47441461376128,77.46895409488815,74.59115723494222,78.0312298859207
206.0,79.06670216290304,78.02526008258984,79.47441461376128,77.45529978500696,74.42571068729859,78.00843125167013
212.0,79.03663005306989,77.9534048310561,79.47441461376128,77.3818839340856,74.21905335063194,77.95564798982777
218.0,78.93663005306989,77.8534048310561,79.40443671991757,77.28188393408558,73.92674676935144,77.84827524466763
224.0,78.8366300530699,77.75340483105609,79.30443671991755,77.15215790549239,73.6925030070955,77.73232845927608
230.0,78.80703991176901,77.6534048310561,79.24809628071468,77.10745623154499,73.46334940667816,77.66283107445119
236.0,78.8366300530699,77.72526008258983,79.31971753974236,77.11918144118789,73.34511277802945,77.69887039192716
240.0,79.03663005306989,77.89195815274711,79.51971753974236,77.3191814411879,73.35375404653225,77.87840744319617
250.0,79.30703991176902,78.09195815274713,79.74809628071466,77.51918144118788,73.44460489650913,78.09760452051617
258.0,79.50703991176901,78.29195815274713,80.00443671991756,77.73906846313608,73.50194013468038,78.30805186797957
265.0,79.60703991176901,78.36406294656305,80.11971753974235,77.79001227487801,73.40129461403625,78.38545166056925
272.0,79.54425894648155,78.26406294656304,80.04809628071467,77.766371434753,73.1943720048705,78.31050136177407
280.0,79.40703991176902,78.16406294656304,79.94809628071465,77.61762441456324,72.89518579773386,78.1800059220925
290.0,79.24425894648157,77.90341397125526,79.79367313696676,77.41762441456322,72.56476504346195,77.98407691031586
300.0,79.11539552211867,77.76406294656304,79.72222201519165,77.31762441456324,72.3146597069885,77.86888665535739
307.0,79.11539552211867,77.70341397125526,79.75260583065389,77.24569915134741,72.13927151852144,77.84426768734595
315.0,79.1534048310561,77.67622776663579,79.79367313696676,77.26945248147813,72.01867026669994,77.85978506659323
325.0,79.1534048310561,77.6163790553845,79.86806978581566,77.24569915134741,71.87060222823924,77.86009404639505
335.0,79.12526008258983,77.5163790553845,79.86806978581566,77.19783933545547,71.72939868502867,77.81838462352813
345.0,79.12526008258983,77.45708488315024,79.91448974832595,77.11737021422205,71.55970059123055,77.80030950636093
355.0,79.13662850764739,77.36385286400704,79.9838371466631,77.06984956595248,71.39640177257333,77.79340092755326
365.0,79.13662850764739,77.30505165985049,80.05876138937352,77.07972590536282,71.28267389523087,77.80436277170689
375.0,79.10965007283063,77.17235827739535,80.04290255902201,76.95226059760027,71.0810636923705,77.73788887141176
387.0,79.04949496010515,77.04680936784484,80.00564520286032,76.80620097254865,70.9479717308976,77.65677358998737
400.0,79.14949496010513,77.12169596834296,80.10564520286032,76.82464895704713,70.94304492754864,77.73465734579183
412.0,79.44949496010514,77.42169596834295,80.38959085970504,77.00986615837466,71.23258121597166,78.01024587101435
425.0,79.7762277666358,77.90505165985049,80.63411574666664,77.28317262050936,71.69016102044547,78.33380666778325
437.0,79.8534048310561,78.3163790553845,80.41448974832596,77.25527471009202,71.90005077443513,78.36577503458862
450.0,79.14425894648157,77.77622776663578,79.542902559022,76.41744127332512,70.30956105906084,77.58334396075034
462.0,76.68312283342479,74.53981748440582,77.58126493287645,73.7368943498963,65.88142794666282,75.04737035561412
475.0,74.35477150914512,71.68086335717193,75.58886217180581,71.30799215378867,62.853795517594946,72.72498322086084
487.0,74.57275582159654,71.6522402235654,75.80529251362871,71.41996372315117,62.90960068724776,72.88589809353843
500.0,74.84891906906974,71.831388135896,76.18201058719588,71.6353662518014,63.01211862321124,73.1754124599516
515.0,75.14891906906975,72.05875950224542,76.5679547688866,71.91818679046136,63.204888790738906,73.49504219732628
530.0,76.44891906906975,73.3587595022454,77.85649615937712,73.1903910805987,64.38633585437448,74.78434313927514
545.0,78.52549782248602,75.3587595022454,79.93083095022256,75.1827557960301,66.2546296495045,76.83372584765071
560.0,79.96900933727993,76.75875950224541,81.35913739988958,76.54537669696415,67.4000079373062,78.24878215377137
580.0,80.26900933727994,77.03887800337695,81.71953725510612,76.79999434682738,67.48529658066218,78.5612990812825
600.0,80.16900933727995,76.88751975651762,81.59712012469903,76.57480868729053,67.02773769266035,78.42287431709079
615.0,79.86900933727995,76.55617639099457,81.30321219903728,76.14878899873999,66.41068401320022,78.10029487859309
630.0,79.01308761992554,75.68751975651762,80.43590316805417,75.14878899873999,65.2964169190888,77.21626134507709
650.0,78.06900933727995,74.73673687931527,79.43183238715818,74.01938797709515,63.943059805145325,76.21833747441966
670.0,78.96900933727993,75.59892697394393,80.26506303111698,74.68179069860196,64.40633011569084,77.05191427327235
690.0,80.51308761992554,77.09892697394393,81.78276261308568,76.05002195295894,65.59931616895852,78.55486008457495
710.0,81.34622853652091,77.86250889030383,82.5827626130857,76.6936253246461,66.04918725798626,79.3394256586628
730.0,81.24622853652092,77.66437645681857,82.48276261308568,76.43247260858948,65.7765335889072,79.20669874478938
750.0,80.31349301632194,76.46854430812282,81.69677066491208,75.31248379881073,64.89192526039322,78.28271514975069
775.0,79.85170349941428,75.37500803452716,81.74143581053569,74.6349673655918,63.577505370556864,77.94904725366291
800.0,77.7103202043738,70.44081345706992,80.94287537367522,72.0863024902774,55.778526376306345,76.25076880291053
825.0,72.37987918894262,64.4124656012495,77.75929995806688,65.88666932488178,57.90283531681736,72.26596087697335
850.0,72.89419558460973,72.46377699871073,76.27178249149766,67.61465457753741,63.239258742224365,72.42398792700904
875.0,73.7616773789142,74.66429666647014,73.93128420753997,69.25628402130711,64.51786255144235,72.50560211778333
900.0,74.57275714888566,75.41862838270647,71.13069965394594,69.65300288224822,63.928309710525156,72.462988244297
925.0,75.41081604802697,76.11301798099011,69.33300423602434,70.41157941486243,63.95620168909717,72.90824605939729
950.0,74.91669649601502,75.98711653512478,69.35851916239397,71.66787571946122,65.01672416903429,72.88688145833488
975.0,78.422830068788,78.01669957632409,75.52675530053618,73.60186582622462,64.88933195308776,75.90146924298396
1000.0,80.32593838761623,78.82385024341414,79.48126493287644,75.04513942010247,64.58499854853802,77.89069985788491
1030.0,80.37035576854667,78.24622853652093,80.7734049590801,74.98402052619092,64.14982079470758,78.18591992191732
1060.0,77.26165744880255,72.93325720205563,79.05431818901661,69.94609450003828,60.43758736030651,75.16653474294884
1090.0,74.67366823413357,68.87072052056814,76.2053440799608,63.25305534777526,55.15312936054117,72.10718816677557
1120.0,75.42392256859208,69.52316421510933,76.70534407996078,62.95162060022355,56.62888336864745,72.69932016853339
1150.0,75.73805550100963,69.7721444023591,76.85517188197242,63.36498889453296,57.65900242194634,72.93131843464295
1180.0,76.99398290736433,71.11279325902522,77.90452607774964,66.17053766585093,57.89442586500611,74.1313184729195
1220.0,76.89649416110738,70.49658729223346,77.82618840074188,67.00747981028836,56.28336654149422,74.0214302527249
1250.0,77.43053332558182,70.6727811525517,78.18004646948748,68.60313321189152,57.05772454138666,74.48834103847656
1280.0,77.78009069404516,71.41606683112762,78.33493012374817,70.01836934930921,58.140941899470675,74.84822905351045
1320.0,77.63053332558182,71.97967932295973,78.88356432013893,70.83432977800211,58.37130293707561,75.1550762228125
1360.0,77.40561055434256,72.6413484399508,79.51614428766605,70.78134451590766,58.51492240244055,75.4539304512673
1400.0,76.35791619465746,73.95519787420245,79.55144103973986,70.47581470514797,58.106803684095084,75.31691614768407
1450.0,75.45739826717065,75.1756044206432,79.1510601839259,70.69868602295325,58.80390277236238,75.12715440578735
1500.0,75.66406294656304,75.52111590764707,79.08222566143357,70.89733210369054,59.09093309254472,75.22597993548408
1550.0,75.77465348298936,75.5958516033258,78.8033812755013,71.32732779767788,59.60230034340573,75.17129766006089
1600.0,76.19726068446658,75.71783294326117,78.69781919292474,72.12247528389722,60.45670677926735,75.32688135309945
1650.0,76.45985438707346,75.50378115355738,78.77141710686065,72.64708399054062,61.036932709724894,75.43558457859581
1700.0,75.96133539010144,74.04791137781869,77.58817536855749,72.46475890649646,61.09231162698528,74.50766106230395
1750.0,74.54680936784484,73.94804034815179,76.80360056520577,72.19909165435878,61.774213661269414,73.77703493418436
1800.0,74.8395252377706,74.78951652652924,77.04321579780789,73.48296338561245,61.53777998558327,74.31192265542134
1850.0,76.02111590764706,74.40865704973972,77.85310280671031,74.07039005154404,60.987025106718576,74.92435525319678
1900.0,77.08369714854106,73.3281091334409,78.62222201519164,74.09430989778426,60.197636069244126,75.36923176538865
1950.0,76.88435590212997,72.01330456530567,78.37384441216882,73.67723576795356,59.40402800525611,74.98747460326335
2000.0,76.56885088443498,71.29658539535835,77.84809628071467,73.38277730814653,58.93236177355182,74.54421749887437
2060.0,75.88969703628732,71.21442999719676,77.24191967866727,72.9626673928632,58.29125675882243,73.99622148393372
2120.0,75.59443442271015,71.7382537214228,77.22740229712386,72.93544732539213,58.0005510642731,73.95450308679995
2180.0,75.09321659363562,71.67070978058325,76.80118188350038,72.5322247556811,57.03863427814352,73.55250173651002
2240.0,74.1160501153076,70.6958516033258,75.87314903125234,71.40416674925116,55.52587236758863,72.57081355317946
2300.0,74.1239203699546,70.23952858453869,76.1338748244082,70.96207283094614,55.00984767947942,72.56557617901285
2360.0,74.82995415234926,70.54478605248302,77.01732588316209,71.39314519211581,55.42954831750977,73.27135141537984
2400.0,74.99895110656469,70.28965062452036,77.23942366473301,71.0326240393441,55.22851471180114,73.35584810165214
2500.0,75.06313427612663,69.99372919449958,77.28799982596378,70.49041222368314,54.81531018475859,73.30920467526214
2580.0,75.45680315357295,70.32135879782057,77.46668656845569,70.23566282238441,55.247036517852976,73.52549048709663
2650.0,74.92966861769432,69.61309922149937,77.1971760827538,70.24477711137831,55.70473655662063,73.16644662885092
2720.0,73.28040475601738,67.72706059011806,76.16125658304303,69.11014815355202,54.05111008309537,71.8710767109379
2800.0,73.30324924446313,67.57501731064075,76.48790024311396,68.86593143386389,53.58224170438298,72.0189431664906
2900.0,73.88711795094378,67.91791070212783,77.5161186020001,69.22440716861985,54.11963447546181,72.82086063883082
3000.0,73.58054964227347,67.67957507893627,77.47513744785932,68.58259557745751,53.569329546638286,72.64926844676421
3070.0,72.94990393034804,67.34051410908157,77.05665674996824,67.74157770090582,52.6279676727532,72.15105981274198
3150.0,73.15893709194957,68.43686015873617,77.04537608456646,67.75538663175757,52.992325486696714,72.27793842663603
3250.0,73.1488993487037,68.85228756740318,76.69520135468768,68.04863883493098,53.358804407845255,72.12961889473111
3350.0,73.37546121786573,68.93640110817707,77.56627536457519,68.55603830414672,53.44510508690139,72.74497246222643
