Freq "Estimated In-Room Response"
20.0 15.112930917515442
20.2909 15.967227372627136
20.586 17.052274440555138
20.8855 18.307210682535057
21.1893 19.551073856889005
21.4975 20.651877631658337
21.8102 21.590326260462504
22.1274 22.38827049883038
22.4492 23.107274959492017
22.7758 23.834642843246698
23.1071 24.654571111258107
23.4432 25.604014217819966
23.7841 26.642502457418473
24.1301 27.683881165791476
24.4811 28.670300176458724
24.8372 29.58209956277217
25.1984 30.434282536074264
25.5649 31.26485615097876
25.9368 32.11051497685311
26.3141 32.99592494594434
26.6968 33.9217764451718
27.0851 34.87791200306437
27.4791 35.84793962438313
27.8788 36.82141798672505
28.2843 37.79055832923531
28.6957 38.74582676216771
29.1131 39.68159586607176
29.5365 40.594025614796706
29.9661 41.48695658386971
30.402 42.36865209644803
30.8442 43.25528517200617
31.2929 44.150337236844635
31.748 45.05203773572218
32.2098 45.952673824091235
32.6783 46.8462612659539
33.1536 47.72600971518166
33.6359 48.588574393399426
34.1251 49.430171988160325
34.6215 50.25534852205956
35.125 51.0665486193311
35.6359 51.86615980554549
36.1543 52.6516679754817
36.6802 53.41651758543169
37.2137 54.155539474570645
37.755 54.874762430713034
38.3041 55.57609447223349
38.8613 56.26180920383352
39.4265 56.92044471358848
40.0 57.5550785937979
40.5818 58.175459890927854
41.1721 58.78997414957378
41.771 59.38621943932405
42.3785 59.9377528483699
42.9949 60.443632651485174
43.6203 60.92737782200514
44.2548 61.42214796614111
44.8985 61.93011935255423
45.5515 62.42958005726378
46.2141 62.90687655945156
46.8863 63.36640587404874
47.5683 63.81943996451723
48.2602 64.26425409657327
48.9621 64.69063305844861
49.6743 65.09405388309466
50.3968 65.47458426896972
51.1299 65.83517316074538
51.8736 66.17255874213579
52.6281 66.49123873512441
53.3936 66.79577123386211
54.1702 67.08873120614352
54.9581 67.37297828285696
55.7575 67.64971868578594
56.5685 67.92044533885873
57.3914 68.17673196789322
58.2261 68.40868210719657
59.073 68.60231688427946
59.9323 68.75643647839637
60.804 68.88072398628715
61.6884 68.97925324796138
62.5857 69.04712888216527
63.496 69.09007105761626
64.4196 69.12353040308732
65.3566 69.16631599167543
66.3073 69.23098206994986
67.2717 69.3178966492652
68.2502 69.41645108918227
69.2429 69.52656427305983
70.2501 69.63766513872271
71.2719 69.73043334340993
72.3086 69.79453889870614
73.3603 69.81604396624036
74.4274 69.81221276996123
75.5099 69.80616543737335
76.6083 69.8019723170958
77.7226 69.83935311120206
78.8531 69.93489969608721
80.0 70.07151651580614
81.1636 70.21842802893555
82.3442 70.33690919816584
83.5419 70.41824138049263
84.757 70.45622061003863
85.9899 70.46376963162918
87.2406 70.46009477107864
88.5096 70.48170640574325
89.797 70.52888737177541
91.1031 70.57586480948393
92.4282 70.59351693678845
93.7726 70.57100523264681
95.1366 70.51095985225913
96.5204 70.4744318976641
97.9243 70.4678970037557
99.3486 70.48701035921461
100.794 70.51026547228342
102.26 70.5276112332563
103.747 70.53243631433678
105.256 70.53235733673353
106.787 70.53596483873484
108.34 70.52942149793519
109.916 70.48913433097165
111.515 70.42388356959525
113.137 70.38846856898867
114.783 70.36836782520831
116.452 70.34417287182691
118.146 70.31666516835955
119.865 70.2887252913569
121.608 70.25589401342216
123.377 70.23500013657683
125.171 70.22683400506206
126.992 70.22049277943972
128.839 70.20551419711272
130.713 70.17203391425292
132.615 70.12035754785346
134.543 70.0765551246873
136.5 70.04931699174286
138.486 70.02016478522842
140.5 69.97296394831557
142.544 69.93273361405464
144.617 69.91077133008837
146.721 69.86505434234778
148.855 69.85426843719894
151.02 69.88068209852098
153.217 69.86845286545437
155.445 69.8461380118152
157.706 69.82815256963755
160.0 69.66144284597435
162.327 69.52514411945113
164.688 69.51197319096886
167.084 69.55758637062605
169.514 69.62724425274209
171.98 69.48822992268715
174.481 69.31487253958011
177.019 69.25011128844153
179.594 69.23183310225332
182.206 69.19683226773961
184.856 69.24073285466027
187.545 69.28509519245168
190.273 69.31759216568146
193.041 69.34298514506195
195.849 69.3358242250534
198.697 69.39058679880405
201.587 69.37557344847203
204.52 69.22536766362892
207.494 69.1034224296473
210.512 69.06521338027461
213.574 69.07538763562223
216.681 68.97319487380992
219.833 68.9805286942333
223.03 68.99694855892506
226.274 69.07562644513575
229.565 69.16295796409932
232.905 69.11279167830354
236.292 69.0212111204479
239.729 68.98816676803555
243.216 69.03950957160528
246.754 69.10972321275509
250.343 69.04397490283917
253.984 68.95345981026155
257.678 68.94203048508159
261.426 68.9659893069585
265.229 68.97342456229714
269.087 68.94856542873241
273.001 68.81171647198953
276.972 68.79722678942672
281.0 68.86759695378133
285.088 68.88877196288765
289.234 68.94202818075802
293.441 69.0114302565015
297.709 68.99694070513732
302.04 68.92101353213874
306.433 68.71867022864926
310.89 68.65615182641832
315.412 68.65013571171899
320.0 68.61989374133081
324.655 68.56516570910271
329.377 68.43255940320968
334.168 68.33479071693552
339.028 68.2976478969711
343.959 68.70243969047229
348.962 68.69387424578976
354.038 68.4981687619605
359.188 68.44217852922931
364.412 68.37380793964344
369.713 68.24071257273762
375.09 68.12300999849178
380.546 68.13504745603575
386.081 68.14030624291355
391.697 67.98292681395935
397.394 68.01870939914981
403.175 67.91453039275316
409.039 67.84742018516489
414.989 67.91927641120868
421.025 68.04973419178458
427.149 67.97899234767391
433.362 67.93988811575757
439.665 68.03753624948492
446.06 68.18595095630238
452.548 68.18165518630114
459.131 68.23907495176223
465.809 68.23504117199583
472.584 68.23046251037908
479.458 68.28176648148558
486.432 68.2622355856176
493.507 68.23193102916122
500.686 68.20720359755877
507.968 68.1333319709645
515.357 68.04304335728034
522.853 67.94520688785873
530.458 67.83102576224005
538.174 67.71801954931409
546.002 67.6035745905677
553.943 67.48931631221352
562.001 67.37701501666174
570.175 67.27648884923865
578.469 67.18499948164096
586.883 67.10781197424903
595.419 67.044960501203
604.08 67.00098162256731
612.866 66.97261292545343
621.78 66.95678576069635
630.824 66.95162849028803
640.0 66.95413957408272
649.309 66.95513694694463
658.753 66.95375996051519
668.335 66.94552585524903
678.056 66.92483054314583
687.919 66.88980548323595
697.925 66.83990908537875
708.077 66.77345499031635
718.376 66.69761322492988
728.825 66.6128179924111
739.426 66.52592390739404
750.181 66.44806121136696
761.093 66.39114512962927
772.163 66.36319820437957
783.394 66.37252111020663
794.789 66.43011596968954
806.349 66.53314903892884
818.078 66.68236137395444
829.977 66.86952261426511
842.05 67.08000627702745
854.298 67.30382377694744
866.724 67.52890828457062
879.33 67.74069491255844
892.12 67.93108872424482
905.097 68.0913595779279
918.262 68.22093893583046
931.618 68.3134295373061
945.169 68.37787285312217
958.917 68.41406044211597
972.864 68.42965018604197
987.015 68.43206848363997
1001.37 68.42131872829593
1015.94 68.41354926391612
1030.71 68.40987522720232
1045.71 68.41251454125602
1060.92 68.41641789957261
1076.35 68.41893871951787
1092.0 68.41324665049271
1107.89 68.3921719621669
1124.0 68.34775963262375
1140.35 68.27732954440427
1156.94 68.18528719747
1173.77 68.07335346125754
1190.84 67.95848152048121
1208.16 67.85609146360174
1225.73 67.7847785922673
1243.56 67.7597301826989
1261.65 67.78858657871628
1280.0 67.86857828369207
1298.62 67.98162190127408
1317.51 68.10738361030701
1336.67 68.21343981026662
1356.11 68.27206500980814
1375.84 68.26054679611863
1395.85 68.15357154999072
1416.15 67.94200473315901
1436.75 67.61447844699767
1457.65 67.18180481590431
1478.85 66.65599533654428
1500.36 66.07209568286619
1522.19 65.50136210311086
1544.33 65.02327024492354
1566.79 64.72875174178647
1589.58 64.66207462818487
1612.7 64.79189555791858
1636.16 65.02781259983641
1659.95 65.26380367712467
1684.1 65.41090382054848
1708.6 65.4141697725725
1733.45 65.25444834381169
1758.66 64.94501828174306
1784.24 64.5423694853097
1810.19 64.1486945338329
1836.52 63.89845277317504
1863.24 63.86860725790466
1890.34 64.03345386049288
1917.83 64.26744651351677
1945.73 64.42544737816709
1974.03 64.41043234729099
2002.74 64.18383136551772
2031.87 63.79433259582939
2061.43 63.36869475818956
2091.41 63.093480429329446
2121.83 63.088693771481005
2152.69 63.300914667281845
2184.01 63.55458960967486
2215.77 63.68925111095004
2248.0 63.65064953373738
2280.7 63.51335111518718
2313.87 63.443951540510284
2347.53 63.59441220295734
2381.68 63.95491662915141
2416.32 64.35984040347238
2451.46 64.62345109588264
2487.12 64.64834276016406
2523.3 64.44908300827508
2560.0 64.14395893564958
2597.24 63.90549215240853
2635.01 63.85599337847266
2673.34 63.96024812508499
2712.23 64.07484149249804
2751.68 64.06955615626954
2791.7 63.90110084796456
2832.31 63.63968148063152
2873.5 63.44002480248464
2915.3 63.430319485386136
2957.7 63.58886698470954
3000.72 63.73978117872085
3044.37 63.713666777995186
3088.65 63.491742446296186
3133.58 63.247865343417644
3179.16 63.21187874180845
3225.4 63.37989849030356
3272.31 63.50014154315839
3319.91 63.38006693759708
3368.2 63.10611715162078
3417.19 62.97028496586256
3466.89 63.09765599986903
3517.32 63.26798383954511
3568.48 63.267883535413844
3620.39 63.1721941603805
3673.05 63.215279845090734
3726.47 63.41837748657221
3780.67 63.57477450630073
3835.67 63.58170269813424
3891.46 63.563160239134945
3948.06 63.64505911850826
4005.49 63.76039846843575
4063.75 63.80505475922361
4122.86 63.8278607787131
4182.82 63.902704548226694
4243.66 63.9411297091916
4305.39 63.884969463319266
4368.01 63.879937483079985
4431.55 63.988405917821
4496.01 63.99243308247013
4561.4 63.87132123402537
4627.75 63.97499721870055
4695.06 64.29045001158372
4763.35 64.40821354411928
4832.64 64.35804942901959
4902.93 64.49512983364095
4974.24 64.74793730614688
5046.6 64.80057435612574
5120.0 64.70463936238288
5194.47 64.79392853790885
5270.03 64.97431389364719
5346.68 64.80559712038892
5424.45 64.58222645226961
5503.35 64.79905658697315
5583.4 64.81504741227782
5664.61 64.55529557010023
5747.01 64.80595330283255
5830.6 64.98083840689476
5915.41 64.48714469874385
6001.45 64.11905996373193
6088.74 64.18269479754595
6177.3 63.99808888162603
6267.15 64.07374840494897
6358.31 64.35278157521415
6450.8 64.11648768991847
6544.62 64.28922408466111
6639.82 64.3668730248845
6736.4 64.2814418452867
6834.38 64.5678348277761
6933.79 64.57244401966476
7034.64 64.6786260252712
7136.96 64.74282990461329
7240.77 64.73060835144356
7346.09 64.70952262013584
7452.94 64.68403305649502
7561.35 64.64168118113825
7671.33 64.66511059229725
7782.91 64.69656210374794
7896.12 64.66079824613395
8010.97 64.66612302471763
8127.49 64.6240268301767
8245.71 64.73867652954951
8365.65 64.89957192459765
8487.33 65.08613333568519
8610.78 65.32489388436308
8736.03 65.25517956543672
8863.09 65.34794353510996
8992.01 64.99028422001065
9122.8 65.15318984383222
9255.5 64.90310992206881
9390.12 65.28545887219973
9526.7 65.13806371035788
9665.27 65.4374683075863
9805.86 65.24634649791855
9948.49 65.48858455408293
10093.2 65.47983696979115
10240.0 65.906899324738
10388.9 66.07028337414722
10540.1 66.29640166179962
10693.4 66.50247643280869
10848.9 66.64454379071317
11006.7 67.02732573518368
11166.8 67.42511984578762
11329.2 67.96124528088124
11494.0 68.2177184332527
11661.2 68.65678062797055
11830.8 68.88100088202812
12002.9 69.0276396930505
12177.5 69.22046482583781
12354.6 69.04042356415957
12534.3 68.85858758430474
12716.6 68.76712686358611
12901.6 68.61083278291481
13089.2 68.58685479840844
13279.6 68.58249323489265
13472.8 68.499256972299
13668.8 68.44113365621254
13867.6 68.42219028828703
14069.3 68.35198752018167
14273.9 68.20634665003587
14481.5 67.97772010659538
14692.2 67.88053322515168
14905.9 68.05141849725757
15122.7 68.08238880535153
15342.7 67.92192171364782
15565.8 67.84886990440741
15792.2 67.70395258187226
16021.9 67.45217236961965
16255.0 67.26603288588385
16491.4 67.06052359435029
16731.3 66.95329150101169
16974.7 66.79998963899124
17221.6 66.51249554804755
17472.1 66.29586286318859
17726.2 66.00085885573647
17984.0 65.73600647092427
18245.6 65.54968020516456
18511.0 65.37242762039496
18780.2 65.23859622820291
19053.4 64.91493411505787
19330.5 64.64861614648285
19611.7 64.41839253507021
19897.0 63.9893020165445
