Freq "Sound Power"
20.5078 63.49918808393892
21.9727 64.45288523421436
23.4375 65.63558099184309
24.9023 66.92614431389944
26.3672 68.96437613064165
27.832 70.81680951920012
29.2969 72.69724658191976
30.7617 74.53516102304707
32.2266 76.42702708241521
33.6914 79.11785687458128
35.1562 81.7626747124248
36.6211 83.2498876060345
38.0859 85.16541240662306
39.5508 86.6968250311538
41.0156 87.84979449611292
42.4805 88.79700299400389
43.9453 89.37602860272163
45.4102 89.55011029010342
46.875 89.67740582639152
48.3398 89.61242734323169
51.2695 89.37939583796923
52.7344 89.29004607357705
54.1992 89.2351449526733
55.6641 89.16331603935332
58.5938 89.11234790185937
60.0586 89.09169217973748
62.9883 89.21464266687613
64.4531 89.25663977126081
67.3828 89.52497149254395
68.8477 89.62136768064661
71.7773 89.78222837061016
74.707 89.926298797938
77.6367 90.16526397089639
79.1016 90.34829304246111
82.0312 90.72122551494337
84.9609 90.89428830769499
87.8906 91.28045746224723
90.8203 91.64355937689648
95.2148 92.02174156304676
98.1445 92.10071568965898
101.074 92.12660240680842
105.469 92.14762267619275
108.398 92.07487069072918
112.793 91.7001975861476
117.188 91.33510831437916
120.117 91.70041264781482
124.512 92.51085910701786
128.906 92.12303940968069
133.301 92.22133134110429
139.16 92.30979576240321
143.555 92.02801711601037
147.949 91.92241318592605
153.809 92.17636569839553
159.668 91.8302764607283
165.527 91.437483959127
171.387 91.29486693495895
177.246 91.35926356824723
183.105 91.36793741187844
188.965 91.71766734213037
196.289 91.51868526371624
203.613 91.02576029375868
210.938 90.83542546470468
218.262 91.13333958500925
225.586 90.99010182802488
232.91 90.35354760093733
241.699 90.53017497686729
250.488 90.50711687941309
259.277 90.89214566374295
268.066 91.17004293254702
276.855 90.48903698069346
287.109 89.52432306741433
297.363 89.50171716123997
307.617 90.05855565456632
319.336 88.94314614379964
329.59 89.53341401826586
341.309 88.2270142692925
353.027 88.65913994989282
366.211 86.87864002517081
379.395 88.96005375071367
392.578 88.77267778221446
405.762 89.42431926712638
420.41 88.38280569144192
435.059 89.29222664893253
451.172 88.92869693262006
465.82 89.04732263015991
483.398 88.07201972322771
499.512 87.10649921087602
517.09 86.80094409100086
536.133 87.07715704105178
555.176 86.48721647304431
574.219 87.88860248150596
594.727 88.09153278132014
615.234 88.42954568281887
637.207 89.61621621476287
659.18 88.74627311905633
682.617 87.95110382455988
707.52 87.108033093572
732.422 87.20129225705163
757.324 87.02673046664258
785.156 86.76640194355448
811.523 87.40781587081689
840.82 87.61369573554967
870.117 88.06336701952944
900.879 88.37683738957217
933.105 88.64738386779662
965.332 89.1146636152854
1000.49 89.29561888361773
1035.64 89.59760041572976
1072.27 90.06588490501976
1108.89 90.39323549123915
1148.44 90.43230504291517
1189.45 90.69817389394868
1230.47 90.25383007743659
1274.41 90.44066204615147
1319.82 90.96483286141586
1366.7 90.96534976293094
1413.57 90.98619942238525
1463.38 90.65591121907381
1516.11 90.08588818796665
1568.85 89.10598104088109
1624.51 88.31866047100546
1681.64 87.99616304002743
1741.7 87.224879054688
1803.22 86.79880250699287
1866.21 86.22267459779498
1932.13 85.68690268457992
1999.51 85.31044566889476
2069.82 85.0114900409186
2143.07 84.5360876279431
2219.24 84.42977214051018
2296.88 84.03299391531313
2378.91 83.84271582040458
2462.4 84.11242092567099
2548.83 84.11497139427912
2639.65 83.72977418500737
2731.93 83.93856112874236
2828.61 84.16764905473613
2928.22 84.52399407932928
3030.76 84.99318200781026
3137.7 85.40569464291245
3249.02 85.36220541370803
3363.28 85.78911560430939
3481.93 85.90295650033946
3604.98 85.26658959214632
3732.42 85.01727605176308
3864.26 84.42518520427326
4000.49 84.39861435123402
4141.11 84.41732111629901
4287.6 84.65997654467392
4438.48 84.48846462565682
4595.21 84.21512145642072
4756.35 83.53166291412371
4924.8 83.31185509522052
5097.66 83.31753596300646
5277.83 83.81565340865225
5463.87 84.68423300286123
5657.23 86.02742219265188
5856.45 87.32093783812097
6062.99 88.11770804271652
6276.86 88.6879790647441
6498.05 88.17403401548458
6726.56 87.52217320502871
6963.87 86.5215361800301
7209.96 85.65275063195902
7464.84 85.43551857388027
7727.05 84.78250315686711
7999.51 82.77843086089823
8282.23 83.79310636235653
8573.73 84.36828227363297
8876.95 84.36435523246267
9188.96 84.24279803517189
9514.16 83.92761949152238
9849.61 83.6532698886141
10196.8 83.47872354649948
10555.7 83.40870738870112
10927.7 83.80482105355063
11313.0 83.69209173662264
11712.9 83.477033057324
12126.0 83.40176967337824
12553.7 83.44894893109227
12996.1 83.63980729034564
13454.6 83.74450549959376
13929.2 83.87723457191095
14419.9 84.00042317441958
14928.2 83.61439508194823
15455.6 83.11907079494146
16000.5 82.4234226518365
16564.5 82.32367608232853
17148.9 81.9407667559635
17752.4 81.45832149501898
18379.4 80.61511863149
19026.9 79.77143558563334
19697.8 78.7595417284634
19999.5 78.03391345841759
