Freq "On Axis"
22.4 6.0
23.0 8.099999999999994
23.6 10.199999999999989
24.0 12.800000000000011
25.0 15.199999999999989
25.8 17.400000000000034
26.5 19.5
27.2 22.100000000000023
28.0 24.5
29.0 26.69999999999999
30.0 29.0
30.7 31.5
31.5 33.80000000000001
32.5 36.0
33.5 38.599999999999994
34.5 40.900000000000006
35.5 43.099999999999994
36.5 45.69999999999999
37.5 48.099999999999994
38.7 50.400000000000006
40.0 52.900000000000006
41.2 55.19999999999999
42.5 57.8
43.7 60.19999999999999
45.0 62.599999999999994
46.2 65.0
47.5 67.2
48.7 69.5
50.0 71.5
51.5 73.4
53.0 75.0
54.5 76.4
56.0 77.5
58.0 78.3
60.0 78.9
61.5 79.3
63.0 79.6
65.0 79.80000000000001
67.0 79.9
69.0 80.1
71.0 80.3
73.0 80.4
75.0 80.5
77.5 80.6
80.0 80.8
82.5 80.9
85.0 80.8
87.5 80.7
90.0 80.6
92.5 80.5
95.0 80.4
97.5 80.3
100.0 80.19999999999999
103.0 80.19999999999999
106.0 80.19999999999999
109.0 80.3
112.0 80.4
115.0 80.4
118.0 80.4
122.0 80.3
125.0 80.19999999999999
128.0 80.1
132.0 80.1
136.0 80.1
140.0 80.3
145.0 80.6
150.0 81.0
155.0 81.29999999999998
160.0 81.5
165.0 81.7
170.0 81.7
175.0 81.7
180.0 81.8
185.0 81.8
190.0 81.9
195.0 81.9
200.0 81.8
206.0 81.29999999999998
212.0 80.6
218.0 79.80000000000001
224.0 79.2
230.0 79.2
236.0 79.9
240.0 80.9
250.0 81.9
258.0 82.4
265.0 82.69999999999999
272.0 82.6
280.0 82.2
290.0 81.5
300.0 80.5
307.0 79.4
315.0 78.4
325.0 77.8
335.0 77.9
345.0 78.6
355.0 79.5
365.0 80.3
375.0 80.9
387.0 81.29999999999998
400.0 81.29999999999998
412.0 81.20000000000002
425.0 80.9
437.0 80.5
450.0 80.19999999999999
462.0 80.0
475.0 80.1
487.0 80.4
500.0 80.6
515.0 80.8
530.0 81.0
545.0 81.29999999999998
560.0 81.5
580.0 81.5
600.0 81.4
615.0 81.4
630.0 81.5
650.0 81.5
670.0 81.5
690.0 81.5
710.0 81.5
730.0 81.20000000000002
750.0 80.8
775.0 80.5
800.0 80.6
825.0 81.29999999999998
850.0 81.6
875.0 81.1
900.0 80.5
925.0 80.8
950.0 81.1
975.0 81.1
1000.0 80.8
1030.0 80.0
1060.0 79.4
1090.0 78.6
1120.0 78.70000000000002
1150.0 79.9
1180.0 80.4
1220.0 80.0
1250.0 79.3
1280.0 79.3
1320.0 79.4
1360.0 79.1
1400.0 78.9
1450.0 79.4
1500.0 79.9
1550.0 79.7
1600.0 79.0
1650.0 79.0
1700.0 78.79999999999998
1750.0 77.6
1800.0 77.1
1850.0 79.3
1900.0 81.4
1950.0 81.6
2000.0 80.1
2060.0 79.0
2120.0 78.9
2180.0 78.79999999999998
2240.0 79.2
2300.0 79.4
2360.0 79.9
2400.0 80.9
2500.0 80.5
2580.0 78.0
2650.0 81.1
2720.0 82.9
2800.0 82.6
2900.0 81.9
3000.0 81.1
3070.0 80.6
3150.0 81.29999999999998
3250.0 82.1
3350.0 82.0
3450.0 82.69999999999999
3550.0 83.0
3650.0 83.2
3750.0 83.0
3870.0 82.4
4000.0 83.70000000000002
4120.0 85.5
4250.0 85.5
4370.0 84.2
4500.0 83.70000000000002
4620.0 82.1
4750.0 81.4
4870.0 80.6
5000.0 83.1
5150.0 84.4
5300.0 83.4
5450.0 83.5
5600.0 83.0
5800.0 84.0
6000.0 84.5
6150.0 83.3
6300.0 82.9
6500.0 84.1
6700.0 85.0
6900.0 84.6
7100.0 83.9
7300.0 83.1
7500.0 85.4
7750.0 84.4
8000.0 83.70000000000002
8250.0 83.79999999999998
8500.0 84.7
8750.0 85.3
9000.0 85.19999999999999
9250.0 84.5
9500.0 83.6
9750.0 85.3
10000.0 84.7
10300.0 82.30000000000001
10600.0 80.6
10900.0 82.0
11200.0 77.0
11500.0 82.5
11800.0 83.2
12200.0 77.2
12500.0 81.9
12800.0 81.4
13200.0 74.9
13600.0 80.6
14000.0 78.3
14500.0 81.29999999999998
15000.0 73.4
15500.0 79.1
16000.0 73.4
16500.0 72.5
17000.0 71.20000000000002
17500.0 64.3
18000.0 67.0
18500.0 64.3
19000.0 57.5
19500.0 48.599999999999994
