Freq "On Axis"
22.4 6.589873417721549
23.0 8.689873417721572
23.6 10.789873417721537
24.0 13.38987341772156
25.0 15.789873417721537
25.8 17.989873417721526
26.5 20.08987341772155
27.2 22.68987341772157
28.0 25.08987341772155
29.0 27.289873417721566
30.0 29.58987341772155
30.7 32.08987341772155
31.5 34.38987341772156
32.5 36.58987341772155
33.5 39.18987341772157
34.5 41.489873417721554
35.5 43.68987341772157
36.5 46.289873417721566
37.5 48.68987341772157
38.7 50.989873417721554
40.0 53.489873417721554
41.2 55.789873417721566
42.5 58.38987341772156
43.7 60.789873417721566
45.0 63.18987341772157
46.2 65.58987341772155
47.5 67.78987341772157
48.7 70.08987341772156
50.0 72.08987341772156
51.5 73.98987341772157
53.0 75.58987341772155
54.5 76.98987341772155
56.0 78.08987341772155
58.0 78.88987341772156
60.0 79.48987341772155
61.5 79.88987341772156
63.0 80.18987341772157
65.0 80.38987341772156
67.0 80.48987341772158
69.0 80.68987341772156
71.0 80.88987341772156
73.0 80.98987341772157
75.0 81.08987341772156
77.5 81.18987341772156
80.0 81.38987341772156
82.5 81.48987341772157
85.0 81.38987341772156
87.5 81.28987341772157
90.0 81.18987341772156
92.5 81.08987341772156
95.0 80.98987341772157
97.5 80.88987341772156
100.0 80.78987341772157
103.0 80.78987341772157
106.0 80.78987341772157
109.0 80.88987341772156
112.0 80.98987341772157
115.0 80.98987341772157
118.0 80.98987341772157
122.0 80.88987341772156
125.0 80.78987341772157
128.0 80.68987341772156
132.0 80.68987341772156
136.0 80.68987341772156
140.0 80.88987341772156
145.0 81.18987341772156
150.0 81.58987341772158
155.0 81.88987341772156
160.0 82.08987341772156
165.0 82.28987341772157
170.0 82.28987341772157
175.0 82.28987341772157
180.0 82.38987341772156
185.0 82.38987341772156
190.0 82.48987341772157
195.0 82.48987341772157
200.0 82.38987341772156
206.0 81.88987341772156
212.0 81.18987341772156
218.0 80.38987341772156
224.0 79.78987341772157
230.0 79.78987341772157
236.0 80.48987341772158
240.0 81.48987341772157
250.0 82.48987341772157
258.0 82.98987341772158
265.0 83.28987341772157
272.0 83.18987341772156
280.0 82.78987341772157
290.0 82.08987341772156
300.0 81.08987341772156
307.0 79.98987341772157
315.0 78.98987341772157
325.0 78.38987341772156
335.0 78.48987341772157
345.0 79.18987341772154
355.0 80.08987341772156
365.0 80.88987341772156
375.0 81.48987341772157
387.0 81.88987341772156
400.0 81.88987341772156
412.0 81.78987341772157
425.0 81.48987341772157
437.0 81.08987341772156
450.0 80.78987341772157
462.0 80.58987341772155
475.0 80.68987341772156
487.0 80.98987341772157
500.0 81.18987341772156
515.0 81.38987341772156
530.0 81.58987341772158
545.0 81.88987341772156
560.0 82.08987341772156
580.0 82.08987341772156
600.0 81.98987341772155
615.0 81.98987341772155
630.0 82.08987341772156
650.0 82.08987341772156
670.0 82.08987341772156
690.0 82.08987341772156
710.0 82.08987341772156
730.0 81.78987341772157
750.0 81.38987341772156
775.0 81.08987341772156
800.0 81.18987341772156
825.0 81.88987341772156
850.0 82.18987341772156
875.0 81.68987341772154
900.0 81.08987341772156
925.0 81.38987341772156
950.0 81.68987341772154
975.0 81.68987341772154
1000.0 81.38987341772156
1030.0 80.58987341772155
1060.0 79.98987341772157
1090.0 79.18987341772154
1120.0 79.28987341772157
1150.0 80.48987341772158
1180.0 80.98987341772157
1220.0 80.58987341772155
1250.0 79.88987341772156
1280.0 79.88987341772156
1320.0 79.98987341772157
1360.0 79.68987341772156
1400.0 79.48987341772155
1450.0 79.98987341772157
1500.0 80.48987341772158
1550.0 80.28987341772157
1600.0 79.58987341772156
1650.0 79.58987341772156
1700.0 79.38987341772156
1750.0 78.18987341772156
1800.0 77.68987341772157
1850.0 79.88987341772156
1900.0 81.98987341772155
1950.0 82.18987341772156
2000.0 80.68987341772156
2060.0 79.58987341772156
2120.0 79.48987341772155
2180.0 79.38987341772156
2240.0 79.78987341772157
2300.0 79.98987341772157
2360.0 80.48987341772158
2400.0 81.48987341772157
2500.0 81.08987341772156
2580.0 78.58987341772156
2650.0 81.68987341772154
2720.0 83.48987341772157
2800.0 83.18987341772156
2900.0 82.48987341772157
3000.0 81.68987341772154
3070.0 81.18987341772156
3150.0 81.88987341772156
3250.0 82.68987341772157
3350.0 82.58987341772156
3450.0 83.28987341772157
3550.0 83.58987341772156
3650.0 83.78987341772157
3750.0 83.58987341772156
3870.0 82.98987341772158
4000.0 84.28987341772157
4120.0 86.08987341772156
4250.0 86.08987341772156
4370.0 84.78987341772157
4500.0 84.28987341772157
4620.0 82.68987341772157
4750.0 81.98987341772155
4870.0 81.18987341772156
5000.0 83.68987341772156
5150.0 84.98987341772157
5300.0 83.98987341772157
5450.0 84.08987341772158
5600.0 83.58987341772156
5800.0 84.58987341772156
6000.0 85.08987341772156
6150.0 83.88987341772156
6300.0 83.48987341772157
6500.0 84.68987341772156
6700.0 85.58987341772155
6900.0 85.18987341772157
7100.0 84.48987341772155
7300.0 83.68987341772156
7500.0 85.98987341772157
7750.0 84.98987341772157
8000.0 84.28987341772157
8250.0 84.38987341772156
8500.0 85.28987341772157
8750.0 85.88987341772156
9000.0 85.78987341772157
9250.0 85.08987341772156
9500.0 84.18987341772154
9750.0 85.88987341772156
10000.0 85.28987341772157
10300.0 82.88987341772156
10600.0 81.18987341772156
10900.0 82.58987341772156
11200.0 77.58987341772156
11500.0 83.08987341772155
11800.0 83.78987341772157
12200.0 77.78987341772157
12500.0 82.48987341772157
12800.0 81.98987341772155
13200.0 75.48987341772158
13600.0 81.18987341772156
14000.0 78.88987341772156
14500.0 81.88987341772156
15000.0 73.98987341772157
15500.0 79.68987341772156
16000.0 73.98987341772157
16500.0 73.08987341772155
17000.0 71.78987341772157
17500.0 64.88987341772156
18000.0 67.58987341772156
18500.0 64.88987341772156
19000.0 58.08987341772155
19500.0 49.18987341772157
