Freq "Sound Power"
20.5078 65.41423124299241
21.9727 65.84314146725083
23.4375 66.63374197891922
24.9023 67.88766024888133
26.3672 68.78970728130344
27.832 69.75841321910208
29.2969 70.22391774402378
30.7617 71.08885473562164
32.2266 71.58148468253874
33.6914 72.29181062326566
35.1562 72.96763797761812
36.6211 73.664707970279
38.0859 74.30089689358793
39.5508 74.90098273210992
41.0156 75.40753502335572
42.4805 75.97989743754727
43.9453 76.66290729450157
45.4102 77.19504611714525
46.875 77.74032948379636
48.3398 78.2451945521707
51.2695 79.53408878969701
52.7344 80.04438197843086
54.1992 80.51379244631126
55.6641 81.00242783201514
58.5938 81.96013056452111
60.0586 82.47433643007321
62.9883 83.33636295903422
64.4531 83.70284963892128
67.3828 84.38535621373211
68.8477 84.72894217325137
71.7773 85.3380727003171
74.707 85.82023126287424
77.6367 86.18650435236239
79.1016 86.35296797416406
82.0312 86.59972019788601
84.9609 86.87459646938814
87.8906 87.09859511109623
90.8203 87.17830077791622
95.2148 87.24085240205764
98.1445 87.26183993605588
101.074 87.20742714932945
105.469 87.17076520703272
108.398 87.08204254930189
112.793 86.85433856334683
117.188 86.81744908527537
120.117 87.04570067312719
124.512 86.91358736320755
128.906 86.74306510966613
133.301 86.55759791662294
139.16 86.20908137708501
143.555 86.16174595633856
147.949 86.27505174745001
153.809 86.03856509938893
159.668 85.73691690010203
165.527 85.19687494900032
171.387 85.44236120517263
177.246 85.20982986281749
183.105 85.30169416731849
188.965 85.31307532179245
196.289 85.06688284726435
203.613 84.60561358815028
210.938 84.6896574602341
218.262 84.75176961833961
225.586 84.54011569312166
232.91 84.21999966318263
241.699 83.91174265793109
250.488 84.2168948208653
259.277 84.35130287975338
268.066 84.55068762164129
276.855 83.81133669345071
287.109 84.03879596094322
297.363 83.97773969287121
307.617 83.88751871038109
319.336 83.10921256638628
329.59 83.00493536038033
341.309 83.19788605807429
353.027 82.43480944316444
366.211 82.70261715121076
379.395 83.24691092229254
392.578 84.11130900306678
405.762 84.35668934524661
420.41 83.57211647352628
435.059 83.56588284675641
451.172 82.68047489426627
465.82 83.00532854139578
483.398 82.86300865228944
499.512 82.66849409507769
517.09 82.9323380103376
536.133 82.63697805604053
555.176 82.31543852342182
574.219 81.90750635798594
594.727 82.32623060098977
615.234 82.36080569536571
637.207 82.03894693752622
659.18 81.97312120919212
682.617 81.18807571143496
707.52 81.62207255292151
732.422 81.16530904622869
757.324 81.84738436437169
785.156 80.91009426539895
811.523 80.83813798276788
840.82 80.72283332036545
870.117 80.50669310060798
900.879 80.01791265080223
933.105 80.11128063708426
965.332 79.92083350186712
1000.49 79.80328727289205
1035.64 79.61872927924493
1072.27 80.04276427662248
1108.89 80.30443810965798
1148.44 80.4368806999551
1189.45 80.89017546465735
1230.47 80.79872033994874
1274.41 80.68047195509148
1319.82 80.65477757460064
1366.7 80.38588322985304
1413.57 79.87183420709377
1463.38 79.5787148711656
1516.11 78.93176946942432
1568.85 78.64599423299705
1624.51 78.24059893333494
1681.64 78.20776665291565
1741.7 77.79739509949232
1803.22 77.4845896865591
1866.21 77.02572783301284
1932.13 76.72309864798055
1999.51 77.50554346283033
2069.82 77.77637637197951
2143.07 78.35737121006834
2219.24 78.52081905913582
2296.88 78.55632115709136
2378.91 78.65070395160146
2462.4 78.53779347338079
2548.83 77.8647500476425
2639.65 77.71642987848006
2731.93 77.77190148287968
2828.61 77.51089744948827
2928.22 77.35404610990622
3030.76 77.32062625111499
3137.7 77.316628375898
3249.02 77.17189281282653
3363.28 77.36056781140067
3481.93 77.40643208718956
3604.98 77.42836842279984
3732.42 77.74332050913044
3864.26 77.59569166062508
4000.49 77.62564379034046
4141.11 77.55354492926426
4287.6 77.46675966345775
4438.48 77.06673380618179
4595.21 76.80219466925129
4756.35 76.47902426404255
4924.8 76.29143838442565
5097.66 76.27277058664947
5277.83 75.88298205950261
5463.87 75.96631611349139
5657.23 75.77735632097078
5856.45 75.70817405193424
6062.99 75.46374750524737
6276.86 75.10305775344293
6498.05 74.96888229221493
6726.56 75.12711663074664
6963.87 75.2521860313546
7209.96 75.6705430614636
7464.84 76.1416326849961
7727.05 76.38543731172699
7999.51 76.384844840071
8282.23 76.39562731624616
8573.73 76.19423930545975
8876.95 75.90337877633512
9188.96 75.75079836122157
9514.16 75.51908370935675
9849.61 75.29041358956736
10196.8 75.13311508862519
10555.7 74.92958317250248
10927.7 74.70964437828233
11313.0 74.72733364151603
11712.9 74.62384385442445
12126.0 74.32623944135375
12553.7 74.19837964705022
12996.1 74.2892362514626
13454.6 74.6307390343875
13929.2 74.6731125351989
14419.9 74.55158864670585
14928.2 74.01184613514548
15455.6 73.21432198089828
16000.5 72.25145170191898
16564.5 71.0917228098659
17148.9 70.02480295116966
17752.4 69.06124669917273
18379.4 67.96511211436736
19026.9 66.69885293264612
19697.8 65.5741870871115
19999.5 65.1395420015428
