Freq "Early Reflections"
22.4 28.503265975911276
23.0 29.227009380132174
23.6 29.90699504626194
24.0 30.567769596218128
25.0 31.153510548152568
25.8 31.652980318956665
26.5 32.2140372276411
27.2 33.538148458901375
28.0 34.93427403165869
29.0 36.21039172277143
30.0 37.704772251824764
30.7 39.62739970374518
31.5 41.33048285304058
32.5 42.66613343027363
33.5 43.20950023168608
34.5 43.48675958840413
35.5 43.74797816089567
36.5 44.252710915722346
37.5 44.78989573516087
38.7 45.39228007492342
40.0 46.312516638382974
41.2 47.14218033251758
42.5 48.429717458416846
43.7 49.811760798435515
45.0 51.46861281764704
46.2 53.76428708970049
47.5 55.431976066921365
48.7 56.2731303781169
50.0 57.02540704858684
51.5 57.934822013913816
53.0 58.88530818210394
54.5 60.254834151780926
56.0 61.63115724589865
58.0 63.165296300064014
60.0 64.51046708293809
61.5 65.69697752886303
63.0 66.85648765543915
65.0 67.90217902586255
67.0 68.54676163744092
69.0 69.14576963543921
71.0 69.71942633807431
73.0 70.09215145458509
75.0 70.46186743064656
77.5 70.72501249624223
80.0 70.78713957869275
82.5 71.19037089080908
85.0 71.27775835648768
87.5 71.11371619054346
90.0 71.05082486785298
92.5 71.10979829353225
95.0 71.20164744093185
97.5 71.18764063370014
100.0 71.33688634638982
103.0 71.1586357936346
106.0 71.29040473264082
109.0 71.26166485476637
112.0 71.47228825051903
115.0 71.37637406087994
118.0 71.38054082349142
122.0 71.13268303580274
125.0 70.75364385172169
128.0 71.41023319407783
132.0 71.72345004655303
136.0 71.61427576991004
140.0 72.0153133907242
145.0 72.33411501931043
150.0 72.54784899888743
155.0 72.85365558708256
160.0 72.99807800721052
165.0 72.9990227987151
170.0 73.0212640859873
175.0 72.93825436782613
180.0 72.50375703895587
185.0 72.39972655364096
190.0 72.40373289574278
195.0 71.76951566717821
200.0 72.10344088968273
206.0 71.75027760610331
212.0 72.65935429353799
218.0 73.22972160374624
224.0 72.99997019785386
230.0 72.74808924961792
236.0 72.86350114332585
240.0 73.01305691206962
250.0 72.87539124599992
258.0 72.81743351616718
265.0 72.01378674826378
272.0 72.51454001191497
280.0 72.17766451895142
290.0 72.9702715807526
300.0 74.09132505473568
307.0 73.96108107466394
315.0 74.33197733176958
325.0 74.41121930524257
335.0 74.39622386562908
345.0 74.62053666148758
355.0 74.14937565048653
365.0 73.43347022171302
375.0 72.92220405630576
387.0 73.1154635833608
400.0 73.46242259112755
412.0 73.86229775690997
425.0 74.11755457622425
437.0 74.37527497988201
450.0 74.26572352706108
462.0 73.82030965831233
475.0 72.87772684563072
487.0 71.82321474001829
500.0 71.9415801170806
515.0 71.81029408519514
530.0 71.8965213171302
545.0 71.87114884414636
560.0 71.44574235749049
580.0 70.99997111664352
600.0 70.4341001975217
615.0 70.07289981471105
630.0 70.06642515933406
650.0 70.28369512506147
670.0 70.39343312245059
690.0 70.0796615048501
710.0 69.38197564376145
730.0 69.49733518376858
750.0 70.72954634841848
775.0 71.94929117696331
800.0 72.6010083062438
825.0 72.64501552998365
850.0 72.40180989483056
875.0 72.020385021049
900.0 71.52687249299264
925.0 70.85433300575629
950.0 69.91954274148091
975.0 69.05227786457003
1000.0 68.74290184749053
1030.0 68.97504305443174
1060.0 69.12167222402604
1090.0 68.89427030074573
1120.0 68.69008926757984
1150.0 68.97305966649267
1180.0 69.20568529991596
1220.0 69.17051123617281
1250.0 69.26503352771353
1280.0 69.8523201957096
1320.0 70.53657077566908
1360.0 70.84195458612787
1400.0 70.86366957766214
1450.0 70.5250859089113
1500.0 69.4325544324764
1550.0 68.4929044491422
1600.0 67.84532860947917
1650.0 68.0001718505532
1700.0 68.5722451784751
1750.0 68.19703022504565
1800.0 67.34555202100152
1850.0 66.89533921239754
1900.0 66.36688787877259
1950.0 66.3806314709873
2000.0 66.89491813025192
2060.0 66.94072966544918
2120.0 67.33644340817844
2180.0 67.72807233170471
2240.0 68.27517261351038
2300.0 68.6460277059638
2360.0 69.15830798303294
2400.0 69.5306724737434
2500.0 69.44129359622663
2580.0 69.41336343647005
2650.0 69.40467613381439
2720.0 69.01955820882024
2800.0 68.68936846175342
2900.0 68.1706473780561
3000.0 67.5401071027322
3070.0 66.4462694946572
3150.0 65.4780099142284
3250.0 64.8874650312694
3350.0 64.92801046600145
3450.0 65.22312788698987
3550.0 65.79096607877734
3650.0 66.52340245761248
3750.0 67.47959831048824
3870.0 68.03434396426044
4000.0 68.56044167465487
4120.0 69.07903972390677
4250.0 69.64472184471906
4370.0 70.00607129341444
4500.0 69.99466270809353
4620.0 70.13362786700885
4750.0 69.87387968168915
4870.0 69.43606418400775
5000.0 69.60490722836843
5150.0 69.2485186506185
5300.0 69.62790668209908
5450.0 69.84464801808815
5600.0 68.96701744852523
5800.0 68.5584304132419
6000.0 67.52795861042456
6150.0 66.87488085996323
6300.0 66.85227172837135
6500.0 67.77204447482929
6700.0 67.22492590465653
6900.0 70.18636178563841
7100.0 69.70555216475921
7300.0 68.65007941598104
7500.0 69.20541761143512
7750.0 67.87099699833281
8000.0 67.28340545955076
8250.0 68.24898538062376
8500.0 66.34715075257934
8750.0 64.93463158151064
9000.0 66.21130483359761
9250.0 67.47921664912246
9500.0 66.37393686563885
9750.0 68.02050418624127
10000.0 67.04625107842394
10300.0 64.05811969840285
10600.0 67.73453262045513
10900.0 71.46855518694817
11200.0 69.05936935995373
11500.0 68.30942884876931
11800.0 70.14785041404029
12200.0 69.72921022317719
12500.0 70.16237104775117
12800.0 69.91123802681383
13200.0 67.88361212231085
13600.0 69.34311880817567
14000.0 66.50306509924252
14500.0 66.93696247563291
15000.0 64.86471486272731
15500.0 64.30245366388299
16000.0 69.71748512564382
16500.0 66.36848330844565
17000.0 61.44642062299975
17500.0 64.16315399123901
18000.0 60.753192470680105
18500.0 62.12084923790624
19000.0 60.14434144942278
19500.0 58.83795957837782
