Freq "Sound Power"
22.4 28.871623880518797
23.0 29.595325898044138
23.6 30.285035739972272
24.0 30.936874505943393
25.0 31.531049074081807
25.8 32.03064047284985
26.5 32.60944924706985
27.2 33.93703463671224
28.0 35.32769049654743
29.0 36.61119986244748
30.0 38.108901975718396
30.7 40.04158097955593
31.5 41.7482227134297
32.5 43.09566253255821
33.5 43.64071334975915
34.5 43.92184148462579
35.5 44.187897734778886
36.5 44.70068531416709
37.5 45.234825545882785
38.7 45.83705669925544
40.0 46.76041691075463
41.2 47.58852586878649
42.5 48.88518191119314
43.7 50.26621978730563
45.0 51.92607081195473
46.2 54.227189117318744
47.5 55.88831319547751
48.7 56.72065287880511
50.0 57.45794180376592
51.5 58.34632903974472
53.0 59.28693922497331
54.5 60.64286874211899
56.0 62.00550322727503
58.0 63.51951859691246
60.0 64.84694465509972
61.5 65.98746750585951
63.0 67.0992105258358
65.0 68.10053566899809
67.0 68.70450828537886
69.0 69.26298592950909
71.0 69.79845026620175
73.0 70.12181896917173
75.0 70.42926810513876
77.5 70.64350244969012
80.0 70.66364311493612
82.5 71.023722795711
85.0 71.06637810811819
87.5 70.85152460578414
90.0 70.75458099072415
92.5 70.76983404357537
95.0 70.82392422308608
97.5 70.78563439449869
100.0 70.89928479257821
103.0 70.70371851861347
106.0 70.80998767393156
109.0 70.77430686883909
112.0 70.97731388568194
115.0 70.86878105940868
118.0 70.86189129207938
122.0 70.597934365033
125.0 70.22601877765338
128.0 70.8769186833542
132.0 71.17648195889906
136.0 71.06209790616317
140.0 71.45520874022145
145.0 71.77483751680785
150.0 71.9723090125228
155.0 72.2714602401237
160.0 72.38282998832972
165.0 72.36203035724394
170.0 72.36088194152282
175.0 72.2443582242118
180.0 71.77860205174268
185.0 71.62040063483373
190.0 71.58712049748388
195.0 70.91497200208815
200.0 71.20364956783625
206.0 70.81743851045965
212.0 71.67973031385428
218.0 72.22367024812519
224.0 71.96764003495133
230.0 71.69725715546696
236.0 71.77064602082251
240.0 71.89915089503323
250.0 71.72317917266325
258.0 71.6178153342689
265.0 70.74138283231092
272.0 71.16829195888913
280.0 70.74086203139098
290.0 71.41604263882611
300.0 72.40497204437861
307.0 72.18716255748221
315.0 72.47154916011391
325.0 72.49677208233055
335.0 72.47461121157659
345.0 72.71342053288875
355.0 72.26680352878886
365.0 71.59483443076716
375.0 71.14695941497598
387.0 71.40627550704961
400.0 71.84178456282072
412.0 72.30453367029176
425.0 72.59485029798832
437.0 72.86307212569604
450.0 72.71493664580541
462.0 72.22618648367413
475.0 71.20552684778173
487.0 70.09273198091164
500.0 70.1409656578212
515.0 69.95171214695362
530.0 69.99036961265807
545.0 69.9542665347022
560.0 69.5666821188175
580.0 69.13601297683346
600.0 68.60605784853558
615.0 68.28771492078731
630.0 68.34071901906245
650.0 68.59347033994496
670.0 68.68802395985375
690.0 68.22475733110531
710.0 67.18045506007454
730.0 66.87662172467412
750.0 67.77816564863913
775.0 68.78694198709985
800.0 69.32125861096682
825.0 69.34144145830403
850.0 69.10504586561366
875.0 68.7879731471078
900.0 68.433419384249
925.0 67.94061594465143
950.0 67.11822586302725
975.0 66.26112677854366
1000.0 65.90284799923211
1030.0 66.05941329009157
1060.0 66.03806193746642
1090.0 65.50892357153603
1120.0 64.99274451049007
1150.0 64.98942249813928
1180.0 65.09095619435232
1220.0 65.1170514703427
1250.0 65.41130819965717
1280.0 66.21843028686436
1320.0 67.08710684694975
1360.0 67.65787995162614
1400.0 68.06706845100993
1450.0 68.21003847250536
1500.0 67.56541534286713
1550.0 66.81456000629909
1600.0 65.90214570109154
1650.0 65.5179304366535
1700.0 65.57653194203567
1750.0 64.7979434886269
1800.0 63.65470631852767
1850.0 63.058798130062215
1900.0 62.46823838916838
1950.0 62.40781789349762
2000.0 62.732373689425955
2060.0 62.623042117252425
2120.0 62.838419734772515
2180.0 63.17470549881172
2240.0 63.59818532635025
2300.0 63.70074181794017
2360.0 64.21430265334372
2400.0 65.22674206307141
2500.0 65.53888351902282
2580.0 65.51934628911134
2650.0 65.42880759561136
2720.0 64.88430160761087
2800.0 64.52581216819945
2900.0 64.1356965078741
3000.0 63.42978466065482
3070.0 62.344239598047125
3150.0 61.40633864106334
3250.0 61.01172496958581
3350.0 61.06200946048146
3450.0 61.433143792481076
3550.0 61.940688943232374
3650.0 62.652277404404884
3750.0 63.26642402916946
3870.0 63.62467575394673
4000.0 64.27430927176957
4120.0 64.86162227584603
4250.0 65.76940688432137
4370.0 65.9740367031773
4500.0 65.53862177387431
4620.0 65.57322516499448
4750.0 65.37888162181558
4870.0 64.90597986578926
5000.0 64.91449606518067
5150.0 64.59324251669562
5300.0 65.0482499863579
5450.0 65.36915958798262
5600.0 64.41626951314093
5800.0 63.850954817094205
6000.0 62.831956803610865
6150.0 62.568760644459076
6300.0 62.64004915011026
6500.0 63.40563559159756
6700.0 62.84319058139694
6900.0 65.67384820999543
7100.0 64.83594263731389
7300.0 63.541176392581804
7500.0 63.93712245838307
7750.0 62.55578749015541
8000.0 62.446311162051245
8250.0 63.576385001163544
8500.0 61.9618718550563
8750.0 60.47562667797841
9000.0 61.511572323825845
9250.0 62.48835962663108
9500.0 61.063465271663034
9750.0 62.98469367264779
10000.0 62.572924907228185
10300.0 60.12538408718355
10600.0 63.33786570184962
10900.0 66.35997691287109
11200.0 63.51723131479305
11500.0 62.91778054326724
11800.0 65.419727196323
12200.0 65.1474385535996
12500.0 65.24338720478985
12800.0 64.7168380896138
13200.0 62.92807597739656
13600.0 64.33275849691113
14000.0 61.64171599226333
14500.0 62.10386219669499
15000.0 59.97367654156919
15500.0 58.08663788648349
16000.0 64.05630450232027
16500.0 61.36710308740865
17000.0 56.40993841986143
17500.0 58.34839070907424
18000.0 54.89075295782095
18500.0 57.867101252387954
19000.0 55.23124404398001
19500.0 53.24991299386939
