Freq,Floor Bounce,Ceiling Bounce,Front Wall Bounce,Side Wall Bounce,Rear Wall Bounce,Total Early Reflection
20.5078,45.696423304650494,48.899513036426725,45.78472725782089,48.75732002804645,55.14884144153797,50.45318067805675
21.9727,42.103544393466365,49.91547868981098,44.06533994304863,49.57183704108044,57.56648589976783,52.04896463997221
23.4375,41.55332452593049,44.66639137631887,38.81453672905215,43.6679670080938,55.54117291959437,49.37175597976096
24.9023,37.9756738947284,45.66686093425341,29.615389022788378,44.476987279152496,56.511430990229655,50.169969316278724
26.3672,40.353979048799886,46.70121886325376,36.55481455422901,45.73784949133227,57.85659839325291,51.523506392053946
27.832,44.258294057719354,47.9434101228218,42.23627209796612,47.21476615519143,58.752401838935754,52.59422141588422
29.2969,48.3844289721755,50.55294299599174,47.33587987213096,50.171123563311454,60.295440882381655,54.50580454830762
30.7617,53.06408657543375,52.77021636688744,52.08974919372423,52.7335340051481,61.55827946407916,56.38051253129382
32.2266,56.11409895826483,55.25496006646381,55.304762073581,55.45526583691941,62.99917477273385,58.362392382019664
33.6914,59.13779372961537,57.407029385253566,58.311675929693365,57.84507982902579,64.0761389698142,60.18153374857326
35.1563,60.99365544132317,58.907266582441395,60.16596026491098,59.44547070291327,64.96053835984188,61.515164848077916
36.6211,62.67876427833025,60.89269925892492,61.944563659001574,61.39066840593267,66.40454692511983,63.17777195040398
38.0859,64.60699765970205,63.04642544559539,63.96493247094696,63.53667046789744,67.90036316790103,65.00270610398746
39.5508,66.53407803503268,64.97916108308624,65.9289840315123,65.52164336340468,69.12087765247664,66.68367300190441
41.0156,68.4807119555356,67.01362564072237,67.9305872755642,67.55823782002544,70.53493431968988,68.4874773345417
42.4805,69.43725608938715,67.86269991027176,68.87311021638023,68.44047076011952,71.07781669747118,69.2852276268694
43.9453,70.4318558350297,68.99286267839545,69.89714606400533,69.555416211291,72.03180659630368,70.31279894838832
45.4102,71.41276504890811,70.11646513902387,70.91443869481601,70.65536423549159,72.93511049687872,71.31910402196502
46.875,72.50303476335648,71.37791997495594,72.05419423156678,71.87809141810656,73.9901974518368,72.45756755142028
48.3398,73.55014689405007,72.5041595488405,73.12016579601841,73.01147498523913,75.05480802810311,73.5406710354726
51.2695,75.18395106215802,74.29222862504552,74.78560989390341,74.79363469551004,76.56425903210723,75.19689679274147
52.7344,75.98541087687968,75.17109232785167,75.6067191862635,75.65973515607664,77.30927958502281,76.01110818255978
54.1992,76.80970781787312,76.08337011096374,76.45446146542216,76.5535093964262,78.12299699442146,76.86431088905564
55.6641,77.5600211747793,76.9087139215303,77.22781997950133,77.3616767166119,78.84251763110281,77.63407491874348
58.5938,78.87334367977498,78.27700228458932,78.55816355982144,78.7255738142538,80.01843049570412,78.93366839058626
60.0586,79.45453794177403,78.8625960497715,79.13929281631655,79.31763897580859,80.54618547834686,79.50403276990595
62.9883,80.53729335395191,80.02331487786516,80.24327291854415,80.46459032955752,81.5927942264004,80.6074639370664
64.4531,80.96866757882918,80.48752614051656,80.68272997994731,80.92526321956984,82.01249076391828,81.04884004903043
67.3828,81.54240879211017,81.06118671675823,81.2504525217549,81.51255439341446,82.51040528085537,81.60529658900523
68.8477,81.80695800087801,81.33262232839301,81.5149169636955,81.787879036387,82.7600082841014,81.86948282432596
71.7773,82.83849671088903,82.40572695625569,82.56069000951447,82.84926700221742,83.73031866209811,82.9019829400747
74.707,83.41082932846285,82.98611503074427,83.13588225510054,83.42583090570005,84.20435263741389,83.45354607299697
77.6367,83.57803720718911,83.15055058409634,83.29701458378388,83.60291866292442,84.356138908774,83.61743207801825
79.1016,84.00831943120674,83.58294790529963,83.72803914141332,84.03789411382638,84.76104282343502,84.04316663162456
82.0313,84.81576606204648,84.36892476644665,84.53175968948847,84.82879463626875,85.43377504224814,84.81129368215255
84.9609,84.99678215894336,84.52423401199489,84.72090382080545,84.96689890539965,85.38321081221763,84.92810510634499
87.8906,85.6217075655859,85.09532164345482,85.33834389534884,85.54005525062836,85.81235123461185,85.48847400015089
90.8203,85.84415885890131,85.3027404238894,85.51692979190783,85.81771647390312,86.3767077066359,85.78698010141841
95.2148,86.18030045863881,85.66297996344639,85.89052165788888,86.1354218991167,86.41975931653668,86.06549961721834
98.1445,86.36693143125552,85.80554469628412,86.05462865320055,86.30229521379945,86.565035555023,86.22681086799128
101.074,86.78881320796073,86.21411653119665,86.47270103036472,86.71601725957106,86.96120184515135,86.63833393258176
105.469,86.55942247749311,85.97765158769563,86.24400785048473,86.4919298371644,86.71913760437525,86.40614859470377
108.398,86.73299514062731,86.09937608414121,86.406848322181,86.6463974898487,86.83630476503643,86.5522957164244
112.793,87.34126148093874,86.66648520810583,87.01389370316502,87.18398123885632,87.20323750685505,87.08788770179952
117.188,87.03702049964335,86.41764576358977,86.7337742012617,86.88847085638928,86.87616413146417,86.79561619403069
120.117,87.37364130264478,86.75018900154186,87.06945743575967,87.21444565991871,87.22691803027436,87.13201663476107
124.512,87.40109493122688,86.70197496336608,87.08212271623368,87.19988207824278,87.08867062336473,87.10066628373522
128.906,87.19839974860969,86.4449273658778,86.8726667568756,86.94059758829887,86.64362795476218,86.8276887319516
133.301,87.32648441356991,86.60950299217708,87.01764987122752,87.07636576534271,86.73444284591271,86.96036764575193
139.16,87.0363755366801,86.28179243883676,86.70147188389208,86.76133683150837,86.45703780696792,86.65537057072609
143.555,87.25978630777186,86.46219569656985,86.90558154044838,86.9720968151266,86.74019137611718,86.87593923039384
147.949,86.88988438432013,86.08582100728466,86.54311031433686,86.62042680066006,86.4704027614783,86.52966224327764
153.809,86.9884052542031,86.06265872831014,86.63667614193038,86.60249739134974,86.2813205283349,86.52595953459839
159.668,87.21994099429645,86.2042978544211,86.82980317792111,86.74692561196903,86.20933193358513,86.65958524780103
165.527,87.1534663889407,86.2293527687303,86.81170651031556,86.73392239162645,86.1792513078459,86.6372317987804
171.387,86.97153519017508,86.0883737930359,86.6357024743256,86.57736925877536,86.0728084828855,86.48284988695188
177.246,86.79542226806392,85.91156092761321,86.47101217915076,86.38839824055363,85.94914973494645,86.31594806714766
183.105,86.66824940572148,85.6595206440642,86.31007254605473,86.16050110721827,85.66089575673607,86.10933962794076
188.965,86.68748113793148,85.71785066404186,86.3435971631881,86.18380466716354,85.59159905785579,86.12366683049521
196.289,86.73994937289422,85.74935283937896,86.41127327464886,86.220358911386,85.56094818492295,86.15770282359308
203.613,86.61081059204324,85.57533738912,86.27623286138282,85.99646045336223,85.24213442821855,85.96738473272198
210.938,86.55803040442997,85.42640108921361,86.20879275985914,85.93373884762634,85.08541505280772,85.87451792605792
218.262,86.42926525614581,85.30686262463902,86.07284191916285,85.79696434192232,85.02884266625443,85.75637302792703
225.586,86.34737580892102,85.18891481934594,86.01623167541288,85.64686635045051,84.87189741142294,85.6471268234133
232.91,86.40780220701033,85.25392042157507,86.0905277037196,85.66033388221592,84.65715032892925,85.65716123643952
241.699,86.2557826327637,85.22223639048298,85.93391634616104,85.46811206463951,84.40222916571443,85.50220172455194
250.488,86.20996137954147,84.84215003131254,85.76350128458772,85.27587136824566,84.20458584053655,85.31490719223709
259.277,86.3379751087935,85.02602638002844,85.9623616421141,85.48139822133986,84.39169323608576,85.49326972566845
268.066,86.01403542760666,84.5304085741868,85.52319681544571,85.03117419752121,84.01092623722417,85.0792473509227
276.855,85.98815273191386,84.27814654749727,85.52744616671774,85.03108373699098,84.05797559056147,85.03777483035759
287.109,86.006640619009,84.46259641052674,85.66762500795943,84.98865587936443,83.77417697910906,85.05361005311828
297.363,85.96283912036881,84.20861528110773,85.57554936554993,84.800017876495,83.62927383611134,84.9190397047588
307.617,86.16592429374649,84.25204969280806,85.73039769714158,85.23631375966703,84.1814425813513,85.18453680334918
319.336,85.675222297098,84.36255333079436,85.42636405330029,84.70049577516643,84.40617508382289,84.9479368754087
329.59,85.96443547530329,84.076591399634,85.58681498230254,84.47937005706063,84.14664532633884,84.92149299228232
341.309,86.10732651225045,83.615314322724,85.62158611205035,84.17369865477691,84.15367775964333,84.84164897667955
353.027,86.62130940679009,83.93225503818542,86.29650406586774,84.44227298846644,83.28738979292697,85.116606040412
366.211,87.04084343263668,84.39155877716493,86.6264156544591,85.04798806210476,82.65474437693834,85.42752645905992
379.395,87.07346227040591,84.610720024287,86.83955684937679,85.33511589883835,83.29465754350667,85.65137011910394
392.578,86.8097238047552,84.30039285154959,86.52413809414011,85.10895402843995,82.66994876221239,85.33324607018844
405.762,86.16227106184293,84.01074428027908,85.86436862060256,84.31715510161985,82.17045545034348,84.73046759452117
420.41,86.9300251161367,84.21881810251722,86.67058755955031,85.07009177276458,81.83071234652667,85.30385898870608
435.059,86.19268006847904,84.21054582129621,86.02926489883806,84.68760354796213,82.07651579196963,84.87483021495026
451.172,86.81593453762619,83.96919387418501,86.59499501691477,85.06536049512668,81.39709487974238,85.17283906170985
465.82,86.13361170947353,84.00587024441,86.20096275969773,84.90855755473711,81.30215391071157,84.83911752614144
483.398,85.88866098881938,83.57156012456446,85.82374786679758,84.4815255063611,80.86483960084745,84.47335751543089
499.512,86.02176827441832,83.37350389464174,85.80961589229801,84.3266679102586,81.4273598020374,84.49727433596959
517.09,87.19050099375403,84.53632778667351,87.08844597976884,85.14764473121481,82.69947754097171,85.64124893701697
536.133,87.02204166834127,84.06651414401031,86.8444558551162,84.92613150574756,82.1445166595126,85.35826572715982
555.176,87.5986205011112,84.27129923228006,87.59740170120425,85.91925773709406,80.96104191675418,85.87323844002711
574.219,87.26096032796222,84.33671106518575,87.4234627301206,86.02730983334237,81.09076604543216,85.76422405586581
594.727,86.58845422595383,84.16726821275348,86.81504311171142,85.70066820230895,81.28781408031523,85.32328297487561
615.234,86.67638243860746,84.41444319500943,86.82925888067275,85.62361241223245,80.48164027744686,85.31527540336958
637.207,86.39047406213821,83.21138214581316,86.66231993930805,86.1495739318841,81.62004520567191,85.22705418865338
659.18,86.46393743426856,83.43949272141879,86.77404901207406,85.79750031917736,80.9508737552576,85.16929228694362
682.617,86.41043606266447,83.31382757531455,86.57020704511511,85.47983532327919,81.07216320995593,85.0165589041994
707.52,86.61919238873112,82.76995873304047,86.71114158184966,85.49931247438462,81.0749925144299,85.0518372571601
732.422,86.38327458986811,83.42361261241082,86.38940463800446,85.11937808145514,80.46031071101874,84.84721372340164
757.324,86.17631043498356,83.67531741410211,86.29608758434642,85.04626052486157,80.61417959166414,84.79631863462856
785.156,86.31860628984623,83.61433599894931,86.46684524263351,84.82012355748363,80.24359081261511,84.80210719601564
811.523,86.54739224491657,83.72631039047707,86.6626525689433,84.64596632897505,80.84526407104823,84.95300079913105
840.82,86.80731966109937,84.66935888268046,86.98422202271553,83.87525264242792,79.54615190462198,85.0677732423951
870.117,86.51895800618024,84.18888549024669,87.18883873448686,84.54715627266361,80.5097523801051,85.13702778289525
900.879,86.6619327329397,84.16819217360946,87.47246465793596,84.15622342134301,79.59619857404175,85.14563150818728
933.105,85.79066459894129,84.79307864416278,88.02654841887922,84.67610199218106,79.8449673340531,85.32934712798013
965.332,87.04221034726416,85.44384294695814,88.50872257422685,85.23323382906109,80.1842737932804,86.02866022726796
1000.49,88.15736855244046,85.10174169508329,89.59589066708035,85.59686876952958,80.87121719235705,86.7653668300378
1035.64,88.12249393376959,86.10114414948987,89.56403813586071,85.72452846065934,80.4716329049304,86.89503428983983
1072.27,87.96955660216356,85.63059464310274,88.84587587946102,84.6308034430779,79.50376552664397,86.31136464261512
1108.89,88.1600166242824,85.6871150576417,88.27497155500568,83.94214358395853,78.60701842356194,86.0588582180088
1148.44,88.10310720091795,85.47100607296264,88.6083790058917,84.66575844675538,78.33630516615602,86.2021580254654
1189.45,87.6047995606013,84.86870533915821,88.8017061218975,84.60266950580854,77.86817948619431,86.00221743864546
1230.47,87.64590000064739,85.08373156175212,89.00337262022889,85.19299724478536,78.75405855059489,86.24187217409012
1274.41,87.52723888620929,84.84600615417699,88.73854611201224,84.73102714140084,78.05312763662182,85.97721289391886
1319.82,87.39693215131412,83.69205551610928,88.574820919167,84.81309856868074,78.07737188202297,85.72995274405335
1366.7,86.6962116077286,83.31212103636679,88.17382943389447,84.37565544897787,77.44065677024544,85.23173806259425
1413.57,86.53002999592722,83.52541172336572,87.79012869155866,84.11011419404228,77.55985372713263,85.02649345199654
1463.38,86.50511378690703,84.2070131880562,87.34858442398813,84.04877346354235,77.13520519655158,84.940053867592
1516.11,86.34117323088968,83.50543181350193,87.89061489130164,84.3120898185386,76.82293362313001,85.01902212183288
1568.85,86.17522489549522,82.72904894458672,87.84802943184172,83.8623577629759,76.37135864850703,84.76522663532555
1624.51,85.50520919491726,82.01974962251504,87.22744652362873,82.92439667970939,75.48174005409484,84.0619973326976
1681.64,84.41433001763436,80.49523308860032,86.48023200801647,82.09380022255111,73.72977286537721,83.09042253907438
1741.7,83.23308125229767,76.88109775001823,87.06130184990421,82.1547871973185,73.86997645007257,82.81588734662049
1803.22,82.41607277186115,77.50225560858956,87.33040403913479,82.70963773277785,73.90231376238708,82.93439888804042
1866.21,82.1939744845124,76.70860936237085,87.10971680107949,82.42588436755315,74.57916549613384,82.69571905243795
1932.13,81.66089089677367,76.26351209127697,86.49445397120299,81.92106298952788,74.3308637510147,82.1364598013374
1999.51,80.1824808997203,76.48304171176748,86.86210695380605,82.13168487882999,74.16491910928367,82.16835549310547
2069.82,80.34178236392513,74.14757585500938,87.85093912805688,83.2720188685906,73.66319048502514,82.92039402101321
2143.07,79.92856635677171,71.49275966395624,87.19600611959362,82.95733071793963,73.99662153247998,82.35260898804589
2219.24,79.48680431629506,74.55613285527728,86.46505497111511,82.13580461205083,74.6579360466026,81.77975039066348
2296.88,79.56971387457837,77.59625296992441,87.05263675911517,83.77520077921343,74.75695327037712,82.66598241965087
2378.91,81.186683546181,77.58507071153481,87.28871413188851,84.32168445446275,75.61480185842392,83.14431496482555
2462.4,81.09301982714513,79.22958062499733,86.20422120739622,83.7493793335478,74.7729742549879,82.53702993039322
2548.83,79.2597975340164,79.92804844832814,85.32565800123622,82.88770722138908,74.07209110901334,81.72317423772333
2639.65,78.10680099907545,80.422750517944,85.52829126184271,83.06268887227995,73.80265613042901,81.80958576255983
2731.93,77.84212966892659,80.86238072432828,85.28352771418115,82.89025169806958,73.36067494732225,81.68260658807276
2828.61,77.29963525745983,81.54210561210543,84.97004194365915,82.80275735208795,73.15203298633217,81.59394540313892
2928.22,77.34510851628467,81.3179201735566,84.69698913354495,82.46137577815014,72.44029933538226,81.32533615390386
3030.76,78.05056721373273,81.73385660491952,84.2157496998705,81.8615797278354,71.65782098480537,81.10624159037978
3137.7,79.15497624754808,82.19364634443582,84.26628709820474,81.73118400339861,71.22920067197096,81.31846363472344
3249.02,79.56944518809678,82.4927215706157,84.04999216930281,81.25646036557693,70.32031675414346,81.24833253824414
3363.28,80.43357960817242,82.9093323078643,84.14138003808874,81.0206291369967,69.87182692753942,81.47122254552704
3481.93,81.11224180806948,82.95937107498949,84.06134741993974,80.97719363414791,70.21348687275244,81.56764736016257
3604.98,81.90023722665204,83.17934339288463,84.6091255003423,81.24509037394674,70.48692473519378,82.02066387996504
3732.42,82.39217194412615,83.15511300725768,84.90737496578627,81.2152249106878,70.5379665109084,82.21888984586253
3864.26,82.72753735754799,82.82770661229549,85.0482130223857,81.12960960167406,70.89188787603152,82.25775717774617
4000.49,83.31962765004363,82.29689856631762,85.37584343574733,81.16867145361375,71.075463893064,82.42029016037729
4141.11,83.47177110110842,82.36036266776388,85.59034154313957,81.48704712155843,70.79428859342046,82.59944582260667
4287.6,82.8699274247798,82.28227399761951,85.44506960926418,81.46196951048022,71.53104211575527,82.39236601744808
4438.48,84.1320978023544,82.2343695214211,85.76977002080011,82.39144740283344,71.99015412679009,82.97991075154265
4595.21,84.94022960135405,82.33897780712638,85.82673890226125,82.37699180660921,71.48398599293654,83.23348429588293
4756.35,85.06238154868865,82.00720323274606,85.66205258829436,82.50431327863188,71.08758257709086,83.1752371066181
4924.8,86.08294516146142,81.580064205468,86.19788473070494,82.84057402605143,71.14438029925685,83.6983953527848
5097.66,86.82861239854819,81.94385363924236,85.74623689124026,82.83215646840641,70.48648761812582,83.86287295631828
5277.83,86.43075800389961,82.36059415421002,85.79202633171244,82.40144247065284,69.52294271892158,83.70741848990905
5463.87,86.14470148566564,82.56833619152329,85.79989334157239,81.7652441196987,69.31055889387613,83.54532950797525
5657.23,86.12933288468095,82.64227760042952,85.50289189751771,81.59577485341195,68.06603472797198,83.4232423080208
5856.45,85.21259285500601,82.55357410340908,85.8797199678839,81.33729586355152,68.54117508295377,83.19134035211724
6062.99,84.53895184457808,82.51414013796658,86.31144813996579,81.66056689940879,68.87060575234028,83.20052703702011
6276.86,84.75736276036764,82.14977534868179,86.50079100243752,82.2575462408281,69.48590828027407,83.37226081980995
6498.05,84.83322431078257,81.89604293312038,86.6691220054211,82.52861332750237,68.92254864168731,83.46463541730905
6726.56,84.94560282326057,81.86360873458128,86.71407172706168,82.2121363312163,68.42312483745735,83.45770525423397
6963.87,84.15036357893746,82.11402874803589,86.21263261637738,81.83473768109397,68.45972819533544,83.01209290854032
7209.96,83.65200747985202,82.07179497399832,85.95269234462934,81.55588351621198,68.15205865189532,82.7248647883451
7464.84,83.59724179927052,81.86873815680104,85.7998842911625,81.20160886218743,67.62910292336032,82.55542153792553
7727.05,83.42399664409243,81.6575337588428,85.96016196240484,81.09913665601843,67.70756711666068,82.5315862348792
7999.51,83.73127750083779,81.61604481874292,86.34166567257813,81.37695585913606,67.43262349657515,82.80911826334963
8282.23,84.28263769335005,81.49433791718785,86.81022443779518,81.46078286857278,66.8624821632671,83.15444334311468
8573.73,84.9081955560903,81.46957810239046,87.03110360704642,81.0729017922516,65.95546962205296,83.37113550891299
8876.95,85.28186637634198,81.3361628985401,86.94753416498705,80.67531686949249,64.59936161936692,83.3779179001223
9188.96,85.37894350457167,81.28183167569907,86.8287438197022,80.05917626825055,63.44783682860938,83.28292020494169
9514.16,85.72099582308292,81.320527207352,86.88345173920845,79.51168252801756,62.22895914189968,83.37588283475988
9849.61,85.68743759015463,81.3616006333338,87.0528222477762,79.1974511655335,60.69265163824838,83.41990598804013
