Freq "Side Wall Bounce"
22.4 48.82674606448549
23.0 49.72397815163302
23.6 50.58201316483061
24.0 51.30398528316607
25.0 52.08261735287789
25.8 52.7756524968714
26.5 53.261863447550695
27.2 53.64279359023567
28.0 54.263422301371094
29.0 54.91640947947542
30.0 55.478770837595675
30.7 57.275813427995814
31.5 59.00581528002721
32.5 60.501622854769266
33.5 62.1645083575288
34.5 63.57930858487677
35.5 64.85637944944929
36.5 66.24567622377556
37.5 67.56141422126822
38.7 68.85864002772622
40.0 70.35953676634634
41.2 71.77702813375932
42.5 73.09394366691731
43.7 74.241028867498
45.0 73.29701039845293
46.2 72.16443261981456
47.5 69.87332548233553
48.7 68.729137763855
50.0 68.28578770394375
51.5 68.40234648433483
53.0 68.87808090632524
54.5 69.40368891419655
56.0 70.00073666254309
58.0 70.56695013657696
60.0 71.05521220579563
61.5 71.48996710387077
63.0 71.91850559252168
65.0 72.33520576063798
67.0 72.69151821634992
69.0 73.00871292563792
71.0 73.30416369974013
73.0 73.62211485657886
75.0 73.8599236108578
77.5 74.09827528330334
80.0 74.25716770500468
82.5 74.43763933656038
85.0 74.51661639574364
87.5 74.55672416033175
90.0 74.49735411106597
92.5 74.33763933656039
95.0 74.17844738811104
97.5 73.95989117207806
100.0 73.78118982777973
103.0 73.76306835654263
106.0 73.96306835654265
109.0 74.36306835654264
112.0 74.90507199898413
115.0 75.42301940959138
118.0 75.88118982777974
122.0 76.18118982777973
125.0 76.30287699788002
128.0 76.30287699788002
132.0 76.02495778097682
136.0 75.61437276728836
140.0 75.17872440478126
145.0 75.08514293831885
150.0 75.43044476085194
155.0 76.0601524652449
160.0 76.67631773356557
165.0 77.15449719451479
170.0 77.44709916946167
175.0 77.57105979650434
180.0 77.5337644642248
185.0 77.27134711280506
190.0 76.87636427931453
195.0 76.44675391685513
200.0 76.11854842300427
206.0 75.87855443903295
212.0 75.818568102861
218.0 76.04355124232566
224.0 76.4129771154351
230.0 76.51508847057154
236.0 76.44125525556704
240.0 76.29581939282872
250.0 76.36476486605648
258.0 76.57935188277955
265.0 76.83382801431381
272.0 76.96312524882309
280.0 77.04638931786131
290.0 77.05787596519906
300.0 77.00381266645452
307.0 76.94426551682464
315.0 76.82925278120712
325.0 76.50782114518161
335.0 75.87565296323896
345.0 74.94861654750005
355.0 74.99991087228373
365.0 76.06388946337624
375.0 76.46850688126551
387.0 76.47689921710369
400.0 76.74243572258813
412.0 76.5338306860489
425.0 76.46774062512938
437.0 76.47769776627979
450.0 76.1776977662798
462.0 75.87800550489031
475.0 75.41315167229082
487.0 74.91541781069175
500.0 74.23477416592661
515.0 73.81475344141884
530.0 73.4593243201256
545.0 72.9463340279394
560.0 72.37455102815011
580.0 72.27623512770474
600.0 72.51363282929769
615.0 72.42637734798201
630.0 72.02876334004942
650.0 71.48103844724338
670.0 70.50418032581413
690.0 69.63313764078725
710.0 68.60838072225474
730.0 68.70492452691666
750.0 69.81250563395724
775.0 69.97672132841653
800.0 71.0268863997851
825.0 70.93470250276093
850.0 70.18220620566383
875.0 70.67997693174222
900.0 70.83720969599968
925.0 69.84538816564506
950.0 68.84615459794955
975.0 68.5177976082153
1000.0 66.66514565443636
1030.0 64.52216596031977
1060.0 62.080985011217464
1090.0 62.94108634306052
1120.0 64.5373383651181
1150.0 63.87874193103039
1180.0 62.16286722027526
1220.0 64.08421859471696
1250.0 63.16144027970225
1280.0 65.48634163462262
1320.0 66.11059772027214
1360.0 68.52853424979634
1400.0 70.53769304510861
1450.0 70.88130199757792
1500.0 70.72434612066755
1550.0 70.57519083665412
1600.0 70.19425696178683
1650.0 69.76539818107298
1700.0 69.4576546210061
1750.0 70.97794010946305
1800.0 71.75268278610092
1850.0 71.50418032581413
1900.0 71.08604349735273
1950.0 71.60570534559574
2000.0 70.31633585069122
2060.0 69.63173498084639
2120.0 68.84613803705778
2180.0 65.69665887480184
2240.0 63.33143363440419
2300.0 61.88886043225061
2360.0 62.4280742895813
2400.0 63.59544735862238
2500.0 64.71511735246264
2580.0 64.0013042353904
2650.0 64.3092445636048
2720.0 64.85176051343076
2800.0 65.23241096959083
2900.0 65.13872083986186
3000.0 65.15503719291878
3070.0 65.8632257433064
3150.0 67.47299011853038
3250.0 68.84177744118932
3350.0 68.80829485375935
3450.0 68.40713600711972
3550.0 67.29531686490017
3650.0 66.3534671896308
3750.0 66.01640818462893
3870.0 66.51847167448837
4000.0 66.74939975262883
4120.0 67.12721160858997
4250.0 67.42755005526581
4370.0 67.06055497721559
4500.0 66.44459364701572
4620.0 66.32772345603655
4750.0 65.62438444362552
4870.0 64.88173342732088
5000.0 64.86099052378836
5150.0 65.25241619979585
5300.0 65.23596828071526
5450.0 64.52699957188668
5600.0 63.16393695196463
5800.0 63.27885799079881
6000.0 64.43726373450622
6150.0 64.68364263950203
6300.0 64.30234797828169
6500.0 63.057060182617846
6700.0 62.59132577463424
6900.0 63.09470576585721
7100.0 63.50029060121351
7300.0 62.34340117251733
7500.0 61.94182134901375
7750.0 60.75240431517253
8000.0 61.644645936736566
8250.0 61.177577794415996
8500.0 62.39181308023136
8750.0 62.56941505208542
9000.0 60.888679164495045
9250.0 61.24902316358421
9500.0 63.5404129062254
9750.0 60.91299565300733
10000.0 57.416026834045795
10300.0 56.56599024302183
10600.0 63.30705009471019
10900.0 59.25328310370716
11200.0 58.93937522543729
11500.0 61.12877290881056
11800.0 59.8555277739127
12200.0 60.83320066133669
12500.0 58.43791274208046
12800.0 59.55779511169905
13200.0 59.46732188217682
13600.0 62.836603941197936
14000.0 57.230463304231236
14500.0 59.34705769775914
15000.0 56.87718700047513
15500.0 56.78577906730655
16000.0 53.62237884627123
16500.0 54.32708345003974
17000.0 49.047555888754886
17500.0 45.695631309735205
18000.0 50.26704763879613
18500.0 48.530720308300175
19000.0 47.741310012719225
19500.0 44.71272855672828
