Freq "Sound Power"
20.5078 74.58244547878358
21.9727 74.21759787344577
23.4375 74.77585102816965
24.9023 76.02416968185324
26.3672 76.72700432884417
27.832 77.45050118171844
29.2969 78.0553587466035
30.7617 78.58982806742237
32.2266 79.32781071446445
33.6914 79.84943151601544
35.1562 80.39371036498812
36.6211 80.79163875986092
38.0859 81.26889808070221
39.5508 81.83713360291955
41.0156 82.22456046740625
42.4805 82.69735114922
43.9453 83.21793031625936
45.4102 83.47715011965546
46.875 83.98729602737626
48.3398 84.4007985160307
51.2695 85.02037092012448
52.7344 85.39744171435301
54.1992 85.70645789244432
55.6641 85.99989797694406
58.5938 86.70028875861637
60.0586 86.97049133802257
62.9883 87.46159617221926
64.4531 87.67942725971878
67.3828 88.11149180705672
68.8477 88.31830653025884
71.7773 88.66704902033011
74.707 89.00643995852067
77.6367 89.29832074305767
79.1016 89.41216217144142
82.0312 89.58845917784672
84.9609 89.65970553528379
87.8906 89.74108332277041
90.8203 89.78644412339852
95.2148 89.74831211751031
98.1445 89.64375415789404
101.074 89.4285967315596
105.469 89.29254120760076
108.398 89.49793340411824
112.793 89.50872811156901
117.188 89.38261249406733
120.117 89.26622927273887
124.512 89.56737274121473
128.906 89.40852538996243
133.301 89.15321869151397
139.16 88.76095826407578
143.555 88.50475665559465
147.949 88.21661990640794
153.809 87.87188789413395
159.668 87.94395859545644
165.527 87.94261144594364
171.387 87.65507195986581
177.246 87.29024530154489
183.105 86.82204779301003
188.965 86.4549636829185
196.289 86.66537324499404
203.613 86.35036718692334
210.938 86.20071859648058
218.262 86.07148095019568
225.586 85.98181130975148
232.91 85.80191535298991
241.699 85.59021322364349
250.488 85.81227101354692
259.277 85.74851179972492
268.066 85.50063762269676
276.855 85.13584690143757
287.109 84.68316304432213
297.363 84.49706293581994
307.617 84.52767718248883
319.336 84.35497572928634
329.59 84.43532467291233
341.309 84.66717949879182
353.027 84.04494095302428
366.211 83.84219545830945
379.395 83.93588039883991
392.578 84.43337471223421
405.762 84.33852782054112
420.41 83.85857969200036
435.059 84.82523999497383
451.172 84.26168985241773
465.82 84.94297084024598
483.398 83.99382186914337
499.512 83.7692470118977
517.09 83.49559857164957
536.133 83.60118436231335
555.176 83.38812292547465
574.219 83.2416940719227
594.727 82.91681555259507
615.234 83.09189795003985
637.207 83.0656361806314
659.18 83.24946841337297
682.617 83.09656060896091
707.52 83.09365814403468
732.422 83.49743665523228
757.324 83.81462855464807
785.156 83.91247725289509
811.523 83.7740431617409
840.82 83.40773576790389
870.117 83.60033695693284
900.879 83.97527016255627
933.105 84.19390550313818
965.332 83.7296613252091
1000.49 83.53033678983071
1035.64 82.88794321583158
1072.27 82.30563859960567
1108.89 81.25657222825865
1148.44 81.25652006716577
1189.45 80.94868926177476
1230.47 80.93261994480407
1274.41 80.36391297012776
1319.82 79.96413903077138
1366.7 79.8038878457296
1413.57 80.10552398680743
1463.38 80.92391962920371
1516.11 81.62256661815059
1568.85 81.97169802800023
1624.51 82.31991886369775
1681.64 82.54610723956725
1741.7 83.50127328057717
1803.22 83.9506749433557
1866.21 84.24082769231863
1932.13 83.95005696538954
1999.51 83.79283892203976
2069.82 84.38485431908923
2143.07 84.43283398030309
2219.24 83.87536021746568
2296.88 83.50424665622427
2378.91 83.55853852315111
2462.4 83.32276994243924
2548.83 83.02284045290641
2639.65 83.04451740989617
2731.93 82.80409720992388
2828.61 82.76508062601947
2928.22 82.75328093668442
3030.76 82.291467074757
3137.7 82.30614033566408
3249.02 82.07795731202111
3363.28 81.5649800314369
3481.93 81.6234930167801
3604.98 81.43602632338475
3732.42 81.09657912347429
3864.26 81.13133263125937
4000.49 80.88510156199156
4141.11 80.78050201478909
4287.6 80.72378694691535
4438.48 80.52807259730717
4595.21 80.81204664110372
4756.35 80.65712251674346
4924.8 81.02508304508353
5097.66 80.78855332411206
5277.83 81.06837786443828
5463.87 80.71365425310174
5657.23 80.89045674954735
5856.45 80.58255715173462
6062.99 80.55290529363918
6276.86 80.58324351280184
6498.05 80.43724971656562
6726.56 80.37560666468704
6963.87 80.31014190337358
7209.96 80.08464904991632
7464.84 80.04580921311775
7727.05 80.2422799318592
7999.51 80.22424996409056
8282.23 80.18539950465897
8573.73 80.20149695817828
8876.95 80.22731921420404
9188.96 80.1354570683909
9514.16 80.11476780488158
9849.61 80.00399021783932
10196.8 79.97357296448851
10555.7 80.05361052662445
10927.7 80.31318423411868
11313.0 80.57223798089481
11712.9 80.73670471128668
12126.0 81.07808378222501
12553.7 81.31067808040986
12996.1 81.30928197623759
13454.6 81.44439221966185
13929.2 81.88278223617353
14419.9 82.44732295439513
14928.2 82.58846257225369
15455.6 82.28904476222016
16000.5 81.77289128087816
16564.5 80.97213451823185
17148.9 79.90141933505998
17752.4 78.82680836659624
18379.4 77.77397527348336
19026.9 76.67213997827872
19697.8 75.63416052763776
19999.5 75.15889158839867
