Freq "Side Wall Bounce"
22.4 27.647836754723144
23.0 30.31757631878729
23.6 33.22778843984135
24.0 36.60989381714687
25.0 39.362138990705134
25.8 42.74807827363328
26.5 47.92132965560869
27.2 50.668316763891355
28.0 51.99267342824611
29.0 53.969881032320856
30.0 56.62114635437753
30.7 60.12294036979169
31.5 63.33368192808372
32.5 65.59787547512308
33.5 64.8647441958429
34.5 65.5429373609375
35.5 66.78189248431406
36.5 68.81263722750876
37.5 70.82462096894675
38.7 72.7848591762543
40.0 74.77087016004555
41.2 76.62862292530905
42.5 78.5425079671946
43.7 80.35109728449599
45.0 82.16958689317094
46.2 84.5467367724147
47.5 86.86331998141563
48.7 88.91390431543589
50.0 90.0598577908909
51.5 87.05046641632362
53.0 86.95828881569635
54.5 87.5916789044539
56.0 88.24679910367486
58.0 89.10582566831381
60.0 89.88412156860389
61.5 90.69721827753608
63.0 91.31522427360996
65.0 91.7914720522429
67.0 92.32988465408721
69.0 92.84222438693196
71.0 93.1722137210486
73.0 93.64858052607875
75.0 94.04396845048443
77.5 94.2023023206405
80.0 94.24119983124486
82.5 94.3023023206405
85.0 94.32157071745497
87.5 94.24396845048445
90.0 94.14260029820791
92.5 94.02157071745496
95.0 93.78294805437281
97.5 93.42757995317386
100.0 93.15444294255579
103.0 92.82070188121241
106.0 92.46221459237073
109.0 92.16221459237072
112.0 91.86221459237072
115.0 91.66221459237073
118.0 91.5407911694502
122.0 91.45945612203076
125.0 91.27680320017619
128.0 91.13441685017132
132.0 90.89348307584659
136.0 90.62070188121243
140.0 90.42513717399446
145.0 90.17161637108524
150.0 89.94675666289935
155.0 89.6863606964899
160.0 89.35062593200185
165.0 89.01069317386167
170.0 88.7863606964899
175.0 88.50855764119328
180.0 88.13276641677855
185.0 87.62438615718179
190.0 87.03987465325564
195.0 86.45486813212618
200.0 86.03558189513117
206.0 85.87054643404953
212.0 85.9229020123103
218.0 85.93558189513116
224.0 85.68463808338923
230.0 85.64851891926837
236.0 85.53468076914872
240.0 85.21014178037858
250.0 84.86260301589647
258.0 84.51014178037859
265.0 84.1956680787522
272.0 84.43776512801809
280.0 84.45130410818516
290.0 84.45130410818516
300.0 84.3682888779278
307.0 83.94414367440864
315.0 83.65448951060213
325.0 83.82494858827161
335.0 82.78197204343118
345.0 83.18548893278343
355.0 83.90653839968097
365.0 84.0323787727299
375.0 83.48918864511194
387.0 82.72489721678505
400.0 82.39845659069837
412.0 81.6711916821754
425.0 81.416152015525
437.0 81.72587213185332
450.0 81.71609980067622
462.0 81.92768358044027
475.0 81.82832541628325
487.0 82.02419669289813
500.0 82.57195460597465
515.0 82.58739579875406
530.0 82.1701372346587
545.0 82.02459139245495
560.0 82.6146577080698
580.0 83.56525882582694
600.0 84.37717292730109
615.0 85.01755416652142
630.0 85.44756310638209
650.0 85.39768598586521
670.0 85.24032937602679
690.0 84.60003328889181
710.0 83.67736375010095
730.0 82.96669010152131
750.0 82.14557557910747
775.0 81.5143092427747
800.0 80.8761640784219
825.0 80.62416157733972
850.0 80.67771602838246
875.0 80.34992193802476
900.0 79.8400977926477
925.0 78.82584454919505
950.0 79.11391298182805
975.0 79.90270920541165
1000.0 79.89551986457113
1030.0 80.26162743505019
1060.0 78.66990450964043
1090.0 78.21470607757682
1120.0 78.35685805658338
1150.0 77.13464346884224
1180.0 76.22811238311952
1220.0 75.37938024050261
1250.0 76.50402628219493
1280.0 77.38635873976439
1320.0 78.65579585251523
1360.0 78.49907807200789
1400.0 78.42084008582505
1450.0 77.47533542964152
1500.0 77.7223402749871
1550.0 77.21951671561702
1600.0 78.75424445585958
1650.0 78.60793270688468
1700.0 77.68579727635407
1750.0 78.77067385468037
1800.0 77.81608996082855
1850.0 78.24811626914384
1900.0 78.53745291488976
1950.0 78.78175863180141
2000.0 78.70482932665054
2060.0 76.73099924710141
2120.0 76.91261099958948
2180.0 76.08613207508068
2240.0 77.7052700934502
2300.0 71.60976156452944
2360.0 76.99322241913629
2400.0 76.97660579120885
2500.0 76.63271488355727
2580.0 75.66263194127829
2650.0 77.6895774761016
2720.0 79.00420280931733
2800.0 79.85157071269848
2900.0 82.02341263535432
3000.0 82.56913444872009
3070.0 82.88318161789577
3150.0 83.51149847137391
3250.0 82.96339031423625
3350.0 83.46614621828631
3450.0 81.86499046976111
3550.0 81.99948247930676
3650.0 80.16661898133326
3750.0 78.95925552924854
3870.0 79.62126370930152
4000.0 80.88762415315723
4120.0 81.5293105466456
4250.0 80.26744324712438
4370.0 78.19200786609765
4500.0 76.96423413434032
4620.0 76.47862493046482
4750.0 78.45943548540868
4870.0 78.90449387445497
5000.0 79.26034436008018
5150.0 78.54299327288349
5300.0 76.98552936352532
5450.0 74.54083817178964
5600.0 76.8652764605332
5800.0 79.36115966027948
6000.0 80.86264732947636
6150.0 81.9788336863746
6300.0 78.65821653644903
6500.0 76.23086208386455
6700.0 77.52329945879667
6900.0 78.99797871502831
7100.0 80.60826535097031
7300.0 80.12559865499368
7500.0 79.1374458561588
7750.0 79.30757273940803
8000.0 79.66846016601538
8250.0 78.78091994047355
8500.0 81.64712161726885
8750.0 84.01701838783832
9000.0 82.81078102314271
9250.0 84.18598511548517
9500.0 85.1376075645067
9750.0 83.96207987593914
10000.0 83.33587070511985
10300.0 83.87371842987385
10600.0 81.85715367707003
10900.0 76.69403013037319
11200.0 74.53079877830535
11500.0 75.69293852784969
11800.0 80.35705947206789
12200.0 76.69767655934524
12500.0 74.79143948902869
12800.0 75.45460343823358
13200.0 76.08647520328778
13600.0 76.30748095287788
14000.0 72.47081690038453
14500.0 77.41252705980823
15000.0 73.65128899829499
15500.0 72.0188672063851
16000.0 75.11782171030062
16500.0 73.09037760888532
17000.0 78.19457783094553
17500.0 74.2034792567399
18000.0 72.78194018860366
18500.0 70.49659485378619
19000.0 71.47460683643007
19500.0 68.08529034482738
