Freq "On Axis"
20.0 -5.264507409772591
20.2909 -0.7871379786065233
20.586 2.1422686712835173
20.8855 4.192207434005809
21.1893 5.574024599684236
21.4975 6.54714824647678
21.8102 7.204014171607213
22.1274 7.609542721356377
22.4492 7.849676050262474
22.7758 8.060498173385696
23.1071 8.469440113234612
23.4432 9.354707765042207
23.7841 10.775873966207314
24.1301 12.381694225860457
24.4811 13.882337859526814
24.8372 15.163449799906175
25.1984 16.256616734861268
25.5649 17.28884898192132
25.9368 18.39155056596107
26.3141 19.601063388591626
26.6968 20.835109422456213
27.0851 21.971982628915157
27.4791 22.931948442038646
27.8788 23.72177511048295
28.2843 24.433066427496613
28.6957 25.176259805934166
29.1131 26.027557709713875
29.5365 26.994657788263282
29.9661 28.022774310023323
30.402 29.049080974037366
30.8442 30.031673892481564
31.2929 30.970140191757878
31.748 31.876443582935593
32.2098 32.76650068673885
32.6783 33.65469686212029
33.1536 34.543423509860105
33.6359 35.43107607172689
34.1251 36.31712856530655
34.6215 37.204550601827805
35.125 38.09988681504669
35.6359 39.00120235932067
36.1543 39.89604072242338
36.6802 40.77095103754317
37.2137 41.62694447518638
37.755 42.485500686738845
38.3041 43.36508631272356
38.8613 44.26314997743211
39.4265 45.1661702394873
40.0 46.06013063632062
40.5818 46.935558711058476
41.1721 47.78398315845733
41.771 48.59044197112743
42.3785 49.32894274824929
42.9949 49.99696657994076
43.6203 50.608983158457335
44.2548 51.17946476666296
44.8985 51.70243782647606
45.5515 52.16047650978649
46.2141 52.554686040392866
46.8863 52.901637515649895
47.5683 53.20281738922971
48.2602 53.4455505659611
48.9621 53.63414924658065
49.6743 53.80084703962636
50.3968 53.96359651034456
51.1299 54.11045803140672
51.8736 54.237182225940415
52.6281 54.35451744764046
53.3936 54.461625944941176
54.1702 54.54848088467023
54.9581 54.62395368550983
55.7575 54.686987878721695
56.5685 54.72665495660776
57.3914 54.753076071726895
58.2261 54.77725508842387
59.073 54.79994281026741
59.9323 54.83435724991541
60.804 54.89980744604455
61.6884 54.996823111599724
62.5857 55.116718398294125
63.496 55.238220658283964
64.4196 55.34093102147875
65.3566 55.438337859526825
66.3073 55.53336548878963
67.2717 55.62299318626627
68.2502 55.7276375156499
69.2429 55.85671119003476
70.2501 56.00316471195539
71.2719 56.156059034246084
72.3086 56.30697729976589
73.3603 56.449469442841064
74.4274 56.57258467678895
75.5099 56.68029847583509
76.6083 56.80150913110984
77.7226 56.94811143459546
78.8531 57.11802026802292
80.0 57.31378854724217
81.1636 57.49009333939847
82.3442 57.66248521424103
83.5419 57.86946944284104
84.757 58.0580093029662
85.9899 58.238517447640476
87.2406 58.42845390164314
88.5096 58.63533785952683
89.797 58.83876662729318
91.1031 59.01029814225626
92.4282 59.11196164346674
93.7726 59.19376886268276
95.1366 59.309065391031396
96.5204 59.45520628331181
97.9243 59.64867028355201
99.3486 59.85306539103141
100.794 60.05604271445651
102.26 60.251088297745184
103.747 60.44557681562108
105.256 60.64144351790219
106.787 60.832201779329665
108.34 60.98704222695787
109.916 61.11551744764047
111.515 61.24361967250951
113.137 61.3872591067168
114.783 61.536828606863565
116.452 61.677318505646056
118.146 61.82529847583508
119.865 61.969749408293694
121.608 62.10963751564992
123.377 62.25242350986008
125.171 62.384766627293175
126.992 62.50374245132775
128.839 62.605351559050945
130.713 62.66950121584139
132.615 62.69055060182782
134.543 62.73300930296621
136.5 62.79848521424104
138.486 62.82146944284105
140.5 62.84485849514354
142.544 62.876236551227336
144.617 62.87327281517467
146.721 62.882550601827816
148.855 62.944808461969814
151.02 62.970584676788974
153.217 62.94826049696758
155.445 62.93470791407867
157.706 62.87183109609566
160.0 62.76479172415284
162.327 62.77312131112134
164.688 62.782078138728565
167.084 62.85314997743211
169.514 62.795130636320636
171.98 62.65750068673886
174.481 62.610472365157065
177.019 62.60351795593563
179.594 62.607635385259556
182.206 62.62985849514355
184.856 62.681059034246104
187.545 62.74836548878963
190.273 62.84403392990188
193.041 62.87896657994075
195.849 62.89553061998416
198.697 62.934086312723565
201.587 62.83255871105848
204.52 62.70955871105848
207.494 62.620551342919555
210.512 62.56452417283525
213.574 62.4645062128868
216.681 62.42748088467023
219.833 62.411480884670226
223.03 62.47395103754317
226.274 62.430937106918265
229.565 62.3899786684466
232.905 62.359070194977136
236.292 62.38300342103139
239.729 62.39446845078241
243.216 62.47893756743525
246.754 62.54444058957725
250.343 62.55143943828523
253.984 62.57893756743526
257.678 62.563438517251456
261.426 62.582987878721696
265.229 62.55094447518637
269.087 62.48393998514898
273.001 62.4049786684466
276.972 62.053443582935614
281.0 61.94144197112743
285.088 62.07095656373323
289.234 62.24344058957726
293.441 62.394021035604254
297.709 62.41807019497713
302.04 62.32044058957726
306.433 62.1964953908427
310.89 62.35543713570057
315.412 62.31394643238119
320.0 62.263437826476064
324.655 62.269461312799066
329.377 62.40247236515707
334.168 62.49096657994076
339.028 62.49645509583945
343.959 62.49593998514899
348.962 62.57293814308146
354.038 62.716978668446586
359.188 62.81297440868995
364.412 62.76597866844659
369.713 62.730959672213075
375.09 62.7349878787217
380.546 62.854970379187876
386.081 62.90796301094905
391.697 62.88851196928593
397.394 62.85400906230501
403.175 62.71997440868995
409.039 62.749047745192456
414.989 62.68650068673885
421.025 62.700070194977144
427.149 62.64815999334226
433.362 62.60819142247762
439.665 62.55922492369672
446.06 62.498469442841056
452.548 62.48112856530656
459.131 62.46240092651897
465.809 62.50989404861846
472.584 62.420355460052406
479.458 62.3900661896694
486.432 62.40139749191995
493.507 62.3884925902274
500.686 62.41049259022738
507.968 62.47711403159636
515.357 62.54539073999928
522.853 62.66659651034456
530.458 62.803193249596575
538.174 62.9710349997614
546.002 63.14553996945932
553.943 63.3310882977452
562.001 63.55122065828395
570.175 63.75784468051198
578.469 63.98204072242339
586.883 64.1964435829356
595.419 64.39895103754316
604.08 64.59418071586612
612.866 64.78340865927817
621.78 64.9497494082937
630.824 65.11030481401112
640.0 65.2341645362523
649.309 65.33800403988954
658.753 65.4192909597573
668.335 65.47500976650728
678.056 65.49911403159638
687.919 65.48577431002333
697.925 65.45907904658691
708.077 65.38945841015885
718.376 65.2914244600816
728.825 65.17825815969007
739.426 65.03480744604452
750.181 64.87290757129087
761.093 64.70655178866231
772.163 64.5528809905515
783.394 64.40887336502506
794.789 64.30163821369473
806.349 64.25234746578944
818.078 64.27830707934864
829.977 64.38010531642715
842.05 64.55989555338162
854.298 64.81484803586292
866.724 65.12321666930579
879.33 65.47367453214011
892.12 65.84733558317993
905.097 66.21975677570966
918.262 66.56916672275499
931.618 66.88965129363325
945.169 67.16679082417137
958.917 67.39145686901726
972.864 67.55940096667584
987.015 67.66986430968025
1001.37 67.70733011493891
1015.94 67.68940483323922
1030.71 67.61067050946374
1045.71 67.47774610058482
1060.92 67.29034742069715
1076.35 67.06468731583745
1092.0 66.81678935460987
1107.89 66.54902520055379
1124.0 66.29154060158929
1140.35 66.05914939576753
1156.94 65.86415712877539
1173.77 65.7197269565779
1190.84 65.6297084418711
1208.16 65.6056760502625
1225.73 65.63400496507072
1243.56 65.72377431002332
1261.65 65.86443924509602
1280.0 66.06515641623906
1298.62 66.32263794470809
1317.51 66.63480805930438
1336.67 66.99018753509219
1356.11 67.37559380105722
1375.84 67.77864050001288
1395.85 68.17447813762853
1416.15 68.52722165655226
1436.75 68.8250123297494
1457.65 69.0601928504787
1478.85 69.22875442419803
1500.36 69.32244197112743
1522.19 69.34694861983353
1544.33 69.31243713570055
1566.79 69.2420034210314
1589.58 69.15771919626684
1612.7 69.07632439021872
1636.16 69.02410335144071
1659.95 69.00444197112745
1684.1 69.01591605579317
1708.6 69.03451292068414
1733.45 69.03480744604454
1758.66 68.99822558963534
1784.24 68.90156724832313
1810.19 68.73982860686358
1836.52 68.52194621737048
1863.24 68.27404222695785
1890.34 68.034623089321
1917.83 67.84316113957722
1945.73 67.72694140637108
1974.03 67.67292006195984
2002.74 67.64607019497714
2031.87 67.59227281517467
2061.43 67.46597277894371
2091.41 67.24951949107074
2121.83 66.9605768156211
2152.69 66.66923655122734
2184.01 66.44158219694567
2215.77 66.32714652353931
2248.0 66.30943924509603
2280.7 66.3058147966519
2313.87 66.24187336502507
2347.53 66.07957011599484
2381.68 65.85199948258065
2416.32 65.62551744764048
2451.46 65.46948521424103
2487.12 65.39689042252016
2523.3 65.35889042252018
2560.0 65.30476662729318
2597.24 65.23402736762858
2635.01 65.20765495660775
2673.34 65.26230481401112
2712.23 65.37407074711368
2751.68 65.47034220077141
2791.7 65.51570939086375
2832.31 65.54665046541719
2873.5 65.63004429155598
2915.3 65.76801766941549
2957.7 65.88340621346697
3000.72 65.89852662458931
3044.37 65.81380744604454
3088.65 65.7059463054025
3133.58 65.66413480157973
3179.16 65.68469242616894
3225.4 65.69259900542082
3272.31 65.64444358293561
3319.91 65.55144979990621
3368.2 65.46165495660776
3417.19 65.39235546005241
3466.89 65.36898215205943
3517.32 65.41779153010778
3568.48 65.54684059112404
3620.39 65.70913645210129
3673.05 65.81104429155599
3726.47 65.73658678434055
3780.67 65.44268284497916
3835.67 65.04699525820291
3891.46 64.84920177932968
3948.06 64.9486650876355
4005.49 65.10369686212029
4063.75 65.12829814225626
4122.86 65.14048521424104
4182.82 65.26094630540251
4243.66 65.41532877099309
4305.39 65.57000496507072
4368.01 65.84767605026249
4431.55 66.22235080492378
4496.01 66.55562597806482
4561.4 66.83146042844831
4627.75 67.02469118483386
4695.06 67.05935080492378
4763.35 66.97634705998281
4832.64 66.83123247586299
4902.93 66.57926165518681
4974.24 66.33090046664759
5046.6 66.25547243436093
5120.0 66.24561670719024
5194.47 66.1980289579039
5270.03 66.07492627262961
5346.68 65.72926634923428
5424.45 65.08681023896276
5503.35 64.10310061445698
5583.4 62.965904863494956
5664.61 62.20731179542885
5747.01 61.542792215118894
5830.6 60.673695044934746
5915.41 60.08003017126866
6001.45 59.202032840778784
6088.74 58.13320841837617
6177.3 57.69718872728525
6267.15 57.420537055781296
6358.31 57.91333687090389
6450.8 59.05408426796291
6544.62 60.33444126892189
6639.82 62.264967552885366
6736.4 64.2566574781329
6834.38 65.44794922800438
6933.79 66.05892884990891
7034.64 66.47903368778026
7136.96 66.43086602288808
7240.77 66.09937924818836
7346.09 66.01702218983277
7452.94 65.89521662700972
7561.35 65.81400575848149
7671.33 65.8447786724084
7782.91 65.99410598042533
7896.12 66.32564651988667
8010.97 66.74937681912908
8127.49 67.21599692410842
8245.71 67.7500763876729
8365.65 68.36532479335935
8487.33 68.86435315925651
8610.78 69.11642370181443
8736.03 68.98002276906917
8863.09 68.7430736092797
8992.01 68.49230277798642
9122.8 68.3253721289336
9255.5 68.27419675218721
9390.12 68.30786082458154
9526.7 68.47163365570742
9665.27 68.73496982515857
9805.86 69.0772163614293
9948.49 69.35685269118662
10093.2 69.20851196928594
10240.0 68.76348702989264
10388.9 68.64322065828395
10540.1 68.62360205955522
10693.4 68.51365558897456
10848.9 68.4786020595552
11006.7 68.55646515882268
11166.8 68.73967716583428
11329.2 68.89257011599483
11494.0 68.89939304224033
11661.2 68.78589272572111
11830.8 68.8984289039546
12002.9 68.72617344644249
12177.5 68.33524007285408
12354.6 68.15213475752121
12534.3 67.9567424558516
12716.6 67.64067908084392
12901.6 67.29947785235629
13089.2 67.01500496507073
13279.6 66.88864657137137
13472.8 66.84653061998415
13668.8 66.8269372220475
13867.6 66.64999948258064
14069.3 66.21242478149449
14273.9 65.60586082458153
14481.5 65.40891923891797
14692.2 65.78130273195109
14905.9 66.34507898103692
15122.7 66.74941329422876
15342.7 67.03902459968423
15565.8 67.21240219044942
15792.2 67.25632877099308
16021.9 67.23888116505802
16255.0 67.26901647168458
16491.4 67.36875821279136
16731.3 67.48065758769336
16974.7 67.50094203235957
17221.6 67.33661409930835
17472.1 67.02670030826197
17726.2 66.77182312663645
17984.0 66.46301253437875
18245.6 66.05881907744268
18511.0 65.6474454930019
18780.2 65.24409281106713
19053.4 64.89930636435666
19330.5 64.55799948258064
19611.7 64.27004774519244
19897.0 64.06447236515707
