Freq "Sound Power DI"
20.0 18.175937474365156
20.2909 18.174477478545327
20.586 18.176595834393567
20.8855 18.18228334285581
21.1893 18.194365259768432
21.4975 18.211187179101046
21.8102 18.234146435085563
22.1274 18.262302873391803
22.4492 18.295632006798655
22.7758 18.334297531748035
23.1071 18.377417240357687
23.4432 18.42431653546953
23.7841 18.47360165677975
24.1301 18.524023468705053
24.4811 18.573321777689273
24.8372 18.621742383017136
25.1984 18.66617131048261
25.5649 18.70628386532408
25.9368 18.741027445182283
26.3141 18.769555395522246
26.6968 18.791702912410955
27.0851 18.807245474211072
27.4791 18.816156284003284
27.8788 18.818539606895627
28.2843 18.815381701103917
28.6957 18.807929875797498
29.1131 18.796362708912397
29.5365 18.78254136509881
29.9661 18.767146447844425
30.402 18.751532935639858
30.8442 18.736524547498277
31.2929 18.72287741085293
31.748 18.711051449220378
32.2098 18.70195544302726
32.6783 18.694625198774048
33.1536 18.689368128791386
33.6359 18.685358791167175
34.1251 18.68289987405265
34.6215 18.680522105004684
35.125 18.678495876686497
35.6359 18.676792971902742
36.1543 18.675018508916594
36.6802 18.674510827575403
37.2137 18.67509815622215
37.755 18.67795504897009
38.3041 18.6836172372076
38.8613 18.692614137568256
39.4265 18.705357127245918
40.0 18.720745338161464
40.5818 18.738381348734478
41.1721 18.756101469719894
41.771 18.772565999119223
42.3785 18.78502909446162
42.9949 18.792507905970027
43.6203 18.79250425935551
44.2548 18.786754336134322
44.8985 18.775019178345303
45.5515 18.760683625117352
46.2141 18.746451707818537
46.8863 18.736778194670478
47.5683 18.734462619597494
48.2602 18.743546456854347
48.9621 18.765034468325638
49.6743 18.797513035980643
50.3968 18.838578020817863
51.1299 18.884114829018387
51.8736 18.927578113820843
52.6281 18.96381912498802
53.3936 18.987211375040346
54.1702 18.99581673501477
54.9581 18.988789501205915
55.7575 18.970155558221265
56.5685 18.94479568133552
57.3914 18.91997210853772
58.2261 18.902798405027752
59.073 18.899851410489276
59.9323 18.91245246045213
60.804 18.939171737887932
61.6884 18.976148104230944
62.5857 19.015054891537815
63.496 19.049480341503525
64.4196 19.07295901346137
65.3566 19.084128699976276
66.3073 19.085197385085166
67.2717 19.0789702426717
68.2502 19.074155560207785
69.2429 19.075564956396164
70.2501 19.08630901276392
71.2719 19.106107711639538
72.3086 19.13001041525571
73.3603 19.152231285010032
74.4274 19.166740742367622
75.5099 19.172739713411502
76.6083 19.171705942712606
77.7226 19.168452967418943
78.8531 19.16951562594167
80.0 19.178745253792925
81.1636 19.195538648732693
82.3442 19.21633830049622
83.5419 19.234751065555372
84.757 19.245133190575785
85.9899 19.248119954382304
87.2406 19.24548751454948
88.5096 19.244447650986416
89.797 19.24894024784105
91.1031 19.260452854564292
92.4282 19.275981226534597
93.7726 19.290403421126072
95.1366 19.298370741283023
96.5204 19.299206762227698
97.9243 19.29615065414262
99.3486 19.294644831043982
100.794 19.300410655414098
102.26 19.314235376035214
103.747 19.333642659202994
105.256 19.350952926476964
106.787 19.36082559530307
108.34 19.363852102175144
109.916 19.365823702858933
111.515 19.373003017923295
113.137 19.385819399911057
114.783 19.398872315568852
116.452 19.406298733728605
118.146 19.408211991855424
119.865 19.412409640263107
121.608 19.42409590702772
123.377 19.44123003349702
125.171 19.45378441208574
126.992 19.456501287058416
128.839 19.453146892094466
130.713 19.453527301609896
132.615 19.46154842549781
134.543 19.472893772473867
136.5 19.48269154766426
138.486 19.48883189720911
140.5 19.494718800267492
142.544 19.499388620329057
144.617 19.502073114199305
146.721 19.5037969322413
148.855 19.50855795073042
151.02 19.518485701872336
153.217 19.531393930796156
155.445 19.54401823593963
157.706 19.554533631822395
160.0 19.563858817955463
162.327 19.57110315642211
164.688 19.574721102158364
167.084 19.577519405254122
169.514 19.582965208434416
171.98 19.59522025206951
174.481 19.61216955382224
177.019 19.627887297113773
179.594 19.633642717701292
182.206 19.624757166546573
184.856 19.623618682349203
187.545 19.642636136338226
190.273 19.661547180069135
193.041 19.65977509578167
195.849 19.65443261791249
198.697 19.66534473984973
201.587 19.682851138641553
204.52 19.693570350687352
207.494 19.699634799598044
210.512 19.707351093437154
213.574 19.721996824201923
216.681 19.734127968653
219.833 19.743771272949203
223.03 19.761025190024057
226.274 19.764242718562713
229.565 19.752693031869057
232.905 19.763974846945544
236.292 19.78879060021754
239.729 19.805970041724095
243.216 19.82498572511446
246.754 19.841078888397135
250.343 19.85201358320107
253.984 19.864030761277718
257.678 19.878102225904158
261.426 19.895546353264777
265.229 19.91263902839991
269.087 19.926949697495175
273.001 19.944792366478794
276.972 19.97149782889305
281.0 19.990002743640076
285.088 20.005242814527918
289.234 20.033838709890134
293.441 20.05692836023097
297.709 20.08565016564232
302.04 20.11160323671787
306.433 20.13026524414336
310.89 20.164144699517024
315.412 20.183670065073827
320.0 20.2217424825576
324.655 20.25482292007696
329.377 20.28151546783147
334.168 20.31633761212761
339.028 20.360332324259048
343.959 20.395691678454938
348.962 20.43680709574231
354.038 20.476387282818123
359.188 20.525532550944476
364.412 20.568399359169973
369.713 20.619600383964865
375.09 20.666324497639707
380.546 20.71892369334256
386.081 20.77827367800876
391.697 20.83782004205166
397.394 20.894950297416983
403.175 20.956335197543865
409.039 21.018228879090216
414.989 21.08187628134766
421.025 21.1547985371013
427.149 21.216317183793038
433.362 21.271118626606665
439.665 21.33990648788756
446.06 21.400755831003323
452.548 21.451437234812232
459.131 21.499375581943696
465.809 21.547381704086774
472.584 21.591208190957545
479.458 21.623188030107556
486.432 21.64371657733814
493.507 21.6639960108093
500.686 21.663364853161042
507.968 21.675997009892086
515.357 21.6832110770022
522.853 21.68658529090925
530.458 21.688006606190058
538.174 21.699101739572413
546.002 21.706724291707218
553.943 21.729105391469687
562.001 21.757177718180102
570.175 21.79351399996534
578.469 21.832751497095146
586.883 21.886784783559264
595.419 21.942553990214336
604.08 22.006656072850248
612.866 22.077639154768406
621.78 22.159756738530575
630.824 22.240479850957556
640.0 22.3253775349517
649.309 22.409633233853484
658.753 22.505266540786906
668.335 22.59425197741386
678.056 22.683783602128102
687.919 22.76647787630675
697.925 22.842081217737785
708.077 22.91027951870265
718.376 22.960419564335254
728.825 22.999230767470962
739.426 23.00425767155157
750.181 22.987123767110333
761.093 22.9400532226079
772.163 22.856478464204287
783.394 22.74439510670649
794.789 22.601498539903176
806.349 22.449027020481807
818.078 22.29769079369663
829.977 22.163656142384085
842.05 22.059927974152316
854.298 21.99147046661355
866.724 21.96670478144101
879.33 21.975392226281855
892.12 22.01648034081319
905.097 22.080540525333234
918.262 22.162099327780155
931.618 22.254690754891058
945.169 22.351265864244937
958.917 22.446010334346923
972.864 22.535105243404416
987.015 22.621950615768966
1001.37 22.696149376733146
1015.94 22.75684742383011
1030.71 22.803368528798487
1045.71 22.830996284383218
1060.92 22.840260126262805
1076.35 22.82989547984627
1092.0 22.800427807786704
1107.89 22.751977333470563
1124.0 22.69593148732804
1140.35 22.637740147344758
1156.94 22.586998898783534
1173.77 22.556505571384605
1190.84 22.5507327850015
1208.16 22.586504126969572
1225.73 22.665477753761934
1243.56 22.78891440566136
1261.65 22.952426264366935
1280.0 23.14945302108117
1298.62 23.370757961022207
1317.51 23.60988649335731
1336.67 23.859033783340905
1356.11 24.122057289211156
1375.84 24.399482188605205
1395.85 24.68509410607568
1416.15 24.98480821942259
1436.75 25.30365231210324
1457.65 25.636897642050727
1478.85 25.965191243771542
1500.36 26.26742761178619
1522.19 26.518056391867546
1544.33 26.690410140678637
1566.79 26.77473310619287
1589.58 26.77763442520302
1612.7 26.729380463217765
1636.16 26.67187902218774
1659.95 26.643168136961307
1684.1 26.658574557718666
1708.6 26.71293854336558
1733.45 26.77690806752412
1758.66 26.82304572675399
1784.24 26.823504965333996
1810.19 26.77100935910842
1836.52 26.689730258069375
1863.24 26.608999704227003
1890.34 26.566820333198535
1917.83 26.584036745646372
1945.73 26.65189189114031
1974.03 26.729229090011728
2002.74 26.763697183252333
2031.87 26.729053099869333
2061.43 26.634443677106148
2091.41 26.50964255824836
2121.83 26.389769979214122
2152.69 26.302291963637145
2184.01 26.248455961726833
2215.77 26.218196429498178
2248.0 26.189792316970397
2280.7 26.148543316719184
2313.87 26.087704386647914
2347.53 26.010040657285032
2381.68 25.915138439366643
2416.32 25.807354458761665
2451.46 25.704997398971216
2487.12 25.61717103490804
2523.3 25.55018054737458
2560.0 25.495698001262795
2597.24 25.43546405365511
2635.01 25.37304653321135
2673.34 25.32225436991031
2712.23 25.293754777535
2751.68 25.288299146848544
2791.7 25.292778558281725
2832.31 25.310524755597044
2873.5 25.353910985846255
2915.3 25.434349504570065
2957.7 25.530997305388183
3000.72 25.609175417254463
3044.37 25.653738856169383
3088.65 25.675245058211118
3133.58 25.705181301068563
3179.16 25.744196244018966
3225.4 25.75948826966571
3272.31 25.712684576267833
3319.91 25.618486093974255
3368.2 25.530766570334592
3417.19 25.497148248291197
3466.89 25.51959137569787
3517.32 25.56767482720427
3568.48 25.616112737857634
3620.39 25.65367050675482
3673.05 25.668320102549814
3726.47 25.639378556994657
3780.67 25.5637011243424
3835.67 25.49525374853276
3891.46 25.532808870544784
3948.06 25.697627521138443
4005.49 25.87441592701539
4063.75 25.96089437448562
4122.86 25.995090629243492
4182.82 26.09918026912345
4243.66 26.303274469681327
4305.39 26.51745205671594
4368.01 26.707014615291683
4431.55 26.913861653965427
4496.01 27.121877546362057
4561.4 27.217116704050298
4627.75 27.15643248414237
4695.06 27.00606229000107
4763.35 26.852715507063934
4832.64 26.724482199386074
4902.93 26.5902140870016
4974.24 26.505882746928606
5046.6 26.58677122629851
5120.0 26.72004972128559
5194.47 26.74277777818986
5270.03 26.74261385009126
5346.68 26.6824305644071
5424.45 26.39702604038699
5503.35 25.94828928392245
5583.4 25.494547000000992
5664.61 25.186432541758094
5747.01 24.90696506877927
5830.6 24.599931021309246
5915.41 24.453910098368382
6001.45 24.259909607227073
6088.74 24.046776828875622
6177.3 24.09379653257669
6267.15 24.23623638671586
6358.31 24.47450272128873
6450.8 24.818756074684956
6544.62 25.113284522791773
6639.82 25.502815776866797
6736.4 26.021550513361206
6834.38 26.486701378311125
6933.79 26.885143392337127
7034.64 27.14114748804758
7136.96 27.140000221912032
7240.77 27.02986661734728
7346.09 27.08276600673277
7452.94 27.087999947344457
7561.35 27.147341861480726
7671.33 27.33513868588335
7782.91 27.514226425416993
7896.12 27.6564949361847
8010.97 27.817163443230314
8127.49 27.978069690215506
8245.71 28.32434888136531
8365.65 28.680838410883823
8487.33 28.98093679156389
8610.78 29.075351650687992
8736.03 28.913161467202187
8863.09 28.674896113921818
8992.01 28.489852744624187
9122.8 28.408058014432967
9255.5 28.40532728203027
9390.12 28.43990745273794
9526.7 28.540294240326475
9665.27 28.62300963815973
9805.86 28.754161213894733
9948.49 28.937568166066697
10093.2 28.897817450280826
10240.0 28.522581579592867
10388.9 28.216000725234437
10540.1 28.127539923846683
10693.4 28.08565723316292
10848.9 28.137042522146857
11006.7 28.24853460536761
11166.8 28.396589219145824
11329.2 28.47392957111326
11494.0 28.4829741809516
11661.2 28.43804258387445
11830.8 28.385896350888714
12002.9 28.15785649302319
12177.5 27.955122845465056
12354.6 27.943584573389117
12534.3 27.938158700244784
12716.6 27.904857411880627
12901.6 27.898750712191315
13089.2 27.884046755547672
13279.6 27.82309368413786
13472.8 27.79098829257265
13668.8 27.79008247671348
13867.6 27.83981744238477
14069.3 27.955216723582865
14273.9 28.013965293930568
14481.5 28.051618412643137
14692.2 28.26141138997427
14905.9 28.597384247724165
15122.7 28.86150664084259
15342.7 29.095611715847724
15565.8 29.28836772627035
15792.2 29.45864631651061
16021.9 29.587523363026094
16255.0 29.74756978693685
16491.4 29.92383362279719
16731.3 30.101630570763447
16974.7 30.257834403217444
17221.6 30.481753663387266
17472.1 30.688329935894558
17726.2 30.882127541129066
17984.0 31.029588009340628
18245.6 31.13624877941689
18511.0 31.236381572217596
18780.2 31.32178806188972
19053.4 31.433360690406758
19330.5 31.518279171526004
19611.7 31.598312267691085
19897.0 31.7635707000599
