Freq "Side Wall Bounce"
20.6 68.40560863655276
21.2 69.12920498266139
21.8 69.83273640649335
22.4 70.54938663372063
23.0 71.2600174384119
23.6 71.9359173633355
24.3 72.65198088479761
25.0 73.3685130196929
25.8 74.30679222117101
26.5 75.03422925437665
27.2 75.44743865685862
28.0 75.96970040724702
29.0 76.89200544339778
30.0 77.78583985569084
30.7 78.3947893098311
31.5 79.00915946132626
32.5 79.75198450477441
33.5 80.48033106375958
34.5 81.15887639289406
35.5 81.77477398489592
36.5 82.30454938535064
37.5 82.76502399440349
38.7 83.26627907940183
40.0 83.74956262267935
41.2 84.14407939256321
42.5 84.4933656643848
43.7 84.7385503317812
45.0 85.03021798196113
46.2 85.25046063244524
47.5 85.43931320942784
48.7 85.58543158803556
50.0 85.72086929585356
51.5 85.86854656998733
53.0 85.98428654721366
54.5 86.07323805612478
56.0 86.1388079187102
58.0 86.18894218601955
60.0 86.21571208908205
61.5 86.23718346706146
63.0 86.25856318566156
65.0 86.25762494356336
67.0 86.15090248921639
69.0 86.11444687621616
71.0 86.08610407539376
73.0 86.04594125053123
75.0 85.99509360883206
77.5 85.9060358077084
80.0 85.82114445994736
82.5 85.78688639892106
85.0 85.77282112592464
87.5 85.76724763304922
90.0 85.72631477569209
92.5 85.67578162159231
95.0 85.6246583171727
97.5 85.58946071780434
100.0 85.55053709486029
103.0 85.46332991039448
106.0 85.37528819292424
109.0 85.39993534523381
112.0 85.53061838225099
115.0 85.53111353456711
118.0 85.36812204498993
122.0 84.98704733322397
125.0 84.91089376431019
128.0 84.82968554494717
132.0 84.743752640691
136.0 84.6818332645504
140.0 84.61863885027503
145.0 84.50484524134018
150.0 84.4425990011444
155.0 84.40143072646741
160.0 84.33795900018268
165.0 84.30074453281752
170.0 84.466611423653
175.0 84.32839686017672
180.0 84.06221801410771
185.0 83.94662975141446
190.0 84.17909542505873
195.0 84.7611391200816
200.0 84.75577177818676
206.0 84.51855966736565
212.0 84.33168280462348
218.0 84.32340700152949
224.0 84.34188618938582
230.0 84.85896196799705
236.0 84.9590307629404
243.0 84.52518203469005
250.0 84.45296878842804
258.0 84.6637793637579
265.0 84.74285355713285
272.0 84.19598095051573
280.0 83.72315382445157
290.0 84.48780044945008
300.0 85.2468513838644
307.0 85.50027636302381
315.0 84.9663186344271
325.0 84.30973222992576
335.0 84.43315344774607
345.0 85.013003115359
355.0 85.17428914419816
365.0 84.68310645319184
375.0 84.0938728189033
387.0 84.84024031477038
400.0 85.40884808742722
412.0 84.74723466544148
425.0 84.51035872566206
437.0 85.44703595269249
450.0 84.8330476260108
462.0 84.31109988039259
475.0 84.47323120435205
487.0 84.78174875662026
500.0 84.80510951285281
515.0 84.75708802734862
530.0 84.32079878192629
545.0 84.15296447253473
560.0 84.48819964982741
580.0 85.14235824493986
600.0 84.99834541838467
615.0 86.0561098560715
630.0 84.87679449360795
650.0 84.39581212351078
670.0 84.18926015928893
690.0 83.9375021153944
710.0 84.03188260422664
730.0 83.8708042863795
750.0 83.34436819112163
775.0 83.04988854339018
800.0 83.28756492737034
825.0 83.08264894259545
850.0 82.6623701634738
875.0 83.00805072836158
900.0 83.48294015001201
925.0 83.3738186545444
950.0 83.3216110369737
975.0 83.43300744126422
1000.0 83.73686258291795
1030.0 82.81919771657894
1060.0 82.80507001817533
1090.0 82.69745687661552
1120.0 82.57144653219086
1150.0 82.73384916692824
1180.0 82.47002599345213
1220.0 82.39710005691762
1250.0 82.55158854852527
1280.0 82.64151000530478
1320.0 81.96787493201036
1360.0 81.76284838920179
1400.0 81.29406445103115
1450.0 80.921840092872
1500.0 80.79132307193701
1550.0 80.39680723669669
1600.0 80.20285487578981
1650.0 80.44856006311005
1700.0 80.83169566873653
1750.0 80.9918791627941
1800.0 80.5006852642181
1850.0 80.11766040962634
1900.0 80.13663635846204
1950.0 80.55663299045746
2000.0 81.307757646093
2060.0 81.67079037849169
2120.0 81.48249292354419
2180.0 81.33519265025225
2240.0 81.51897128018965
2300.0 82.09249777849845
2360.0 82.30152195157116
2430.0 82.65076770791191
2500.0 82.90182098135543
2580.0 82.93236421731748
2650.0 82.81529161739299
2720.0 82.78143231494735
2800.0 83.0460965774649
2900.0 82.78384815884563
3000.0 82.14470340818679
3070.0 82.04932571837529
3150.0 82.1831663418312
3250.0 81.76391631632254
3350.0 81.32121948153198
3450.0 81.2692619036033
3550.0 81.27562050604546
3650.0 81.2671340246202
3750.0 81.2304717332885
3870.0 81.29410308562349
4000.0 81.97095167627529
4120.0 81.93495466253067
4250.0 82.07635085625111
4370.0 82.22553114815705
4500.0 82.20450726675834
4620.0 82.05080449132197
4750.0 81.96682370962716
4870.0 81.96861078180783
5000.0 81.67679095305373
5150.0 81.3290803520947
5300.0 81.37608910666441
5450.0 81.2706874535615
5600.0 81.17323479175383
5800.0 81.18642194137266
6000.0 81.63028160903585
6150.0 81.65107173296902
6300.0 81.42704070497598
6500.0 81.46374622292554
6700.0 81.17428933052578
6900.0 80.78171094374451
7100.0 80.68171248531587
7300.0 80.52817116103324
7500.0 80.1938221080849
7750.0 80.10195968308058
8000.0 80.27224287107012
8250.0 80.10648060216923
8500.0 79.86289583957337
8750.0 79.73672548728399
9000.0 79.67167009194725
9250.0 79.60454380029368
9500.0 79.49712329028984
9750.0 79.36756161240821
10000.0 79.2892720634544
10300.0 79.26237728234335
10600.0 79.28266786873019
10900.0 79.29016462989686
11200.0 79.34623365891046
11500.0 79.35899932318483
11800.0 79.34947645665747
12200.0 79.36338798201334
12500.0 79.31266110390145
12800.0 79.25206324380376
13200.0 79.16189849898086
13600.0 79.09498624114163
14000.0 79.08154530895244
14500.0 79.07113460319088
15000.0 78.94264277294852
15500.0 78.420171719943
16000.0 77.91461130122774
16500.0 77.63853418035615
17000.0 77.33431498128948
17500.0 76.95206528914451
18000.0 76.37798679068055
18500.0 75.70077556694606
19000.0 75.21639049070467
19500.0 74.94031042923831
