Freq,Floor Bounce,Ceiling Bounce,Front Wall Bounce,Side Wall Bounce,Rear Wall Bounce,Total Early Reflection
20.5078,99.82350045892393,100.18511545620943,99.71073502620101,100.42070757450693,102.89168812134383,100.78247907490365
21.9727,102.28602790802447,102.6904800828996,102.19740083670085,102.90165668196767,105.25306506639836,103.22715367438903
23.4375,103.59916662739627,104.02751656760739,103.50612006597575,104.26110571443667,106.66348284940767,104.58362332797725
24.9023,104.78315543016322,105.17934675067798,104.6824690778801,105.42142223413096,107.75173497383322,105.72562573014395
26.3672,105.37835300258324,105.82842923394116,105.30109269240282,106.02827939265396,108.35250325158172,106.33800109220667
27.832,105.87470286398424,106.30099598942796,105.7892377432706,106.51029165037727,108.86363520317768,106.83088345890472
29.2969,106.15867814766462,106.61081431687616,106.08109848779559,106.81254151368546,109.20066440811611,107.14106018483619
30.7617,106.2886606973691,106.77502222696361,106.22039808422474,106.96679390243703,109.40074428853353,107.30567013873613
32.2266,106.39364340078602,106.88298719146647,106.32737085287457,107.06827183113649,109.51311838038643,107.41323890978295
33.6914,106.38576770479614,106.82151656760739,106.29807823765677,107.04373100836467,109.52985522612042,107.39753307166528
35.1563,106.40755593820688,106.78501477163394,106.29636388016144,107.04270266066136,109.54745080320541,107.39993230123946
36.6211,106.35557530908632,106.71326532276075,106.23877463740617,106.97979274902845,109.49622546886741,107.34189099255656
38.0859,106.24957530908634,106.59149838300186,106.1293216419529,106.86302107164627,109.39597222529832,107.23253992875514
39.5508,106.19547999164317,106.53930473006825,106.08357059199216,106.79676064355051,109.30493768652796,107.1657120523051
41.0156,106.00981216449749,106.33762284376418,105.89312602096896,106.6053473327882,109.16373220274888,106.9900935235839
42.4805,105.83784982750574,106.16806889055051,105.71900870237107,106.44040441752753,109.03148660318759,106.83263572648562
43.9453,105.79546895073807,106.08210320092329,105.66922823042628,106.36041441560411,108.93129015435701,106.75562989130385
45.4102,105.73976431058833,106.00489122431142,105.61090772569757,106.28070217331174,108.82471899123374,106.67470753545663
46.875,105.64340319292737,105.89583204209865,105.51287275592809,106.1709308172527,108.71667525788898,106.5696284344877
48.3398,105.65061287684235,105.86273978842726,105.52122924104916,106.12928333497241,108.59844205486216,106.52037430532691
51.2695,105.52941751524462,105.67550219212325,105.40209485569137,105.9282988120324,108.35387874022625,106.33404945968555
52.7344,105.37946361408619,105.5024785941779,105.24109356182673,105.76746038347133,108.22140931474456,106.18195882086448
54.1992,105.41707624057229,105.5196855183958,105.27792457072076,105.78132402893971,108.19989386858967,106.19279046130788
55.6641,105.48595270675676,105.57308871477795,105.35659599975156,105.81329417715324,108.14944390259446,106.21631833998352
58.5938,105.48577345996162,105.5149482456981,105.36294523287594,105.72493527369869,107.95245371822662,106.1304703515189
60.0586,105.50440022417683,105.49674041564076,105.3789172213307,105.70346627681768,107.89148626419491,106.11085152957092
62.9883,105.68295785656149,105.57401436750719,105.54901444773638,105.77353442388902,107.80909061439644,106.17322168102069
64.4531,105.64222409015497,105.46917806491493,105.50571625047337,105.67043106743901,107.6433184891319,106.07333351465972
67.3828,105.68975297852788,105.5838087706682,105.59457553404879,105.68905662809361,107.6095750541611,106.11154143767345
68.8477,105.71974791191754,105.58641702501012,105.6207218715933,105.68409565542471,107.55086347510381,106.10475015775701
71.7773,105.77837395795741,105.55200399029829,105.67292685327611,105.62860661961449,107.24529539144403,106.02581273487975
74.707,105.89266761324893,105.59080723884664,105.80226077546538,105.61717029059632,106.9676860361051,106.0055360968838
77.6367,106.03634363867296,105.65644983829662,105.94797086765847,105.6475919137207,106.77874078316167,106.03364965296986
79.1016,106.0803555260326,105.6393965675387,105.98638693377568,105.6195189280981,106.64333957570074,106.01011128752933
82.0313,106.05575019303136,105.48131374224691,105.95757398308128,105.44574437231698,106.24885643926504,105.84957662486352
84.9609,105.99117992067544,105.35840393361588,105.90490805407921,105.28888483968062,105.97054458294696,105.71385141839986
87.8906,106.00690307522189,105.34748046751778,105.92157222652001,105.2291662872405,105.72618672038831,105.65714801296792
90.8203,106.22640852452307,105.57419710146239,106.16587545003458,105.34966835683014,105.4348460131479,105.76621809487581
95.2148,106.30065795840915,105.49468155449564,106.23351923506542,105.19479950922569,104.69321296825105,105.62653828875203
98.1445,106.33624053425251,105.4348189740351,106.27257392804358,105.08394585067583,104.19257692770529,105.535319131132
101.074,106.29477704301054,105.31732867637234,106.23082224520448,104.92659714912972,103.75314226419135,105.40164503942307
105.469,106.26774634497669,105.18204290745174,106.22491706858426,104.68512087110075,102.91369988133906,105.21704922773753
108.398,106.29455669601101,105.16302886828787,106.24645488324552,104.59026268125358,102.49033118993191,105.16115161544204
112.793,106.2397080459097,104.9757962325751,106.16848820635767,104.33781040171687,101.71120207042486,104.96604241512938
117.188,106.0793608561589,104.5040675167373,105.94454984277694,103.92519096791344,100.95555144509805,104.63031682088737
120.117,106.10149863608459,104.55879269738291,106.00275193667477,103.94769908168789,100.72573168784774,104.64766593147212
124.512,106.30068280201544,104.72746717020986,106.19996012084738,104.06367507100651,99.95551546873628,104.75492512347788
128.906,106.4009806277744,104.75373593369505,106.2970327719883,104.03453152972817,98.96548932271259,104.75292135222392
133.301,106.43426646836645,104.76623141886932,106.35128019268082,103.9355009006812,97.9540498814553,104.71641764716676
139.16,106.37555768271935,104.5227301742799,106.24578306540309,103.63039263329082,96.98028601730799,104.53091285018989
143.555,106.52154570828466,104.51044107694595,106.36402243434404,103.67901432670789,96.70424281854449,104.60732062683927
147.949,106.56863138988096,104.62439479015532,106.4410554279266,103.73053358343374,95.73578717771295,104.64795263666888
153.809,106.47620939918009,104.51279609922094,106.36231420235944,103.52097521203429,94.47445823569207,104.51059090146603
159.668,106.27518659241338,104.39636062322937,106.16849146425517,103.30172285142541,93.81022665515574,104.31724942996848
165.527,106.28201392153248,104.24904839549595,106.13214909516859,103.19139813914892,93.0857850551081,104.24915835160985
171.387,106.4179099711802,104.57239137740291,106.29724643682275,103.34380343897993,92.61594464020378,104.42615157487172
177.246,106.47863370166316,104.56794248907025,106.34431752237245,103.30703484999941,92.2294971645947,104.44850195691497
183.105,106.43214131711096,104.58466978557847,106.27126756839803,103.21036434028429,91.75879984767468,104.39438000138382
188.965,106.84251646101815,104.90180327417201,106.64714772353013,103.5554081538983,91.59855762357952,104.75894910515865
196.289,106.62604966651517,104.91471708382424,106.45815444043019,103.32571569662497,91.2984852102795,104.59654136865447
203.613,106.74549275870766,104.68906187923093,106.4667661761283,103.22754235033999,90.79863648185537,104.571534800121
210.938,106.91088668142027,104.93608802634452,106.68710292874465,103.38538287416428,90.56411371967687,104.76655604077717
218.262,106.70926824367403,104.931733336364,106.43235724609252,103.24886458753176,91.53565351447811,104.61001812599919
225.586,106.69273141383724,104.42986094948535,106.17400819967,102.78316770919646,91.35710827888065,104.35250215576995
232.91,106.75708211212063,104.18670084777406,106.28409623269906,102.88315623824683,90.56953070368404,104.36734092913906
241.699,106.40308609787668,103.96048551328809,105.9560478382719,102.52029939065767,90.09257399104987,104.04393971210447
250.488,106.14585890546897,103.51296298582417,105.75173057116089,102.18259924956602,90.22551768632212,103.75868868866277
259.277,106.48367142775432,104.2553219542064,106.22302289852533,102.97042893468672,90.53124172276497,104.28123352058422
268.066,106.33335756810806,104.77317398082917,106.11338676208165,102.93943293061945,92.94045843108522,104.3299684170174
276.855,106.29860962168668,103.34247541228902,105.58391419928202,102.04623757916836,91.50093633876347,103.72319155890767
287.109,106.53554587628672,104.14805188713908,106.16954996982386,102.43386044868298,91.76532391816977,104.19746389324135
297.363,106.09119594330026,104.65828423922633,106.12320632214809,102.5585403517599,90.37575256695456,104.14827282562102
307.617,105.82466349104706,103.89457638511227,105.54645077543844,102.0602463315725,93.34890888752531,103.68648632126045
319.336,104.89790457730803,103.82620089825332,104.74991236644672,100.89926403336148,91.4464024059393,102.94777282403928
329.59,105.04228693265816,104.20696365136709,104.97679483991331,100.5506680099491,91.87763730563583,103.12279164880732
341.309,105.11207987077627,104.07529630472554,105.18404300965467,101.14141441001624,90.1234948948289,103.223603385722
353.027,105.98340454258982,105.17366850178871,106.18618408470643,102.26693391306745,91.79945788227106,104.23224132294052
366.211,106.38924613507166,105.06070063513523,106.53888656540565,103.37327716483084,90.45701445508101,104.57990802597931
379.395,106.45940967754417,104.78207543448502,106.42719733848392,103.40980817284664,91.77133312392466,104.52352164380808
392.578,106.38316142249936,105.14863203294713,106.77767393987455,103.82546094931365,92.10030201937339,104.75889911354672
405.762,106.84092937463912,104.62448128964444,106.97974611702993,103.68058605856089,92.95340783286215,104.84347678860762
420.41,105.89528843645616,104.68130759633988,106.30235529757537,103.06765305561332,91.34505957606498,104.23434858544752
435.059,106.5381350135726,104.80372915799535,107.12619684502599,103.80067939974353,92.69092062518112,104.84967112382688
451.172,105.34978565216906,104.33677519590927,106.0076028755888,102.85299949453939,91.02916614255082,103.86876069649065
465.82,104.46628653252543,103.73847924750247,104.99526521230823,102.00322936985175,91.83093176301892,103.0358577491206
483.398,105.25858285972922,103.87211684025156,106.00097541378435,102.1845077050064,91.52977935813158,103.64481541911587
499.512,104.67968763358687,103.63130527485373,105.45868635765042,101.9739328374449,91.48517848115404,103.2120896484758
517.09,104.85529476869266,103.2235583599307,106.19085068523209,102.77092127447555,92.37958774945182,103.57360716719961
536.133,104.31140519138452,103.15549713382069,105.61171056793104,102.32824727216405,91.20894920864015,103.11695194157204
555.176,103.08803102019625,102.87397850840034,104.55389489547048,101.34218015036478,90.03080938710151,102.19622871394937
574.219,103.86400679052026,103.82363902911527,105.3943753798745,101.92315339151219,91.87905879676339,103.01918858830402
594.727,102.76386707039813,103.88432794791768,104.94803564682243,101.8975602466614,91.45844848910951,102.62359058243963
615.234,102.89863167569288,103.88773348253157,105.1010322463931,101.65439235554179,91.09658813827119,102.66048253078647
637.207,102.92921923319871,103.27659160790012,105.38771987906551,102.26327477749938,90.93991061587407,102.72081256737555
659.18,103.22428423711813,103.70612736127032,106.00219799144892,102.45749794500165,91.73769214310607,103.15626065911795
682.617,102.5280394423927,103.4670231964897,105.31259207010092,102.18676655460531,91.65844593734046,102.65332277569215
707.52,103.41972336173248,103.91782708194175,105.71233911357513,102.27267183554157,91.97123893341114,103.11053473136484
732.422,102.78904221937174,103.330643586143,105.69770405126145,102.16053349799895,91.53943523666389,102.81227253544085
757.324,103.16684077338611,103.631892055747,105.57734264468021,101.77822987295806,92.1721214993116,102.86183989794165
785.156,102.48382048858224,102.752632981008,105.73822296400925,102.10168494131973,91.87601608441379,102.63925772471327
811.523,102.60859453092354,102.50225139370195,105.50149733546564,101.43501437165065,91.5525295350218,102.39869595680834
840.82,101.64186742580233,101.84810107503328,105.17274850569379,101.44167093302524,90.97520139065091,101.93087104424637
870.117,102.42415616372686,101.47220512382339,105.83615739140106,101.6054914491352,91.82169402954855,102.34723827256616
900.879,101.74005097262054,100.58523903766667,105.21638977002813,101.57200586098983,91.45779711864445,101.78225138204954
933.105,102.248615064186,100.21616530423626,105.65013280708521,101.7697789325988,92.09769007279564,102.07763463878223
965.332,101.99271322491168,100.80288268815157,105.4823832470914,101.71660267996576,92.01386121477076,102.0209792977418
1000.49,101.94552061515738,100.0222252971994,105.74199402292493,101.93695872973154,92.05269315458511,102.06512642756967
1035.64,100.41435423411191,98.81377448500078,105.22692362124513,101.64060815835367,92.18428394684341,101.34647274292723
1072.27,99.47362085851032,96.74363275116274,105.52286594956631,101.57869825053521,91.84072292117487,101.15032780232647
1108.89,98.65193793986295,94.01634422335337,105.4268693538773,101.94883973158753,91.94752126238414,100.93218000603727
1148.44,98.60242605462585,93.3931084931986,105.72101740493595,102.07438977600853,91.75968541720873,101.0984020603459
1189.45,97.69874154775195,91.79520256428385,105.56006930981003,101.72374932611055,91.65566152880616,100.77079999236099
1230.47,97.25390338946096,89.54387040101966,105.66546955987647,101.59389513290515,91.5711468073412,100.71463476283061
1274.41,96.45443707259919,88.01563529808385,105.46464497741961,101.22932426485428,90.42752066599594,100.38401125538347
1319.82,95.79939802302508,90.8310249959373,105.0306100526955,100.81023261247093,89.84519227219974,99.98910171491977
1366.7,95.06126527825273,92.65969282655726,105.16491789668224,100.2791065297829,89.52795171242856,99.9528028575556
1413.57,95.69556004191935,94.48301245180141,105.04222123798792,99.808454585779,88.31451052640668,99.88536868437
1463.38,96.56004641025422,94.66596721169513,104.98305961879458,99.5818879035688,88.9825248671994,99.89718098684624
1516.11,97.28923586415122,95.25907228308057,105.1333813213416,99.65704804681774,89.51129855434394,100.12474484459995
1568.85,97.86686036579626,96.3063759710555,105.13342932450887,99.74088414972823,89.1984852982578,100.27372752530839
1624.51,98.1076455789626,97.65057739624994,104.69771966310195,99.68289241098465,90.56931553567509,100.1888556177622
1681.64,98.21968708326531,99.43943393828316,104.51524269483888,100.00444528909674,90.63950354639768,100.40426999966076
1741.7,98.55435529896664,99.20798115689935,105.08623700037093,100.73776832790969,90.13948200013076,100.838090300739
1803.22,99.16974081419279,100.2129353362142,105.30874769137955,100.800088879956,90.96906863586398,101.20495117222288
1866.21,100.3857970549042,100.74715704912425,104.65663944963478,100.45105422217003,90.53820267846623,101.08913299954708
1932.13,99.95390405938005,100.9481708475414,104.08407781444681,100.10400534123288,90.34127490106289,100.73852790769944
1999.51,100.46467073979963,101.22112968753588,104.39347277683828,99.95317841105629,89.31606606101356,100.97771667874487
2069.82,100.3438063344659,100.64755725843793,104.89058524442052,100.28491633761082,89.00653494015393,101.12211936509087
2143.07,100.65425201299388,100.71104002568528,104.20306694055284,99.76136718531001,88.01660657646228,100.77910741561469
2219.24,100.91312246271745,100.92217201407712,103.8881058101963,99.27794090349948,88.04454278209458,100.66633346245463
2296.88,100.86938494793489,100.81628047154643,104.04275010174081,99.19718974975306,87.52289326356295,100.68400952880684
2378.91,101.12938941263602,100.70307579799206,104.30838896679471,99.52901022731453,87.34453019890427,100.87848592151646
2462.4,101.63909545178048,100.65078577764547,103.95417953873081,99.49258193620078,87.79089869834027,100.8318379928266
2548.83,101.76338441249854,100.32234876848753,104.04316949697952,99.37192524746725,86.91247993552126,100.81300581325905
2639.65,101.93132085662928,100.51663078927686,104.15277612432521,99.32872069322984,86.8647671666533,100.92968940965358
2731.93,102.27075989175842,100.10703633211261,104.50037962727767,99.52568924605852,86.63007319433203,101.12135240141029
2828.61,102.24712279211383,100.3819137589932,104.27860947892243,99.14621029450895,86.69137162287053,101.0148108077436
2928.22,102.17627204756577,100.09560663428279,104.11393029112783,98.61102686730847,85.73087357929796,100.80276652629412
3030.76,102.13613332014671,100.51143801004368,104.7800212872639,98.87709339685259,85.55653184808678,101.1889524487712
3137.7,102.23285791881244,100.171513852527,104.0714503216728,98.49349606374705,85.83706606123509,100.79995397818749
3249.02,101.95284437237294,100.47328253567458,104.4571831582414,98.18411207064345,85.38016901400682,100.910648108972
3363.28,102.28420454616148,100.51638942884341,104.33884560638347,98.52892789897365,85.02292837926707,100.98887525666665
3481.93,102.47082749317781,100.26722990762966,104.38550508808902,98.41559524104878,85.96077350886216,101.00967319096654
3604.98,102.59899761858962,100.81516475775302,104.33393452070932,98.32680413169817,84.70507667999162,101.10469439029218
3732.42,102.35308684181493,100.27236568331014,104.75414309641725,98.76940076501025,86.02764061622157,101.18291266042047
3864.26,102.29272142879499,100.55996305117554,104.62031806183282,98.47296214401896,84.80780635288956,101.11556814664422
4000.49,102.50094297418738,100.24960789128846,104.59823407251267,98.61452558663757,85.25541123472493,101.12677645715495
4141.11,101.98474975247555,100.34175520883466,104.5787861754351,98.27157594943097,84.1291270568264,100.95429954824387
4287.6,101.61752900438381,100.06654512812229,104.07675134633925,97.73556673279955,84.2937308141754,100.52614020136781
4438.48,101.84342395972423,100.34248103467066,104.68339836697187,98.20194608140456,83.9795907356646,100.95989217778286
4595.21,102.32486378120409,100.48915363266109,104.60583075109388,98.19590286275948,84.23619776402991,101.07326216542674
4756.35,102.18805176189008,100.64134715324518,105.14969215559249,98.44567846374721,83.7352029363168,101.34184643282002
4924.8,102.56298298903802,100.78817803043248,104.86526867296786,98.22063610241526,84.1121204881716,101.30883474839607
5097.66,102.21019822833578,100.83330626160763,104.94591919110486,98.66597517355008,83.43216808976285,101.30701472161505
5277.83,102.00701258162624,100.83413641152822,104.95992896153652,98.16291046941257,84.13334252928327,101.21455947010668
5463.87,102.10142891926745,101.20558073634139,104.96227309549322,99.01772366386587,83.6826617701659,101.39762448800103
5657.23,102.15806023209178,101.37071743553922,104.94248544896654,98.62850953675434,83.4527779807442,101.39045765026964
5856.45,102.59368521388852,101.51235420675552,105.22403946861266,98.78091162041063,83.54123446940224,101.66794742599473
6062.99,102.88545718093883,101.7394557260822,105.41751736135974,99.29204319707301,83.27131493411193,101.9246346660124
6276.86,103.0181172304155,101.83210631245481,105.07790979775908,99.20738263987337,83.32402035680887,101.8199164155613
6498.05,103.14120944911369,101.64200758035005,105.40732078560268,99.32191048611799,83.34713652606882,101.97058075045533
6726.56,103.03163303119663,101.66602545580884,105.51545051175945,99.2357870545352,82.68797175793807,101.98405544375358
6963.87,103.01446801047729,101.5655740523503,105.28545511441015,99.13188229809097,82.94646974150007,101.84781561953425
7209.96,102.86487433978498,101.34802595105337,105.29290225598206,99.17615875211237,82.71670664123786,101.77646836693727
7464.84,102.74393980965012,101.13278021506315,105.42294338235878,99.1572443323652,82.25509686549611,101.7639170326595
7727.05,102.67398948474408,101.06634651426788,105.43111599325842,98.81254101664783,81.7897756106145,101.70111762660686
