Freq "Total Early Reflection"
20.5078 101.35134271126729
21.9727 103.79601731075267
23.4375 105.1524869643409
24.9023 106.29448936650759
26.3672 106.90686472857031
27.832 107.39974709526837
29.2969 107.70992382119984
30.7617 107.87453377509978
32.2266 107.98210254614659
33.6914 107.96639670802892
35.1563 107.9687959376031
36.6211 107.9107546289202
38.0859 107.80140356511879
39.5508 107.73457568866874
41.0156 107.55895715994754
42.4805 107.40149936284926
43.9453 107.3244935276675
45.4102 107.24357117182028
46.875 107.13849207085134
48.3398 107.08923794169056
51.2695 106.90291309604919
52.7344 106.75082245722813
54.1992 106.76165409767152
55.6641 106.78518197634716
58.5938 106.69933398788254
60.0586 106.67971516593457
62.9883 106.74208531738434
64.4531 106.64219715102337
67.3828 106.6804050740371
68.8477 106.67361379412066
71.7773 106.5946763712434
74.707 106.57439973324745
77.6367 106.6025132893335
79.1016 106.57897492389297
82.0313 106.41844026122716
84.9609 106.2827150547635
87.8906 106.22601164933157
90.8203 106.33508173123946
95.2148 106.19540192511568
98.1445 106.10418276749564
101.074 105.97050867578672
105.469 105.78591286410118
108.398 105.73001525180568
112.793 105.53490605149302
117.188 105.19918045725102
120.117 105.21652956783576
124.512 105.32378875984152
128.906 105.32178498858757
133.301 105.28528128353041
139.16 105.09977648655354
143.555 105.17618426320291
147.949 105.21681627303252
153.809 105.07945453782968
159.668 104.88611306633213
165.527 104.8180219879735
171.387 104.99501521123537
177.246 105.01736559327861
183.105 104.96324363774747
188.965 105.3278127415223
196.289 105.16540500501812
203.613 105.14039843648465
210.938 105.33541967714082
218.262 105.17888176236283
225.586 104.9213657921336
232.91 104.9362045655027
241.699 104.61280334846812
250.488 104.32755232502642
259.277 104.85009715694787
268.066 104.89883205338104
276.855 104.29205519527132
287.109 104.766327529605
297.363 104.71713646198467
307.617 104.25534995762409
319.336 103.51663646040292
329.59 103.69165528517097
341.309 103.79246702208565
353.027 104.80110495930417
366.211 105.14877166234295
379.395 105.09238528017173
392.578 105.32776274991036
405.762 105.41234042497126
420.41 104.80321222181117
435.059 105.41853476019052
451.172 104.4376243328543
465.82 103.60472138548424
483.398 104.21367905547952
499.512 103.78095328483944
517.09 104.14247080356326
536.133 103.68581557793568
555.176 102.76509235031301
574.219 103.58805222466766
594.727 103.19245421880328
615.234 103.22934616715011
637.207 103.28967620373919
659.18 103.72512429548159
682.617 103.22218641205579
707.52 103.67939836772848
732.422 103.3811361718045
757.324 103.4307035343053
785.156 103.20812136107692
811.523 102.96755959317198
840.82 102.49973468061002
870.117 102.9161019089298
900.879 102.35111501841318
933.105 102.64649827514587
965.332 102.58984293410545
1000.49 102.63399006393331
1035.64 101.91533637929088
1072.27 101.71919143869012
1108.89 101.50104364240092
1148.44 101.66726569670955
1189.45 101.33966362872464
1230.47 101.28349839919426
1274.41 100.95287489174711
1319.82 100.55796535128341
1366.7 100.52166649391924
1413.57 100.45423232073364
1463.38 100.46604462320988
1516.11 100.69360848096359
1568.85 100.84259116167203
1624.51 100.75771925412585
1681.64 100.9731336360244
1741.7 101.40695393710264
1803.22 101.77381480858652
1866.21 101.65799663591072
1932.13 101.30739154406308
1999.51 101.54658031510851
2069.82 101.69098300145451
2143.07 101.34797105197833
2219.24 101.23519709881828
2296.88 101.25287316517048
2378.91 101.4473495578801
2462.4 101.40070162919025
2548.83 101.3818694496227
2639.65 101.49855304601722
2731.93 101.69021603777394
2828.61 101.58367444410725
2928.22 101.37163016265777
3030.76 101.75781608513485
3137.7 101.36881761455113
3249.02 101.47951174533564
3363.28 101.55773889303029
3481.93 101.57853682733018
3604.98 101.67355802665583
3732.42 101.75177629678412
3864.26 101.68443178300787
4000.49 101.69564009351859
4141.11 101.52316318460751
4287.6 101.09500383773145
4438.48 101.5287558141465
4595.21 101.64212580179039
4756.35 101.91071006918366
4924.8 101.87769838475971
5097.66 101.87587835797869
5277.83 101.78342310647032
5463.87 101.96648812436467
5657.23 101.95932128663328
5856.45 102.23681106235837
6062.99 102.49349830237604
6276.86 102.38878005192494
6498.05 102.53944438681897
6726.56 102.55291908011722
6963.87 102.41667925589789
7209.96 102.34533200330091
7464.84 102.33278066902315
7727.05 102.2699812629705
7999.51 102.13893395995387
8282.23 102.04107865427473
8573.73 101.98826795235703
8876.95 101.92560471397023
9188.96 101.88209220611675
9514.16 101.84314542901559
9849.61 101.83581962892079
10196.8 101.74404104909365
10555.7 101.67196105954241
10927.7 101.82767898503717
11313.0 101.92920735378894
11712.9 101.79029430877533
12126.0 101.86918230960089
12553.7 102.1450405179937
12996.1 102.27026975659042
13454.6 102.10337049919191
13929.2 101.8519079102413
14419.9 101.68679042854619
14928.2 101.92761563765292
15455.6 102.00457880881568
16000.5 101.7968907892263
16564.5 101.51692522579339
17148.9 101.25960697232667
17752.4 100.64511569630118
18379.4 99.62664623436599
19026.9 98.6051007942393
19697.8 98.09999271141383
19999.5 98.03974688687485
