Freq "On Axis"
22.4 4.2772151898734165
23.0 5.5772151898733995
23.6 6.877215189873411
24.0 9.5772151898734
25.0 12.0772151898734
25.8 14.277215189873417
26.5 16.37721518987341
27.2 18.477215189873405
28.0 20.177215189873422
29.0 21.477215189873405
30.0 22.777215189873417
30.7 24.37721518987341
31.5 25.777215189873417
32.5 27.177215189873422
33.5 30.177215189873422
34.5 33.0772151898734
35.5 36.17721518987342
36.5 37.977215189873405
37.5 39.27721518987342
38.7 40.77721518987342
40.0 43.27721518987342
41.2 45.477215189873405
42.5 47.27721518987342
43.7 48.77721518987342
45.0 50.17721518987342
46.2 51.37721518987341
47.5 52.37721518987341
48.7 55.077215189873414
50.0 56.87721518987341
51.5 58.27721518987342
53.0 59.477215189873405
54.5 60.977215189873405
56.0 62.37721518987341
58.0 63.577215189873414
60.0 64.67721518987341
61.5 65.87721518987341
63.0 66.77721518987342
65.0 67.67721518987342
67.0 68.27721518987342
69.0 68.77721518987342
71.0 69.07721518987343
73.0 69.37721518987341
75.0 69.57721518987341
77.5 69.67721518987341
80.0 69.57721518987341
82.5 69.57721518987341
85.0 69.57721518987341
87.5 69.37721518987341
90.0 69.07721518987343
92.5 68.87721518987341
95.0 68.57721518987341
97.5 68.37721518987341
100.0 67.9772151898734
103.0 67.77721518987342
106.0 67.4772151898734
109.0 67.17721518987341
112.0 66.9772151898734
115.0 66.6772151898734
118.0 66.37721518987341
122.0 66.17721518987341
125.0 65.9772151898734
128.0 65.77721518987342
132.0 65.5772151898734
136.0 65.4772151898734
140.0 65.37721518987341
145.0 65.17721518987342
150.0 65.27721518987342
155.0 65.17721518987342
160.0 65.07721518987341
165.0 65.07721518987341
170.0 64.9772151898734
175.0 64.77721518987342
180.0 64.4772151898734
185.0 64.27721518987342
190.0 64.07721518987343
195.0 64.07721518987343
200.0 64.27721518987342
206.0 64.4772151898734
212.0 64.67721518987341
218.0 64.77721518987342
224.0 64.77721518987342
230.0 64.67721518987341
236.0 64.57721518987341
240.0 64.57721518987341
250.0 64.4772151898734
258.0 64.4772151898734
265.0 64.4772151898734
272.0 64.67721518987341
280.0 64.87721518987341
290.0 65.17721518987342
300.0 65.37721518987341
307.0 65.5772151898734
315.0 65.5772151898734
325.0 65.37721518987341
335.0 64.9772151898734
345.0 64.4772151898734
355.0 63.977215189873405
365.0 63.477215189873405
375.0 63.37721518987341
387.0 63.67721518987341
400.0 64.1772151898734
412.0 64.57721518987341
425.0 64.9772151898734
437.0 65.17721518987342
450.0 65.27721518987342
462.0 65.37721518987341
475.0 65.27721518987342
487.0 65.07721518987341
500.0 64.9772151898734
515.0 65.27721518987342
530.0 65.77721518987342
545.0 66.17721518987341
560.0 66.37721518987341
580.0 66.27721518987342
600.0 66.17721518987341
615.0 66.27721518987342
630.0 66.27721518987342
650.0 65.9772151898734
670.0 65.5772151898734
690.0 65.67721518987341
710.0 66.77721518987342
730.0 67.9772151898734
750.0 68.4772151898734
775.0 68.0772151898734
800.0 67.4772151898734
825.0 67.37721518987341
850.0 67.37721518987341
875.0 66.77721518987342
900.0 65.5772151898734
925.0 63.977215189873405
950.0 61.77721518987342
975.0 62.87721518987341
1000.0 65.27721518987342
1030.0 64.87721518987341
1060.0 62.17721518987341
1090.0 62.77721518987342
1120.0 64.67721518987341
1150.0 64.87721518987341
1180.0 64.57721518987341
1220.0 63.87721518987341
1250.0 63.477215189873405
1280.0 63.87721518987341
1320.0 63.77721518987342
1360.0 64.07721518987343
1400.0 64.4772151898734
1450.0 64.57721518987341
1500.0 64.77721518987342
1550.0 64.87721518987341
1600.0 64.57721518987341
1650.0 63.87721518987341
1700.0 63.37721518987341
1750.0 64.07721518987343
1800.0 63.87721518987341
1850.0 63.87721518987341
1900.0 64.87721518987341
1950.0 65.4772151898734
2000.0 65.27721518987342
2060.0 65.27721518987342
2120.0 65.27721518987342
2180.0 65.37721518987341
2240.0 65.37721518987341
2300.0 65.17721518987342
2360.0 64.87721518987341
2400.0 64.87721518987341
2500.0 64.9772151898734
2580.0 64.9772151898734
2650.0 64.9772151898734
2720.0 64.77721518987342
2800.0 63.67721518987341
2900.0 63.87721518987341
3000.0 64.4772151898734
3070.0 65.07721518987341
3150.0 65.5772151898734
3250.0 65.27721518987342
3350.0 64.67721518987341
3450.0 64.1772151898734
3550.0 64.07721518987343
3650.0 64.1772151898734
3750.0 64.07721518987343
3870.0 63.977215189873405
4000.0 63.577215189873414
4120.0 62.67721518987342
4250.0 61.677215189873394
4370.0 63.0772151898734
4500.0 64.4772151898734
4620.0 64.87721518987341
4750.0 64.77721518987342
4870.0 64.9772151898734
5000.0 65.17721518987342
5150.0 65.37721518987341
5300.0 66.17721518987341
5450.0 66.6772151898734
5600.0 66.17721518987341
5800.0 65.9772151898734
6000.0 66.17721518987341
6150.0 66.57721518987343
6300.0 66.6772151898734
6500.0 66.57721518987343
6700.0 66.9772151898734
6900.0 67.17721518987341
7100.0 67.17721518987341
7300.0 66.57721518987343
7500.0 66.4772151898734
7750.0 66.77721518987342
8000.0 67.37721518987341
8250.0 66.6772151898734
8500.0 66.37721518987341
8750.0 65.77721518987342
9000.0 65.9772151898734
9250.0 66.37721518987341
9500.0 65.9772151898734
9750.0 65.77721518987342
10000.0 65.5772151898734
10300.0 64.57721518987341
10600.0 65.37721518987341
10900.0 66.77721518987342
11200.0 67.9772151898734
11500.0 68.77721518987342
11800.0 67.77721518987342
12200.0 66.4772151898734
12500.0 66.9772151898734
12800.0 66.77721518987342
13200.0 66.87721518987341
13600.0 62.077215189873414
14000.0 55.977215189873405
14500.0 64.57721518987341
15000.0 67.87721518987341
15500.0 63.477215189873405
16000.0 61.477215189873405
16500.0 67.9772151898734
17000.0 69.57721518987341
17500.0 64.9772151898734
18000.0 62.67721518987342
18500.0 65.67721518987341
19000.0 65.77721518987342
19500.0 61.37721518987341
