Freq "Estimated In-Room Response"
20.5078 63.278445394814426
21.9727 64.54419439399682
23.4375 65.88104600379252
24.9023 67.00598617224357
26.3672 68.73553491422929
27.832 70.35242172213368
29.2969 72.19710246854997
30.7617 73.73647751627176
32.2266 75.38274937587614
33.6914 78.2058265613735
35.1562 80.96658764655616
36.6211 82.51819820063776
38.0859 84.38034221502876
39.5508 85.95757145944644
41.0156 87.06504545415062
42.4805 88.0929546090876
43.9453 88.70580083210798
45.4102 88.90194259008437
46.875 89.0621362688281
48.3398 89.06330304165611
51.2695 88.94033408615526
52.7344 88.8672126749466
54.1992 88.82724441496019
55.6641 88.76669791968648
58.5938 88.76808300150333
60.0586 88.78348374503504
62.9883 88.9802931722298
64.4531 89.07428678995738
67.3828 89.35851852017014
68.8477 89.44689276347243
71.7773 89.61417031640771
74.707 89.78423705545015
77.6367 90.0718374057904
79.1016 90.26976014053925
82.0312 90.62114322795368
84.9609 90.83286141859229
87.8906 91.26238925817717
90.8203 91.6825946797725
95.2148 92.05024414273078
98.1445 92.13357433407101
101.074 92.20931751180852
105.469 92.24379078100928
108.398 92.19816807963127
112.793 91.8842696376075
117.188 91.62568806601651
120.117 92.16358644059719
124.512 92.9773591517497
128.906 92.67170024427561
133.301 92.950472673583
139.16 92.92371943246884
143.555 92.67662456424479
147.949 92.62552599187943
153.809 93.08870973344222
159.668 92.59855484622486
165.527 92.31887174928193
171.387 92.41762820395626
177.246 92.44338566772352
183.105 92.2537452985497
188.965 92.64660972072443
196.289 92.6202574328987
203.613 92.03948687817189
210.938 92.18310052691798
218.262 92.5081923122148
225.586 92.03187947794498
232.91 91.58457608585981
241.699 92.05263410705105
250.488 92.22940220791759
259.277 92.43388225869008
268.066 92.6978729964577
276.855 91.83075166221839
287.109 90.8248889265946
297.363 91.12381917510119
307.617 91.86009741193708
319.336 90.3868594670901
329.59 91.0498371247269
341.309 89.61155132052808
353.027 90.11051808837585
366.211 88.61004170869279
379.395 91.07911360339251
392.578 90.80125172620266
405.762 91.32358717066688
420.41 90.6651066741113
435.059 91.47948463557037
451.172 91.01090246040253
465.82 91.21328867747216
483.398 90.15655002951868
499.512 88.42296792690227
517.09 89.03532153177686
536.133 89.60363549269123
555.176 88.3753991581877
574.219 90.13417779111599
594.727 90.27665699245968
615.234 90.47456813154993
637.207 91.92415264774256
659.18 91.5533764953294
682.617 90.61186374642449
707.52 89.713711555909
732.422 89.7666027454014
757.324 89.58488947599828
785.156 89.30104753943742
811.523 89.68238336586646
840.82 89.5265257778803
870.117 89.94586567409415
900.879 90.12397461826944
933.105 90.3472393563183
965.332 90.6676200142878
1000.49 90.7418616656404
1035.64 91.21095238438353
1072.27 91.66634680922563
1108.89 92.06710947478672
1148.44 92.00732597811475
1189.45 92.18874013881057
1230.47 91.96530331586652
1274.41 92.12167613418596
1319.82 92.66762029802621
1366.7 93.07185821131038
1413.57 93.03809133753659
1463.38 92.79495176126602
1516.11 92.4386585946895
1568.85 91.6942881363217
1624.51 90.9406895952525
1681.64 90.63813495289757
1741.7 90.07650427838914
1803.22 89.6168243550321
1866.21 89.07545758510801
1932.13 88.7505868975217
1999.51 88.4205512047695
2069.82 88.32013162519112
2143.07 87.96596694255
2219.24 88.01458418618327
2296.88 87.83595303991527
2378.91 87.65642148220523
2462.4 87.97068978067955
2548.83 87.99127481257713
2639.65 87.51567600526884
2731.93 87.80514034076408
2828.61 88.00187872484351
2928.22 88.42566296459101
3030.76 88.91040796956928
3137.7 89.4073286042845
3249.02 89.35529730959018
3363.28 89.7346639095762
3481.93 89.9272560864737
3604.98 89.16683313521773
3732.42 88.87984643415511
3864.26 88.265014021959
4000.49 88.1680829893542
4141.11 88.19323224223051
4287.6 88.46415415754008
4438.48 88.55489576455955
4595.21 88.72317227028843
4756.35 88.3687166687361
4924.8 88.50855844533693
5097.66 88.46167597207369
5277.83 88.84389509931255
5463.87 89.27726613633767
5657.23 90.36087097576484
5856.45 91.36737748807079
6062.99 92.0315540783718
6276.86 92.34549616331961
6498.05 91.48370786861487
6726.56 90.63565295496615
6963.87 89.48137612135838
7209.96 88.73577847798451
7464.84 88.95787529730318
7727.05 88.6961082531815
7999.51 87.44710251468507
8282.23 88.5308467008595
8573.73 89.0455396152026
8876.95 88.96409455429126
9188.96 88.73844943641718
9514.16 88.29758983039464
9849.61 88.16175053064525
10196.8 88.23521874756263
10555.7 88.15143806713176
10927.7 88.53927817566243
11313.0 88.52472379480731
11712.9 88.35193085993733
12126.0 88.44737867760777
12553.7 88.69973469730367
12996.1 88.92543725781076
13454.6 89.00169023939834
13929.2 89.09487748649492
14419.9 89.23037197867565
14928.2 88.9207416963501
15455.6 88.33908524137182
16000.5 87.53079563860727
16564.5 86.94710359083415
17148.9 86.02745598563335
17752.4 85.05564169762785
18379.4 83.96439534744368
19026.9 82.94053863999446
19697.8 81.95392277032263
19999.5 81.12238479308711
