Freq "Front Wall Bounce"
20.5078 47.666145
21.9727 48.476147
23.4375 49.161148
24.9023 49.741145999999986
26.3672 50.30514500000001
27.832 50.852146000000005
29.2969 51.366146000000015
30.7617 51.778144999999995
32.2266 52.25914800000001
33.6914 52.75114399999998
35.1562 53.238144000000005
36.6211 53.673148999999995
38.0859 54.074141999999995
39.5508 54.465149
41.0156 54.786148
42.4805 55.164146
43.9453 55.53514899999999
45.4102 55.90014600000001
46.875 56.261146999999994
48.3398 56.619147999999996
51.2695 57.27714499999999
52.7344 57.637146
54.1992 57.985146
55.6641 58.33914899999999
58.5938 59.04014599999999
60.0586 59.375145
62.9883 59.937149000000005
64.4531 60.207145999999995
67.3828 60.69714400000001
68.8477 60.941147
71.7773 61.406143
74.707 61.93014500000001
77.6367 62.448143000000016
79.1016 62.703148
82.0312 63.158150000000006
84.9609 63.63114899999999
87.8906 64.082146
90.8203 64.503143
95.2148 65.053146
98.1445 65.409149
101.074 65.73414599999998
105.469 66.129143
108.398 66.364143
112.793 66.664146
117.188 66.929146
120.117 67.115143
124.512 67.372147
128.906 67.62214700000001
133.301 67.823143
139.16 67.987144
143.555 68.103149
147.949 68.215149
153.809 68.37114700000001
159.668 68.49014299999999
165.527 68.552147
171.387 68.520149
177.246 68.43914799999999
183.105 68.41414599999999
188.965 68.48014800000001
196.289 68.49014299999999
203.613 68.430145
210.938 68.44714400000001
218.262 68.444145
225.586 68.383148
232.91 68.388145
241.699 68.393143
250.488 68.35215
259.277 68.349144
268.066 68.417145
276.855 68.508148
287.109 68.49714699999998
297.363 68.37114700000001
400.0 68.50270774101381
412.0 68.52367157383829
425.0 68.55355717389077
437.0 68.58799827395345
450.0 68.63283160538106
462.0 68.68113951867802
475.0 68.74056722471965
487.0 68.80177781345296
500.0 68.8742086893159
515.0 68.96457843550026
530.0 69.0613496874228
545.0 69.16257059286454
560.0 69.26693206860548
580.0 69.40715907233648
600.0 69.5440244322395
615.0 69.64122992057983
630.0 69.7308481789417
650.0 69.83490744074233
670.0 69.91605920964955
690.0 69.97052423310892
710.0 69.99540516797538
730.0 69.98951293393556
750.0 69.95468659697462
775.0 69.87469318891402
800.0 69.76573440913204
825.0 69.64288098619568
850.0 69.52332888334983
875.0 69.42201048098323
900.0 69.3499196718906
925.0 69.3109209852842
950.0 69.30193167277372
975.0 69.31395511230367
1000.0 69.33564918041095
1030.0 69.3600570207128
1060.0 69.37186681300469
1090.0 69.36747917370391
1120.0 69.35040052048245
1150.0 69.32756960124736
1180.0 69.30586656361494
1220.0 69.28425319863182
1250.0 69.2714077456556
1280.0 69.25581297395655
1320.0 69.22091302901025
1360.0 69.16382237332266
1400.0 69.08785743874195
1450.0 68.98314924351457
1500.0 68.88807241401959
1550.0 68.81311405960679
1600.0 68.7560360759647
1650.0 68.70794292432511
1700.0 68.65315780459059
1750.0 68.56708484994994
1800.0 68.42833657618652
1850.0 68.24602633641976
1900.0 68.08338556496211
1950.0 68.04405083349567
2000.0 68.21276182794952
2060.0 68.68962859486079
2120.0 69.33239613865072
2180.0 69.96866327301983
2240.0 70.47216519025541
2300.0 70.77455430682144
2360.0 70.87498805493334
2430.0 70.83460061555058
2500.0 70.75162290868543
2580.0 70.61230280601691
2650.0 70.384200002705
2720.0 70.08903149422372
2800.0 69.77371511571357
2900.0 69.43359965616037
3000.0 69.11793829550763
3070.0 68.90674022831344
3150.0 68.64761083489073
3250.0 68.24783715940967
3350.0 67.68060399268325
3450.0 67.0789652349136
3550.0 66.83440498594945
3650.0 67.84769684526525
3750.0 69.9576731026679
3870.0 71.71397914686602
4000.0 72.24388472584167
4120.0 72.25896692791262
4250.0 72.19285237954688
4370.0 72.06031273462045
4500.0 71.67773365500196
4620.0 71.29445615518625
4750.0 71.0167504376133
4870.0 70.92719315753092
5000.0 70.91522856757638
5150.0 71.0531207363916
5300.0 71.10456709025283
5450.0 70.80614896764489
5600.0 70.3728929069634
5800.0 69.75945065889054
6000.0 69.46368912250189
6150.0 69.65239663599051
6300.0 69.84379783346749
6500.0 70.1468598747488
6700.0 70.40982496302982
6900.0 70.37839581442532
7100.0 70.2991091767085
7300.0 70.51703061153788
7500.0 70.78403712571784
7750.0 70.67357499696172
8000.0 70.39582335172034
8250.0 69.92189126291345
8500.0 69.13477567388698
8750.0 69.29212856200098
9000.0 70.01882100254193
9250.0 70.23388738044571
9500.0 70.09490595859003
9750.0 70.41943592255284
10000.0 70.55494998054499
10300.0 69.91054740865069
10600.0 69.8282786149372
10900.0 69.70090524943346
11200.0 69.2423140051675
11500.0 69.06952048830907
11800.0 69.75440886083325
12200.0 70.41624095907503
12500.0 70.60956798937809
12800.0 70.96365911640841
13200.0 70.59532387212988
13600.0 70.39955998811837
14000.0 70.41464563231136
14500.0 70.00636799191457
15000.0 70.39562375731502
15500.0 70.4756731001922
16000.0 70.36489606368045
16500.0 69.73539613601315
17000.0 69.52095173186156
17500.0 68.99987911081578
18000.0 68.77498485788081
18500.0 68.68243005967908
19000.0 68.24498665383618
19500.0 67.89005797614085
