Freq "Ceiling Bounce"
20.5078 48.58070324174231
21.9727 50.8186257124993
23.4375 54.01597584587496
24.9023 55.902515027174005
26.3672 57.94595604485342
27.832 60.25247884385324
29.2969 62.041993770515845
30.7617 63.62941620891088
32.2266 65.21771773458967
33.6914 66.84122577763789
35.1562 68.29091003090129
36.6211 69.49294482408169
38.0859 70.77438683713217
39.5508 71.91046788374557
41.0156 73.31011013354598
42.4805 74.12850794580645
43.9453 75.06397979498682
45.4102 75.88564328224383
46.875 76.6071446390492
48.3398 77.24906720765011
51.2695 78.25041456662709
52.7344 78.64297854035065
54.1992 79.04033108357419
55.6641 79.31258367627554
58.5938 79.77019915519037
60.0586 79.87219102137898
62.9883 80.37479612120939
64.4531 80.57544632604939
67.3828 80.79870214727462
68.8477 80.81283675542473
71.7773 80.92060300414663
74.707 81.37970761293082
77.6367 81.61210087741514
79.1016 81.64003355540318
82.0312 81.82978174692215
84.9609 82.02525059215402
87.8906 81.80183296961876
90.8203 82.13216684039527
95.2148 82.40222037110756
98.1445 82.4997700509465
101.074 82.50096564226212
105.469 82.68551320296017
108.398 82.89632200098481
112.793 82.88245228955186
117.188 82.91073492795343
120.117 83.09792033345197
124.512 83.05210699434191
128.906 82.9333881106384
133.301 82.86925420536853
139.16 82.91407035589805
143.555 82.86413171793016
147.949 82.81614528288414
153.809 82.4920396182073
159.668 82.48152668409007
165.527 82.59970266908626
171.387 82.47864294833646
177.246 82.46077660867223
183.105 82.49608090544153
188.965 82.23444432385136
196.289 82.18579283595957
203.613 82.26978654401336
210.938 82.02860220020887
218.262 81.67763891503989
225.586 81.79165808717154
232.91 81.43040595313902
241.699 81.28327178792624
250.488 81.01591223521304
259.277 81.16220704924162
268.066 80.93448560855711
276.855 81.03769562848704
287.109 81.2230471045641
297.363 81.36797465968671
307.617 81.35774551773842
319.336 80.86856704851077
329.59 80.66649496657882
341.309 80.72424454092588
353.027 80.57013994889054
366.211 80.68565968657366
379.395 80.7911395878169
392.578 80.31726676182758
405.762 79.6339151966818
420.41 79.9204993640256
435.059 81.39045480653088
451.172 81.33310041083446
465.82 81.4868888456173
483.398 81.5967064173591
499.512 81.83217475243666
517.09 81.12086894556269
536.133 80.79757462380887
555.176 80.72569541698489
574.219 80.71704949409205
594.727 80.78976431266022
615.234 80.40782431894466
637.207 79.98132864035865
659.18 80.04925511410217
682.617 79.79764066036557
707.52 80.6464067871346
732.422 80.19499726119885
757.324 80.76876265385005
785.156 82.13426699045682
811.523 81.64901200032936
840.82 82.23501351732324
870.117 81.41230112624366
900.879 81.62422626640348
933.105 81.39163383026363
965.332 81.25685655929264
1000.49 81.59907480762463
1035.64 81.83468847982263
1072.27 81.42228326997166
1108.89 81.90358226908084
1148.44 82.78778930088728
1189.45 81.92454811778637
1230.47 82.2793462019715
1274.41 81.7406551205891
1319.82 82.45560983049623
1366.7 82.838467401828
1413.57 84.01319539991503
1463.38 83.53224527932299
1516.11 83.07128708783965
1568.85 83.47363767555238
1624.51 81.4164217405877
1681.64 80.12374950536564
1741.7 79.95509685112306
1803.22 80.78617757834698
1866.21 80.99349016251111
1932.13 80.38656850618744
1999.51 80.11832529034407
2069.82 79.8436191111837
2143.07 79.76442721368029
2219.24 79.00726235925838
2296.88 78.66209180850541
2378.91 79.01908432921131
2462.4 77.54102190059493
2548.83 75.96934044460207
2639.65 74.76953576848351
2731.93 73.72626083519748
2828.61 73.67054836500411
2928.22 72.94426230009874
3030.76 71.5302211614314
3137.7 71.52146281859208
3249.02 70.8714215780914
3363.28 71.96342574265783
3481.93 75.46382762144893
3604.98 77.00260909306964
3732.42 77.93318293488342
3864.26 78.38279453387918
4000.49 78.55392560618388
4141.11 78.77654007078381
4287.6 78.51610875686156
4438.48 78.59238732129677
4595.21 78.94863268556513
4756.35 80.04364251216718
4924.8 80.42906866163989
5097.66 81.02303245512475
5277.83 80.73080189058777
5463.87 81.45786232665527
5657.23 81.67381603356425
5856.45 81.76526719846558
6062.99 81.65043026951948
6276.86 81.59365722480045
6498.05 81.00182687632558
6726.56 80.38239830776013
6963.87 80.51810024969308
7209.96 80.16872118534151
7464.84 79.71751996968194
7727.05 80.07962568200783
7999.51 80.41988432103588
8282.23 79.78273309134403
8573.73 79.77872708008854
8876.95 79.98513963511924
9188.96 79.9284268499789
9514.16 79.63701221180968
9849.61 79.6381552249644
10196.8 79.64005798036666
10555.7 79.1404530698277
10927.7 78.846920884412
11313.0 78.94397353858606
11712.9 78.86422557441784
12126.0 78.59510982700102
12553.7 78.12665795430847
12996.1 77.23759507309065
13454.6 76.61235326374012
13929.2 76.27457871364889
14419.9 76.40843192405517
14928.2 76.55294009466353
15455.6 76.7479461024648
16000.5 76.21526990354786
16564.5 75.69786421588846
17148.9 74.9410009032069
17752.4 74.17809380222437
18379.4 73.47255508178243
19026.9 72.84693231103475
19697.8 72.36263437701335
19999.5 72.16945842704068
