Freq "Side Wall Bounce"
20.5078 49.071399554016566
21.9727 51.086835844804355
23.4375 54.201302006986495
24.9023 56.16948527829233
26.3672 58.199411520016966
27.832 60.472461251046425
29.2969 62.311919672852554
30.7617 63.90618862715978
32.2266 65.47565008690782
33.6914 67.09825618421164
35.1562 68.55136783967221
36.6211 69.74891832673525
38.0859 71.02899695987541
39.5508 72.16763086026015
41.0156 73.55484241370864
42.4805 74.37830723175183
43.9453 75.31442607587242
45.4102 76.14716938328634
46.875 76.86501318714035
48.3398 77.51044434914256
51.2695 78.52020300840802
52.7344 78.910992980488
54.1992 79.29759043158857
55.6641 79.5667285638649
58.5938 80.03137595666585
60.0586 80.13589858321575
62.9883 80.6403531462974
64.4531 80.83805004719822
67.3828 81.0585765454555
68.8477 81.06831356112158
71.7773 81.18572340543635
74.707 81.62688179382859
77.6367 81.85584646700624
79.1016 81.87760575916457
82.0312 82.08024284693325
84.9609 82.30060350422234
87.8906 82.06710517204174
90.8203 82.34760747678365
95.2148 82.58570755118157
98.1445 82.70393339811967
101.074 82.74326583283325
105.469 82.9271667957449
108.398 83.04953074974799
112.793 83.08851715812163
117.188 83.12330244217783
120.117 83.28818288505981
124.512 83.24878155619929
128.906 83.18290023861418
133.301 83.10446945827366
139.16 83.1606416591482
143.555 83.11717045873384
147.949 83.10316458476673
153.809 82.82931477353459
159.668 82.85006056692154
165.527 82.88835954251157
171.387 82.74998754905447
177.246 82.74261227989584
183.105 82.76476232281618
188.965 82.51931334356412
196.289 82.38631119608513
203.613 82.44933764424422
210.938 82.2939256389857
218.262 82.03428298848438
225.586 82.13217813840261
232.91 81.7665482452872
241.699 81.57810577176873
250.488 81.4891830014748
259.277 81.51649492232632
268.066 81.30254289643949
276.855 81.50044076886506
287.109 81.4759584409339
297.363 81.29254853874399
307.617 81.47442136771194
319.336 80.9936874351972
329.59 81.15560125392557
341.309 80.93021676153431
353.027 80.91153582890371
366.211 80.90933350924239
379.395 81.08589693887721
392.578 80.79462432967831
405.762 80.01510360930514
420.41 79.9189150955187
435.059 81.07881737995532
451.172 81.64547936677887
465.82 81.8108624054021
483.398 81.79258893885765
499.512 81.83546602963239
517.09 81.73406510416696
536.133 81.49608590282814
555.176 82.21898935857553
574.219 81.7773559345384
594.727 81.50761073503095
615.234 81.2583852609192
637.207 80.93149349763081
659.18 80.48293829904915
682.617 80.57513198659122
707.52 80.85452147989268
732.422 80.42206220693282
757.324 81.01881355419316
785.156 81.37060879109048
811.523 81.62893209586149
840.82 81.25133754920915
870.117 81.77456752983916
900.879 81.78395348986265
933.105 81.22067993074273
965.332 81.13258703665471
1000.49 80.92580153910858
1035.64 80.80598198050714
1072.27 80.55174239966313
1108.89 80.69573028976833
1148.44 80.19115277079375
1189.45 80.13909512349447
1230.47 80.25099365175122
1274.41 80.51093025043336
1319.82 80.95264090748793
1366.7 81.35708146381656
1413.57 80.62485993132763
1463.38 79.86457139249197
1516.11 78.95218899783039
1568.85 77.36909936823437
1624.51 76.67161502504395
1681.64 76.79821523261045
1741.7 75.55645076847462
1803.22 74.35566363594954
1866.21 73.44003342443122
1932.13 73.95639304912174
1999.51 74.47273580800272
2069.82 74.29637668949553
2143.07 73.81241900909538
2219.24 72.02393159569029
2296.88 72.43134008575105
2378.91 74.19618330070747
2462.4 76.1090260887415
2548.83 76.74878631997508
2639.65 76.19932477034327
2731.93 76.23265918196495
2828.61 77.77387906148145
2928.22 78.95914177056866
3030.76 79.53610404621278
3137.7 79.61135056313906
3249.02 79.37408878293206
3363.28 79.07007737151224
3481.93 79.46100666054276
3604.98 80.36781831741116
3732.42 81.1307000984245
3864.26 80.38195880659929
4000.49 80.56319290660932
4141.11 81.13676225878957
4287.6 81.24997524342878
4438.48 81.30513619472633
4595.21 80.51012205696362
4756.35 81.43683268284296
4924.8 82.05598385107955
5097.66 82.08847707511232
5277.83 82.72002994340129
5463.87 82.19096330839699
5657.23 81.99942779539181
5856.45 81.64865053675932
6062.99 81.78125147438821
6276.86 81.32309899890316
6498.05 81.45372667127326
6726.56 81.2028771718154
6963.87 80.63635123405082
7209.96 80.95555338839958
7464.84 80.65155711798914
7727.05 80.6303821331396
7999.51 80.64630597087182
8282.23 80.29890851885781
8573.73 80.11643834338946
8876.95 79.69033432235885
9188.96 79.7535335997966
9514.16 79.9993475795585
9849.61 79.74001686058169
10196.8 79.65980044345729
10555.7 79.5011076592661
10927.7 79.22117549929972
11313.0 78.69858586736858
11712.9 78.50033638997495
12126.0 78.21574627941332
12553.7 77.7443492137227
12996.1 77.41773642469532
13454.6 77.59723120696295
13929.2 77.44788715460506
14419.9 77.1430119310681
14928.2 77.27300016593081
15455.6 77.07400183324239
16000.5 76.76025595443976
16564.5 76.30418822170165
17148.9 75.6697401166874
17752.4 74.99096248965172
18379.4 74.55058774894631
19026.9 74.07616531577185
19697.8 73.24861472461039
19999.5 72.96457490329782
