Freq,On Axis,Listening Window,Sound Power,Early Reflections,Early Reflections DI,Sound Power DI,DI offset
22.4,36.400000000000006,48.63021222702224,54.29047048659987,54.97981414520848,33.65039808181376,34.33974174042237,40
23.0,38.19999999999999,48.335033710088766,53.70858520818115,54.412984703165705,33.92204900692306,34.62644850190762,40
23.6,40.0,48.253954733254574,53.38094828989995,54.09805436026133,34.155900372993244,34.873006443354626,40
24.0,41.900000000000006,48.51865682542916,53.28568941782362,54.00547212366979,34.51318470175937,35.23296740760554,40
25.0,43.900000000000006,49.11480932122424,53.544553308820866,54.237090492835506,34.87771882838874,35.57025601240338,40
25.8,45.80000000000001,50.09783236222532,54.199537856845666,54.803073411566686,35.29475895065863,35.89829450537965,40
26.5,47.69999999999999,51.48533377727756,55.25086395328327,55.681202131184165,35.804131646093396,36.23446982399429,40
27.2,49.599999999999994,53.05625856128543,56.705218179025366,56.8787017829319,36.177556778353534,36.35104038226007,40
28.0,51.400000000000006,54.65458664571321,58.31701057618355,58.21463935722761,36.4399472884856,36.33757606952966,40
29.0,53.099999999999994,56.18948701053765,59.860532831912224,59.529727465756054,36.65975954478159,36.32895417862542,40
30.0,54.599999999999994,57.45763054762065,61.07644631272072,60.59448225196786,36.86314829565279,36.38118423489993,40
30.7,55.900000000000006,58.47378956083165,61.91785228478139,61.40429728408975,37.0694922767419,36.55593727605026,40
31.5,57.099999999999994,59.31009991404491,62.43096471660513,61.980503393287506,37.329596520757406,36.87913519743978,40
32.5,58.30000000000001,60.10295383035847,62.772140869977136,62.40830765145162,37.69464617890685,37.33081296038134,40
33.5,59.5,60.90878780866288,63.09038135263853,62.89309507608701,38.01569273257587,37.81840645602435,40
34.5,60.69999999999999,61.844874805031424,63.48984515262785,63.441761736780165,38.40311306825126,38.35502965240357,40
35.5,62.0,62.85766435309992,64.03283719602092,64.12963372549243,38.728030627607495,38.824827157079,40
36.5,63.30000000000001,63.96295682264824,64.72898402962755,64.96673134019315,38.99622548245509,39.23397279302068,40
37.5,64.6,65.14150873857815,65.56218178442971,65.88541726252043,39.25609147605772,39.57932695414844,40
38.7,65.9,66.3625772207845,66.51760146505244,66.90104964075185,39.46152758003265,39.844975755732065,40
40.0,67.3,67.61707926779047,67.55835442957734,68.00738860097863,39.609690666811844,40.05872483821314,40
41.2,68.7,68.9153080975001,68.68872687273041,69.15993196849735,39.755376129002755,40.22658122476969,40
42.5,70.0,70.18643192143362,69.86959173579469,70.35719420561975,39.829237715813875,40.31684018563894,40
43.7,71.4,71.52606496834169,71.0915422518409,71.58048812738689,39.9455768409548,40.43452271650078,40
45.0,72.80000000000001,72.82541828268197,72.33393271469656,72.83097294834536,39.9944453343366,40.49148556798541,40
46.2,74.20000000000002,74.16675599964026,73.59533658556472,74.08952652678681,40.077229472853446,40.571419414075535,40
47.5,75.5,75.49686579514743,74.8727900894352,75.38047186327341,40.116393931874015,40.62407570571223,40
48.7,76.9,76.82046553985546,76.11239662264089,76.62933315980644,40.19113238004903,40.708068917214575,40
50.0,78.19999999999999,78.11492232427153,77.337173469347,77.86756868265245,40.247353641619085,40.77774885492454,40
51.5,79.5,79.37428113745625,78.53318303139547,79.06600032048857,40.30828081696768,40.841098106060784,40
53.0,80.69999999999999,80.56923368074318,79.69188916848846,80.24700657270057,40.32222710804261,40.87734451225472,40
54.5,81.79999999999998,81.7117742916929,80.79684802135365,81.35287031134749,40.35890398034542,40.91492627033925,40
56.0,82.9,82.80782685721321,81.82152043718804,82.38792000848848,40.419906848724736,40.98630642002517,40
58.0,83.9,83.80493105003177,82.7768960191253,83.35059967532976,40.45433137470201,41.028035030906466,40
60.0,84.8,84.65946333908545,83.61918610938244,84.1802860638933,40.47917727519214,41.04027722970301,40
61.5,85.5,85.42448764304284,84.35142457223566,84.92467911026228,40.49980853278056,41.07306307080718,40
63.0,86.2,86.05764273882687,84.94503344335243,85.51943338292102,40.53820935590585,41.11260929547444,40
65.0,86.70000000000002,86.5784901971291,85.4450219115755,86.03028859536924,40.54820160175986,41.133468285553604,40
67.0,87.1,87.00051167804048,85.80309993143649,86.40548268974992,40.595028988290565,41.19741174660399,40
69.0,87.4,87.3005116780405,86.09581701885337,86.71703981686807,40.58347186117243,41.204694659187126,40
71.0,87.7,87.56768347817138,86.28187662318402,86.91496589907968,40.6527175790917,41.28580685498736,40
73.0,87.9,87.75660314969004,86.40479642749294,87.06690811876459,40.68969503092545,41.3518067221971,40
75.0,88.0,87.92293110248063,86.4892984054442,87.17241482126086,40.750516281219774,41.43363269703643,40
77.5,88.1,88.01173585711585,86.50834894681091,87.22590809568942,40.78582776142643,41.50338691030494,40
80.0,88.19999999999999,88.07874731395125,86.49777315062983,87.27268712004178,40.806060193909474,41.58097416332143,40
82.5,88.3,88.13435732133559,86.46521311908248,87.26853978139795,40.86581753993764,41.66914420225311,40
85.0,88.3,88.17874731395125,86.41247781776688,87.26095011561152,40.91779719833973,41.766269496184364,40
87.5,88.4,88.21250722304116,86.36359912740116,87.25015911817341,40.96234810486774,41.84890809564,40
90.0,88.4,88.21250722304116,86.30802957014552,87.22988991026332,40.98261731277783,41.904477652895636,40
92.5,88.4,88.235384377171,86.25007761851067,87.21364669235874,41.021737684812265,41.98530675866033,40
95.0,88.4,88.26845670446247,86.19428895234891,87.1858729390669,41.08258376539557,42.07416775211355,40
97.5,88.4,88.26845670446247,86.13632821330204,87.16283672333378,41.10561998112868,42.13212849116043,40
100.0,88.4,88.26845670446247,86.10636932549085,87.15999445702141,41.108462247441054,42.16208737897162,40
103.0,88.4,88.27950687011969,86.0572782092567,87.12934824226882,41.15015862785087,42.222228660862996,40
106.0,88.5,88.29104775809431,86.01386231727173,87.11373420035476,41.17731355773955,42.27718544082258,40
109.0,88.5,88.29104775809431,85.99816404965884,87.13190186911177,41.159145888982536,42.29288370843547,40
112.0,88.5,88.34575355685861,85.99899866748501,87.14529631328219,41.20045724357642,42.3467548893736,40
115.0,88.5,88.34575355685861,85.9902183170867,87.14494458317387,41.200808973684744,42.35553523977191,40
118.0,88.5,88.34575355685861,85.97449338530188,87.13576829709444,41.20998525976417,42.37126017155673,40
122.0,88.5,88.34575355685861,85.9554605415141,87.13222766746458,41.213525889394035,42.39029301534451,40
125.0,88.5,88.35686156553042,85.92965791715707,87.12070708930763,41.236154476222794,42.42720364837335,40
128.0,88.5,88.35686156553042,85.88908879152967,87.09572437193474,41.26113719359569,42.46777277400075,40
132.0,88.5,88.35686156553042,85.81897049335065,87.06220965500316,41.294651910527264,42.537891072179775,40
136.0,88.5,88.33562068408571,85.74738434202462,87.0296021668158,41.306018517269905,42.588236342061094,40
140.0,88.5,88.33562068408571,85.65276825267749,86.97836967223897,41.35725101184674,42.68285243140822,40
145.0,88.5,88.33562068408571,85.55036099974876,86.91536190336592,41.42025878071979,42.78525968433695,40
150.0,88.5,88.32445814420116,85.41802008028202,86.8499753968347,41.474482747366466,42.90643806391914,40
155.0,88.5,88.30354610191523,85.24543428542789,86.75082923695265,41.552716864962576,43.05811181648734,40
160.0,88.5,88.2815400411153,85.08357805648063,86.65469122722419,41.626848813891115,43.197961984634674,40
165.0,88.5,88.2815400411153,84.8995027014087,86.55977394679903,41.72176609431628,43.38203733970661,40
170.0,88.5,88.26090170960879,84.70295321984413,86.44834156707341,41.812560142535375,43.557948489764655,40
175.0,88.5,88.22700292008264,84.50139170856758,86.32680604754059,41.900196872542054,43.72561121151506,40
180.0,88.5,88.22700292008264,84.3349441400216,86.24379699072512,41.983205929357524,43.892058780061035,40
185.0,88.5,88.1727616847832,84.15563591189496,86.13556827715058,42.037193407632614,44.017125772888235,40
190.0,88.4,88.16090170960878,84.00536309355844,86.04386748801015,42.11703422159863,44.155538616050336,40
195.0,88.4,88.16090170960878,83.86700539804596,85.97228307346863,42.18861863614015,44.29389631156282,40
200.0,88.4,88.14980404287098,83.71305144220439,85.88939409137798,42.260409951493,44.436752600666594,40
206.0,88.4,88.10761365943239,83.55913066190007,85.78784802652953,42.31976563290286,44.54848299753232,40
212.0,88.4,88.10761365943239,83.41879469141251,85.72464080205621,42.382972857376174,44.68881896801987,40
218.0,88.4,88.09584860777309,83.25697987315883,85.6448071945086,42.45104141326449,44.838868734614266,40
224.0,88.4,88.06468789709038,83.09034235842434,85.54869078385802,42.51599711323236,44.97434553866604,40
230.0,88.4,88.04143428344429,82.91088694119884,85.45221229089054,42.589221992553746,45.13054734224545,40
236.0,88.4,88.04143428344429,82.7245050915156,85.33836965938791,42.70306462405638,45.31692919192869,40
240.0,88.4,87.99962886293751,82.54160090321193,85.20909472220032,42.79053414073719,45.458027959725584,40
250.0,88.4,87.97681318025849,82.38975006211638,85.10710548900059,42.8697076912579,45.58706311814211,40
258.0,88.3,87.94490375958068,82.24988347895055,84.99544113307499,42.94946262650569,45.69502028063013,40
265.0,88.3,87.94490375958068,82.13442229906053,84.88631483349769,43.05858892608299,45.81048146052015,40
272.0,88.3,87.94490375958068,82.0239788557486,84.77369118362485,43.171212575955835,45.92092490383209,40
280.0,88.3,87.8925986049074,81.92297225957267,84.65211729816455,43.24048130674285,45.96962634533473,40
290.0,88.3,87.85708432750458,81.8035720551812,84.50670692034552,43.35037740715906,46.053512272323374,40
300.0,88.3,87.82681472493815,81.70456621556215,84.38312088646,43.44369383847814,46.12224850937599,40
307.0,88.3,87.78577244847503,81.58672491961072,84.24845629982836,43.53731614864667,46.19904752886431,40
315.0,88.3,87.7749897151406,81.48601032799492,84.12307263351022,43.65191708163039,46.28897938714569,40
325.0,88.19999999999999,87.73173562126414,81.38379532759356,83.98659172576592,43.74514389549822,46.347940293670575,40
335.0,88.19999999999999,87.66697237702049,81.26143629037921,83.82081817815083,43.846154198869655,46.40553608664128,40
345.0,88.19999999999999,87.65614280701863,81.18189816252008,83.7053098238204,43.950832983198225,46.47424464449854,40
355.0,88.19999999999999,87.6256891560278,81.09787432243078,83.59373809179085,44.03195106423695,46.52781483359702,40
365.0,88.19999999999999,87.57471690139545,81.02965056372642,83.46604176584748,44.10867513554797,46.54506633766903,40
375.0,88.19999999999999,87.57471690139545,81.00211303251959,83.37956937023353,44.19514753116192,46.57260386887586,40
387.0,88.19999999999999,87.5341779887361,80.98140836553388,83.29079972852205,44.24337826021406,46.552769623202224,40
400.0,88.1,87.49675747513085,81.00383640370134,83.21120893799782,44.285548537133025,46.49292107142951,40
412.0,88.1,87.4788507419773,81.08128240450804,83.1489966416262,44.3298541003511,46.39756833746925,40
425.0,88.1,87.46127999409258,81.22113173930944,83.10040798761578,44.3608720064768,46.240148254783136,40
437.0,88.0,87.34404025126945,81.36836354400616,82.95079024361395,44.393250007655496,45.97567670726329,40
450.0,87.9,87.19399312389442,81.47393008365968,82.78692721676202,44.40706590713239,45.720063040234734,40
462.0,87.80000000000001,87.08191577814087,81.26357171819717,82.67982204633702,44.402093731803845,45.8183440599437,40
475.0,87.80000000000001,87.0545620266363,80.6015471656236,82.60028457186593,44.45427745477038,46.453014861012704,40
487.0,87.9,87.04569836958794,79.80550521240224,82.54828673406402,44.49741163552392,47.2401931571857,40
500.0,87.9,87.04140142809025,79.23248161493183,82.53844424767607,44.502957180414185,47.808919813158425,40
515.0,87.9,87.01405707750378,78.95891584544773,82.56807044540491,44.445986632098865,48.055141232056044,40
530.0,87.9,86.9403317511757,78.80232509808907,82.55875282091809,44.38157893025762,48.138006653086634,40
545.0,87.9,86.89051482577193,78.7280919825092,82.58724357344795,44.30327125232398,48.16242284326273,40
560.0,87.9,86.84396258441481,78.71358588942856,82.61969375134413,44.22426883307068,48.13037669498625,40
580.0,87.80000000000001,86.84607556977124,78.79915732832734,82.72747269018653,44.118602879584714,48.046918241443905,40
600.0,87.80000000000001,86.87359839382788,78.88503070622833,82.83576290033662,44.03783549349126,47.98856768759954,40
615.0,87.80000000000001,86.9238685591373,79.0254443443168,83.00206850980447,43.92180004933283,47.89842421482051,40
630.0,87.80000000000001,86.97307713138258,79.19617155162685,83.18198573470184,43.79109139668074,47.776905579755734,40
650.0,87.7,86.98377580030454,79.40049668948336,83.37427138885796,43.60950441144658,47.58327911082118,40
670.0,87.7,86.98295645080266,79.6143986298458,83.57707563950702,43.405880811295646,47.368557820956866,40
690.0,87.7,86.99126555698152,79.80938223072941,83.7807297109403,43.21053584604121,47.181883326252105,40
710.0,87.6,86.97433245156746,79.89640371527483,83.88976530675953,43.084567144807934,47.077928736292634,40
730.0,87.6,86.91677221485105,79.7758025691498,83.81754508102529,43.099227133825764,47.14096964570125,40
750.0,87.6,86.85888028421033,79.38913190326537,83.5308326440576,43.32804764015273,47.469748380944964,40
775.0,87.5,86.77102177012794,78.81373093755428,83.06140123717175,43.709620532956194,47.95729083257366,40
800.0,87.5,86.62632986301584,78.12640718251458,82.52276679170184,44.103563071314,48.49992268050126,40
825.0,87.5,86.50044211612993,77.45642418320048,82.02421324166494,44.476228874464994,49.04401793292945,40
850.0,87.5,86.2938326951921,76.86693736386718,81.59354363777317,44.70028905741893,49.426895331324914,40
875.0,87.4,86.13604498133144,76.53629577998446,81.34114210423871,44.794902877092724,49.59974920134698,40
900.0,87.4,86.04976436056984,76.48084372562559,81.28817117062415,44.761593189945685,49.56892063494425,40
925.0,87.4,85.99197059452503,76.68667926109077,81.38632654962603,44.605644044898995,49.305291333434255,40
950.0,87.3,86.01060877576701,77.1100685480336,81.63109059371268,44.379518182054326,48.900540227733416,40
975.0,87.3,86.1240762627032,77.59441068988622,81.95564565270175,44.16843061000145,48.52966557281698,40
1000.0,87.3,86.21097877423054,77.92911113593698,82.1783869333927,44.03259184083784,48.28186763829356,40
1030.0,87.2,86.27289142378481,78.0462898547468,82.24452959399886,44.02836182978595,48.22660156903801,40
1060.0,87.2,86.29600403430015,77.97363662327007,82.1763646649455,44.11963936935466,48.322367411030086,40
1090.0,87.1,86.19600403430016,77.68891007759213,81.89913196058791,44.29687207371225,48.50709395670803,40
1120.0,87.1,86.08315257039722,77.34025326267614,81.58483287666324,44.498319693733976,48.742899307721075,40
1150.0,87.0,85.93250192885232,76.99437923633778,81.26051925487207,44.67198267398025,48.93812269251454,40
1180.0,87.0,85.80036984054985,76.74123736629024,81.02834002733115,44.772029813218694,49.05913247425961,40
1220.0,87.0,85.74269672208823,76.7176673207817,80.97322680086117,44.769469921227056,49.025029401306526,40
1250.0,86.9,85.77848434282988,76.96883054650912,81.13227844976939,44.6462058930605,48.80965379632076,40
1280.0,86.9,85.80488904689807,77.26277777033688,81.33645729242599,44.46843175447208,48.54211127656119,40
1320.0,86.9,85.85578478574672,77.49262434372274,81.51274262153768,44.34304216420904,48.36316044202398,40
1360.0,86.79999999999998,85.84272987238224,77.53588012934858,81.53294010272465,44.309789769657584,48.30684974303365,40
1400.0,86.79999999999998,85.79570356552611,77.35514714030604,81.36985753260416,44.42584603292195,48.440556425220066,40
1450.0,86.79999999999998,85.75345422579655,77.10773800483831,81.16872349643235,44.584730729364196,48.645716220958235,40
1500.0,86.70000000000002,85.75105028848932,76.91828215442112,81.04308372428166,44.707966564207666,48.8327681340682,40
1550.0,86.70000000000002,85.79997580730458,76.86831568394967,81.04644736859451,44.75352843871006,48.9316601233549,40
1600.0,86.6,85.81875585906748,76.94005306745481,81.13323423995959,44.68552161910789,48.87870279161267,40
1650.0,86.6,85.83649914405375,76.95424454374911,81.16807942866858,44.66841971538517,48.882254600304634,40
1700.0,86.5,85.77096979769892,76.84647591021611,81.07576607327792,44.695203724421006,48.92449388748281,40
1750.0,86.5,85.70351376348574,76.66313504242108,80.92941854769388,44.77409521579186,49.04037872106467,40
1800.0,86.5,85.62512600382186,76.44519640934328,80.75284509128704,44.87228091253482,49.17992959447858,40
1850.0,86.5,85.53798861727681,76.20236079968603,80.56242520898053,44.97556340829628,49.335627817590776,40
1900.0,86.5,85.43587169272674,75.9675767250308,80.35852323746053,45.077348455266204,49.46829496769594,40
1950.0,86.4,85.31044912235652,75.65585633242709,80.10746008501658,45.20298903733993,49.654592789929424,40
2000.0,86.4,85.18131917738822,75.34773728322558,79.85955723164088,45.32176194574734,49.833581894162634,40
2060.0,86.3,85.04106578369867,75.15559698390267,79.64929405013213,45.39177173356654,49.885468799796,40
2120.0,86.2,84.89138764759888,75.12583909385035,79.51554928482375,45.37583836277513,49.76554855374853,40
2180.0,86.2,84.84286060164072,75.28677680367797,79.57459778553574,45.26826281610498,49.556083797962756,40
2240.0,86.1,84.77029742658857,75.4619941748356,79.64736845420484,45.12292897238373,49.308303251752974,40
2300.0,86.1,84.79841051312229,75.5852899966795,79.78983687290945,45.008573640212845,49.213120516442785,40
2360.0,86.1,84.80973836114403,75.57220689938195,79.87872523886972,44.93101312227431,49.237531461762075,40
2400.0,86.0,84.80968177983343,75.46954903201308,79.8904732461133,44.91920853372012,49.34013274782035,40
2500.0,86.0,84.74987636344056,75.30240370392346,79.8224124758109,44.927463887629656,49.4474726595171,40
2580.0,85.9,84.64476946517362,75.10603449392364,79.67237068487287,44.97239878030075,49.53873497124998,40
2650.0,85.8,84.54988778737923,74.94025359375134,79.51212282795012,45.03776495942911,49.6096341936279,40
2720.0,85.8,84.56263552862052,74.91017784210793,79.44817467517575,45.11446085344477,49.65245768651259,40
2800.0,85.8,84.73031524176932,75.11447075383245,79.59670129687993,45.13361394488939,49.61584448793687,40
2900.0,85.8,84.96954952155431,75.4959389769486,79.9001098165208,45.06943970503352,49.47361054460572,40
3000.0,85.8,85.18864669054769,75.88636891547084,80.24128463821602,44.94736205233167,49.302277775076846,40
3070.0,85.8,85.30246105425222,76.12317470172255,80.48786626900522,44.814594785246996,49.17928635252967,40
3150.0,85.8,85.25348676700165,76.17031252975849,80.5600353884422,44.693451378559445,49.083174237243156,40
3250.0,85.69999999999999,85.32004721878702,76.2505454003593,80.65280119735549,44.66724602143154,49.069501818427725,40
3350.0,85.69999999999999,85.43937201375803,76.32134185036867,80.67353672343236,44.76583529032567,49.11803016338936,40
3450.0,85.6,85.44225636775514,76.19149629506457,80.5221140336562,44.92014233409894,49.25076007269057,40
3550.0,85.5,85.19892233875899,75.80542724809253,80.15712947473966,45.04179286401933,49.39349509066646,40
3650.0,85.4,84.85201986845757,75.38063329537263,79.76002525887915,45.09199460957842,49.47138657308494,40
3750.0,85.30000000000001,84.53705629652633,75.04738861222232,79.45688616326957,45.08017013325676,49.48966768430401,40
3870.0,85.2,84.38515123538096,74.98167675069175,79.37881737692567,45.00633385845529,49.40347448468921,40
4000.0,85.2,84.41052603783949,75.0724860067515,79.46233626851208,44.94818976932741,49.338040031087985,40
4120.0,85.30000000000001,84.3707953755881,74.96258835550033,79.36438998966648,45.006405385921624,49.40820702008777,40
4250.0,85.4,84.19035065571626,74.62873416125082,79.06972463861493,45.12062601710133,49.56161649446544,40
4370.0,85.4,84.02557373395057,74.38541870448356,78.84613192780593,45.17944180614464,49.64015502946701,40
4500.0,85.4,84.01299388186689,74.37821450645689,78.86007382154469,45.1529200603222,49.634779375410005,40
