Freq "On Axis"
22.4 37.31898734177213
23.0 39.11898734177214
23.6 40.91898734177215
24.0 42.81898734177213
25.0 44.81898734177213
25.8 46.718987341772134
26.5 48.61898734177214
27.2 50.518987341772146
28.0 52.31898734177213
29.0 54.018987341772146
30.0 55.518987341772146
30.7 56.81898734177213
31.5 58.018987341772146
32.5 59.218987341772134
33.5 60.41898734177215
34.5 61.61898734177214
35.5 62.91898734177215
36.5 64.21898734177213
37.5 65.51898734177215
38.7 66.81898734177214
40.0 68.21898734177213
41.2 69.61898734177214
42.5 70.91898734177212
43.7 72.31898734177213
45.0 73.71898734177213
46.2 75.11898734177214
47.5 76.41898734177214
48.7 77.81898734177214
50.0 79.11898734177214
51.5 80.41898734177214
53.0 81.61898734177214
54.5 82.71898734177213
56.0 83.81898734177214
58.0 84.81898734177213
60.0 85.71898734177213
61.5 86.41898734177214
63.0 87.11898734177214
65.0 87.61898734177214
67.0 88.01898734177215
69.0 88.31898734177216
71.0 88.61898734177214
73.0 88.81898734177214
75.0 88.91898734177214
77.5 89.01898734177213
80.0 89.11898734177214
82.5 89.21898734177213
85.0 89.21898734177213
87.5 89.31898734177214
90.0 89.31898734177214
92.5 89.31898734177214
95.0 89.31898734177214
97.5 89.31898734177214
100.0 89.31898734177214
103.0 89.31898734177214
106.0 89.41898734177215
109.0 89.41898734177215
112.0 89.41898734177215
115.0 89.41898734177215
118.0 89.41898734177215
122.0 89.41898734177215
125.0 89.41898734177215
128.0 89.41898734177215
132.0 89.41898734177215
136.0 89.41898734177215
140.0 89.41898734177215
145.0 89.41898734177215
150.0 89.41898734177215
155.0 89.41898734177215
160.0 89.41898734177215
165.0 89.41898734177215
170.0 89.41898734177215
175.0 89.41898734177215
180.0 89.41898734177215
185.0 89.41898734177215
190.0 89.31898734177214
195.0 89.31898734177214
200.0 89.31898734177214
206.0 89.31898734177214
212.0 89.31898734177214
218.0 89.31898734177214
224.0 89.31898734177214
230.0 89.31898734177214
236.0 89.31898734177214
240.0 89.31898734177214
250.0 89.31898734177214
258.0 89.21898734177213
265.0 89.21898734177213
272.0 89.21898734177213
280.0 89.21898734177213
290.0 89.21898734177213
300.0 89.21898734177213
307.0 89.21898734177213
315.0 89.21898734177213
325.0 89.11898734177214
335.0 89.11898734177214
345.0 89.11898734177214
355.0 89.11898734177214
365.0 89.11898734177214
375.0 89.11898734177214
387.0 89.11898734177214
400.0 89.01898734177213
412.0 89.01898734177213
425.0 89.01898734177213
437.0 88.91898734177214
450.0 88.81898734177214
462.0 88.71898734177213
475.0 88.71898734177213
487.0 88.81898734177214
500.0 88.81898734177214
515.0 88.81898734177214
530.0 88.81898734177214
545.0 88.81898734177214
560.0 88.81898734177214
580.0 88.71898734177213
600.0 88.71898734177213
615.0 88.71898734177213
630.0 88.71898734177213
650.0 88.61898734177214
670.0 88.61898734177214
690.0 88.61898734177214
710.0 88.51898734177213
730.0 88.51898734177213
750.0 88.51898734177213
775.0 88.41898734177212
800.0 88.41898734177212
825.0 88.41898734177212
850.0 88.41898734177212
875.0 88.31898734177216
900.0 88.31898734177216
925.0 88.31898734177216
950.0 88.21898734177213
975.0 88.21898734177213
1000.0 88.21898734177213
1030.0 88.11898734177214
1060.0 88.11898734177214
1090.0 88.01898734177215
1120.0 88.01898734177215
1150.0 87.91898734177214
1180.0 87.91898734177214
1220.0 87.91898734177214
1250.0 87.81898734177214
1280.0 87.81898734177214
1320.0 87.81898734177214
1360.0 87.71898734177213
1400.0 87.71898734177213
1450.0 87.71898734177213
1500.0 87.61898734177214
1550.0 87.61898734177214
1600.0 87.51898734177213
1650.0 87.51898734177213
1700.0 87.41898734177214
1750.0 87.41898734177214
1800.0 87.41898734177214
1850.0 87.41898734177214
1900.0 87.41898734177214
1950.0 87.31898734177213
2000.0 87.31898734177213
2060.0 87.21898734177213
2120.0 87.11898734177214
2180.0 87.11898734177214
2240.0 87.01898734177212
2300.0 87.01898734177212
2360.0 87.01898734177212
2400.0 86.91898734177215
2500.0 86.91898734177215
2580.0 86.81898734177214
2650.0 86.71898734177213
2720.0 86.71898734177213
2800.0 86.71898734177213
2900.0 86.71898734177213
3000.0 86.71898734177213
3070.0 86.71898734177213
3150.0 86.71898734177213
3250.0 86.61898734177214
3350.0 86.61898734177214
3450.0 86.51898734177213
3550.0 86.41898734177214
3650.0 86.31898734177214
3750.0 86.21898734177213
3870.0 86.11898734177214
4000.0 86.11898734177214
4120.0 86.21898734177213
4250.0 86.31898734177214
4370.0 86.31898734177214
4500.0 86.31898734177214
4620.0 86.21898734177213
4750.0 86.11898734177214
4870.0 86.11898734177214
5000.0 85.91898734177212
5150.0 85.81898734177216
5300.0 85.81898734177216
5450.0 85.91898734177212
5600.0 86.01898734177213
5800.0 86.01898734177213
6000.0 86.01898734177213
6150.0 85.91898734177212
6300.0 85.81898734177216
6500.0 85.71898734177213
6700.0 85.71898734177213
6900.0 85.61898734177214
7100.0 85.51898734177215
7300.0 85.41898734177214
7500.0 85.21898734177213
7750.0 84.81898734177213
8000.0 84.41898734177215
8250.0 84.11898734177214
8500.0 84.01898734177213
8750.0 83.91898734177214
9000.0 83.81898734177214
9250.0 83.61898734177214
9500.0 83.41898734177212
9750.0 83.21898734177213
10000.0 83.01898734177215
10300.0 82.91898734177214
10600.0 82.81898734177214
10900.0 82.81898734177214
11200.0 82.61898734177214
11500.0 82.31898734177213
11800.0 82.01898734177212
12200.0 81.61898734177214
12500.0 81.31898734177214
12800.0 80.91898734177212
13200.0 80.41898734177214
13600.0 79.91898734177214
14000.0 79.51898734177212
14500.0 79.11898734177214
15000.0 78.61898734177214
15500.0 78.01898734177215
16000.0 77.41898734177214
16500.0 76.71898734177213
17000.0 75.91898734177212
17500.0 74.91898734177214
18000.0 73.61898734177214
18500.0 72.31898734177213
19000.0 70.81898734177216
19500.0 69.21898734177213
