Freq "Sound Power"
22.4 55.209457828372024
23.0 54.6275725499533
23.6 54.2999356316721
24.0 54.20467675959571
25.0 54.46354065059302
25.8 55.11852519861782
26.5 56.169851295055395
27.2 57.62420552079752
28.0 59.2359979179557
29.0 60.779520173684375
30.0 61.99543365449287
30.7 62.83683962655351
31.5 63.349952058377255
32.5 63.69112821174926
33.5 64.00936869441068
34.5 64.40883249439997
35.5 64.95182453779304
36.5 65.64797137139968
37.5 66.48116912620185
38.7 67.43658880682457
40.0 68.47734177134947
41.2 69.60771421450255
42.5 70.78857907756682
43.7 72.01052959361306
45.0 73.2529200564687
46.2 74.51432392733685
47.5 75.79177743120734
48.7 77.03138396441304
50.0 78.25616081111913
51.5 79.4521703731676
53.0 80.6108765102606
54.5 81.71583536312579
56.0 82.74050777896018
58.0 83.69588336089744
60.0 84.53817345115459
61.5 85.27041191400781
63.0 85.86402078512455
65.0 86.36400925334763
67.0 86.72208727320864
69.0 87.0148043606255
71.0 87.20086396495617
73.0 87.32378376926508
75.0 87.40828574721634
77.5 87.42733628858305
80.0 87.41676049240198
82.5 87.38420046085461
85.0 87.33146515953902
87.5 87.2825864691733
90.0 87.22701691191764
92.5 87.16906496028281
95.0 87.11327629412105
97.5 87.05531555507417
100.0 87.02535666726297
103.0 86.97626555102883
106.0 86.93284965904387
109.0 86.91715139143099
112.0 86.91798600925713
115.0 86.90920565885884
118.0 86.89348072707404
122.0 86.87444788328624
125.0 86.84864525892921
128.0 86.8080761333018
132.0 86.73795783512278
136.0 86.66637168379675
140.0 86.57175559444963
145.0 86.46934834152091
150.0 86.33700742205416
155.0 86.16442162720003
160.0 86.00256539825277
165.0 85.81849004318084
170.0 85.62194056161627
175.0 85.4203790503397
180.0 85.25393148179377
185.0 85.07462325366708
190.0 84.92435043533055
195.0 84.7859927398181
200.0 84.63203878397653
206.0 84.47811800367221
212.0 84.33778203318465
218.0 84.17596721493098
224.0 84.00932970019647
230.0 83.82987428297099
236.0 83.64349243328775
240.0 83.46058824498405
250.0 83.30873740388853
258.0 83.1688708207227
265.0 83.05340964083267
272.0 82.94296619752075
280.0 82.84195960134483
290.0 82.72255939695332
300.0 82.62355355733429
307.0 82.50571226138285
315.0 82.40499766976706
325.0 82.3027826693657
335.0 82.18042363215135
345.0 82.10088550429222
355.0 82.01686166420292
365.0 81.94863790549856
375.0 81.92110037429174
387.0 81.90039570730602
400.0 81.92282374547348
412.0 82.00026974628018
425.0 82.14011908108158
437.0 82.2873508857783
450.0 82.39291742543182
462.0 82.18255905996931
475.0 81.52053450739574
487.0 80.72449255417439
500.0 80.15146895670398
515.0 79.87790318721987
530.0 79.72131243986121
545.0 79.64707932428132
560.0 79.6325732312007
580.0 79.71814467009949
600.0 79.80401804800047
615.0 79.94443168608893
630.0 80.11515889339898
650.0 80.3194840312555
670.0 80.53338597161793
690.0 80.72836957250155
710.0 80.81539105704697
730.0 80.69478991092194
750.0 80.30811924503752
775.0 79.7327182793264
800.0 79.04539452428673
825.0 78.3754115249726
850.0 77.78592470563932
875.0 77.45528312175657
900.0 77.39983106739773
925.0 77.60566660286291
950.0 78.02905588980573
975.0 78.51339803165834
1000.0 78.84809847770912
1030.0 78.96527719651894
1060.0 78.89262396504222
1090.0 78.60789741936426
1120.0 78.25924060444828
1150.0 77.91336657810992
1180.0 77.66022470806237
1220.0 77.63665466255384
1250.0 77.88781788828126
1280.0 78.18176511210902
1320.0 78.41161168549488
1360.0 78.45486747112072
1400.0 78.27413448207818
1450.0 78.02672534661045
1500.0 77.83726949619326
1550.0 77.78730302572181
1600.0 77.85904040922694
1650.0 77.87323188552126
1700.0 77.76546325198825
1750.0 77.58212238419321
1800.0 77.36418375111542
1850.0 77.12134814145817
1900.0 76.88656406680295
1950.0 76.57484367419923
2000.0 76.26672462499772
2060.0 76.0745843256748
2120.0 76.0448264356225
2180.0 76.2057641454501
2240.0 76.38098151660773
2300.0 76.50427733845164
2360.0 76.49119424115409
2400.0 76.38853637378521
2500.0 76.2213910456956
2580.0 76.02502183569578
2650.0 75.85924093552347
2720.0 75.82916518388006
2800.0 76.03345809560457
2900.0 76.41492631872073
3000.0 76.80535625724298
3070.0 77.04216204349468
3150.0 77.08929987153061
3250.0 77.16953274213144
3350.0 77.24032919214082
3450.0 77.1104836368367
3550.0 76.72441458986467
3650.0 76.29962063714477
3750.0 75.96637595399446
3870.0 75.9006640924639
4000.0 75.99147334852364
4120.0 75.88157569727247
4250.0 75.54772150302296
4370.0 75.30440604625569
4500.0 75.29720184822901
4620.0 75.43452018489636
4750.0 75.55678983457494
4870.0 75.56615023469922
5000.0 75.50664317966755
5150.0 75.6024119232483
5300.0 75.82737509487384
5450.0 76.10320080420883
5600.0 76.36119879828692
5800.0 76.48182583183291
6000.0 76.46673825687844
6150.0 76.31626391941286
6300.0 76.15727044898074
6500.0 75.93527893226593
6700.0 75.72243625867999
6900.0 75.64444214090682
7100.0 75.61639213677174
7300.0 75.51945362648533
7500.0 75.30075485289886
7750.0 74.97426289771832
8000.0 74.58628755107884
8250.0 74.31505140178015
8500.0 74.1045049490515
8750.0 73.85522869521657
9000.0 73.45967272748895
9250.0 72.93611041471739
9500.0 72.44083607903019
9750.0 72.2465172043746
10000.0 72.20665316469338
10300.0 71.84652319866164
10600.0 70.82990541587608
10900.0 69.47686269672776
11200.0 68.41214490294088
11500.0 68.2163216436176
11800.0 68.62059951843608
12200.0 68.85739241394064
12500.0 68.21582443773633
12800.0 67.01942994993041
13200.0 65.64849850790817
13600.0 64.54460289105012
14000.0 63.71216523783093
14500.0 63.086619341481565
15000.0 62.479617742980736
15500.0 62.127405880861545
16000.0 61.83862149291468
16500.0 61.190815741587414
17000.0 60.0614840542826
17500.0 58.82864561399367
18000.0 57.644668178759474
18500.0 56.48461223329002
19000.0 55.02325629751334
19500.0 53.19031329681138
