Freq "Estimated In-Room Response"
22.4 37.04737510826044
23.0 37.68093215229173
23.6 38.29811194275078
24.0 39.411115622060905
25.0 44.14291939889503
25.8 46.99059158453372
26.5 48.804920346246234
27.2 50.91877675119464
28.0 53.76376312524954
29.0 55.64491083285718
30.0 57.150675331376334
30.7 59.3150152480942
31.5 60.99689271218659
32.5 62.571583303363255
33.5 65.82555569652061
34.5 68.02646138542218
35.5 69.8032887009076
36.5 71.84269615907996
37.5 73.32692297031352
38.7 74.69050684222924
40.0 75.91996384510409
41.2 76.8472869581266
42.5 77.53324839393466
43.7 78.05976105986896
45.0 78.12635352730524
46.2 78.08923845766475
47.5 78.2484199500929
48.7 78.45922176044415
50.0 78.51355105807883
51.5 78.51286998178297
53.0 78.64332851641309
54.5 78.75205194193403
56.0 78.6528022186081
58.0 78.76158170370246
60.0 79.09055561113762
61.5 79.54154233209526
63.0 79.85425382784027
65.0 79.95839722163468
67.0 80.3302572147206
69.0 80.66029203865624
71.0 80.82724108095661
73.0 80.96288713395431
75.0 81.29919152613672
77.5 81.54177311052615
80.0 81.5020935773469
82.5 81.20612747742751
85.0 80.71058305115614
87.5 80.80617540148589
90.0 80.56782538443709
92.5 80.98797658510458
95.0 80.95780332833479
97.5 80.86765377916934
100.0 80.78515038681427
103.0 80.49422063846214
106.0 80.76829984757393
109.0 80.49447661628682
112.0 80.56132274579853
115.0 80.15395052262686
118.0 80.38907558484685
122.0 80.17961048235121
125.0 80.37486633367645
128.0 80.40990381216392
132.0 80.49751121934707
136.0 80.38233604663523
140.0 80.5041524102969
145.0 80.45330260400297
150.0 80.0525612082234
155.0 79.89845390193315
160.0 79.9391659628013
165.0 79.90230709606466
170.0 79.66583121297556
175.0 78.89258963673205
180.0 78.09047170079813
185.0 77.82869827751323
190.0 77.02863778056829
195.0 76.51721244018728
200.0 76.49509760633937
206.0 76.20529554522116
212.0 75.65179736437983
218.0 75.11187368420866
224.0 74.59090192388251
230.0 74.006991934635
236.0 73.33849627035791
240.0 72.95165126368647
250.0 72.72701292740626
258.0 72.69308783998153
265.0 72.70741935314118
272.0 72.43392677420024
280.0 72.19795102363014
290.0 72.14782595853649
300.0 72.42753305992427
307.0 72.79237156482235
315.0 72.7530022784097
325.0 72.71039931381164
335.0 72.75389217008842
345.0 73.02457563984693
355.0 73.27191898233812
365.0 72.38760539289844
375.0 70.55656382862804
387.0 68.73944844067049
400.0 68.05364195010763
412.0 67.99941880374378
425.0 67.05117969736395
437.0 65.45157312227761
450.0 64.16751133295881
462.0 63.83734608983417
475.0 63.91909394591403
487.0 63.868972101100724
500.0 63.7607672257369
515.0 63.665473257765186
530.0 63.64031842973334
545.0 63.399097065621646
560.0 62.77065645310904
580.0 62.1097579826868
600.0 61.459510704065835
615.0 60.894591333493906
630.0 60.32567959427689
650.0 59.53795978405864
670.0 58.57583373881124
690.0 57.70433725609085
710.0 57.11159384538429
730.0 56.61398524770031
750.0 56.08212798895269
775.0 55.362002160899394
800.0 54.64464816177991
825.0 53.81307183133275
850.0 52.86108699870009
875.0 51.53457242903832
900.0 49.64519934138626
925.0 48.13936919719838
950.0 47.15494738418499
975.0 46.002168623945764
1000.0 44.92118595499154
1030.0 44.04474826549571
1060.0 43.30515497119042
1090.0 42.699891940309925
1120.0 42.13084167873103
1150.0 41.459943704180205
1180.0 40.31426203039322
1220.0 39.27053379625792
1250.0 38.756276564897945
1280.0 38.751541131587146
1320.0 38.84808259648058
1360.0 38.748667267357945
1400.0 38.60441088085567
1450.0 38.67002904835633
1500.0 37.97893581353702
1550.0 36.37272486235872
1600.0 35.4291571475362
1650.0 35.55345986792227
1700.0 36.7946473955611
1750.0 37.80897394750801
1800.0 37.980388980631574
1850.0 35.071067766518
1900.0 32.95884871651657
1950.0 32.55977247948255
2000.0 33.63219198457176
2060.0 35.93721393642292
2120.0 37.780395565636795
2180.0 37.27412760229316
2240.0 33.60239476066582
2300.0 29.100126197430455
2360.0 26.850898416177927
2400.0 29.289050330180658
2500.0 32.29202158371355
2580.0 33.21778638637616
2650.0 31.09978013252109
2720.0 26.309633237033268
2800.0 23.363534294488915
2900.0 24.566944810995096
3000.0 25.13971412894665
3070.0 25.359254431458766
3150.0 23.64627657735832
3250.0 22.57472494741677
3350.0 20.64484776820359
3450.0 19.398348261924156
3550.0 20.978867913927303
3650.0 20.138177695720998
3750.0 19.689787768468932
3870.0 18.931236672640978
4000.0 20.64163683700656
4120.0 21.87901152995545
4250.0 19.747594188431066
4370.0 16.59351223100998
4500.0 14.560320177870011
4620.0 10.040644399164705
4750.0 4.141820190158057
4870.0 1.194258121597727
5000.0 -0.6140773558223032
5150.0 -1.0913933631208295
5300.0 0.52228924803822
5450.0 1.4768262432643553
5600.0 1.5105175941081939
5800.0 -0.18383189669017952
6000.0 -3.2713589626939097
6150.0 -4.560746313720415
6300.0 -2.4566637202705977
6500.0 -2.8409522440647947
6700.0 -1.995248358513777
6900.0 4.279117926980575
7100.0 3.431572204857133
7300.0 -0.40087550565226593
7500.0 0.5618334435092436
7750.0 1.5975174510919317
8000.0 0.49813186721308966
8250.0 -1.286691878027682
8500.0 -2.5344295974726094
8750.0 -4.88566075010084
9000.0 -0.061353184135157335
9250.0 -3.1524883958979615
9500.0 -2.1811819846885214
9750.0 -0.27139240131918996
10000.0 -1.8159158028257991
10300.0 -4.290033615461084
10600.0 2.6668773965232617
10900.0 -2.625763194287231
11200.0 -4.962995999857441
11500.0 -7.043407073376898
11800.0 -6.297792789475352
12200.0 -5.168316375819472
12500.0 -6.023000124383458
12800.0 -6.0846981077924625
13200.0 -8.068095865436732
13600.0 -9.890967498621421
14000.0 -10.873141682337518
14500.0 -10.442064361875339
15000.0 -9.620027234250387
15500.0 -10.908151731211603
16000.0 -6.077112131757531
16500.0 -6.578269331860383
17000.0 -8.005433382838135
17500.0 -5.817116378928688
18000.0 -9.567441267484128
18500.0 -8.191949664511924
19000.0 -5.398304682834663
19500.0 -2.7304028939387877
