Freq "On Axis"
22.4 14.003797468354406
23.0 15.003797468354406
23.6 16.10379746835443
24.0 17.10379746835443
25.0 18.003797468354406
25.8 19.003797468354406
26.5 20.10379746835443
27.2 20.303797468354418
28.0 20.703797468354423
29.0 21.203797468354423
30.0 21.703797468354423
30.7 22.403797468354412
31.5 22.903797468354412
32.5 23.003797468354406
33.5 24.003797468354406
34.5 25.203797468354423
35.5 26.503797468354406
36.5 28.10379746835443
37.5 29.303797468354418
38.7 30.403797468354412
40.0 30.703797468354423
41.2 31.10379746835443
42.5 31.60379746835443
43.7 32.30379746835442
45.0 32.80379746835442
46.2 33.40379746835441
47.5 34.20379746835442
48.7 35.20379746835442
50.0 36.003797468354406
51.5 36.80379746835442
53.0 37.40379746835441
54.5 38.10379746835443
56.0 39.003797468354406
58.0 40.20379746835442
60.0 40.90379746835441
61.5 41.30379746835442
63.0 42.103797468354415
65.0 43.003797468354406
67.0 43.80379746835442
69.0 44.603797468354415
71.0 45.40379746835441
73.0 46.20379746835442
75.0 47.003797468354406
77.5 47.80379746835442
80.0 48.503797468354406
82.5 49.30379746835442
85.0 50.103797468354415
87.5 50.90379746835441
90.0 51.60379746835443
92.5 52.40379746835441
95.0 53.1037974683544
97.5 53.90379746835441
100.0 54.603797468354415
103.0 55.30379746835442
106.0 56.103797468354415
109.0 56.80379746835442
112.0 57.503797468354406
115.0 58.20379746835442
118.0 58.80379746835442
122.0 59.503797468354406
125.0 60.103797468354415
128.0 60.70379746835442
132.0 61.20379746835442
136.0 61.80379746835442
140.0 62.20379746835442
145.0 62.70379746835442
150.0 63.20379746835441
155.0 63.603797468354415
160.0 64.00379746835442
165.0 64.30379746835442
170.0 64.60379746835441
175.0 64.90379746835441
180.0 65.00379746835442
185.0 65.20379746835442
190.0 65.30379746835442
195.0 65.30379746835442
200.0 65.30379746835442
206.0 65.20379746835442
212.0 65.10379746835441
218.0 64.90379746835441
224.0 64.80379746835442
230.0 64.60379746835441
236.0 64.40379746835441
240.0 64.30379746835442
250.0 64.2037974683544
258.0 64.10379746835443
265.0 64.10379746835443
272.0 64.00379746835442
280.0 64.00379746835442
290.0 63.90379746835441
300.0 63.80379746835442
307.0 63.70379746835441
315.0 63.603797468354415
325.0 63.50379746835442
335.0 63.50379746835442
345.0 63.603797468354415
355.0 63.70379746835441
365.0 63.80379746835442
375.0 63.90379746835441
387.0 63.90379746835441
400.0 63.80379746835442
412.0 63.70379746835441
425.0 63.70379746835441
437.0 63.70379746835441
450.0 63.80379746835442
462.0 63.90379746835441
475.0 64.10379746835443
487.0 64.2037974683544
500.0 64.30379746835442
515.0 64.30379746835442
530.0 64.2037974683544
545.0 64.2037974683544
560.0 64.2037974683544
580.0 64.30379746835442
600.0 64.40379746835441
615.0 64.5037974683544
630.0 64.60379746835441
650.0 64.60379746835441
670.0 64.70379746835441
690.0 64.70379746835441
710.0 64.40379746835441
730.0 64.10379746835443
750.0 64.40379746835441
775.0 65.00379746835442
800.0 65.20379746835442
825.0 65.00379746835442
850.0 64.90379746835441
875.0 65.80379746835442
900.0 66.60379746835443
925.0 67.10379746835441
950.0 67.0037974683544
975.0 66.80379746835442
1000.0 66.80379746835442
1030.0 67.10379746835441
1060.0 67.0037974683544
1090.0 66.60379746835443
1120.0 66.60379746835443
1150.0 67.0037974683544
1180.0 67.50379746835442
1220.0 67.40379746835441
1250.0 67.30379746835442
1280.0 67.30379746835442
1320.0 66.7037974683544
1360.0 66.7037974683544
1400.0 66.80379746835442
1450.0 66.90379746835441
1500.0 66.90379746835441
1550.0 67.40379746835441
1600.0 68.50379746835442
1650.0 69.60379746835441
1700.0 69.40379746835441
1750.0 68.20379746835441
1800.0 66.40379746835441
1850.0 65.80379746835442
1900.0 64.90379746835441
1950.0 63.003797468354435
2000.0 60.503797468354406
2060.0 58.503797468354406
2120.0 59.90379746835441
2180.0 62.70379746835442
2240.0 64.5037974683544
2300.0 65.40379746835441
2360.0 65.70379746835441
2400.0 65.10379746835441
2500.0 64.2037974683544
2580.0 63.80379746835442
2650.0 64.40379746835441
2720.0 63.20379746835441
2800.0 63.40379746835441
2900.0 64.2037974683544
3000.0 64.60379746835441
3070.0 64.60379746835441
3150.0 65.10379746835441
3250.0 65.80379746835442
3350.0 66.20379746835441
3450.0 66.80379746835442
3550.0 67.40379746835441
3650.0 67.0037974683544
3750.0 67.20379746835441
3870.0 68.1037974683544
4000.0 68.80379746835442
4120.0 69.00379746835442
4250.0 69.40379746835441
4370.0 68.60379746835441
4500.0 68.50379746835442
4620.0 68.40379746835441
4750.0 68.90379746835441
4870.0 69.2037974683544
5000.0 69.00379746835442
5150.0 68.60379746835441
5300.0 67.90379746835441
5450.0 67.80379746835442
5600.0 67.70379746835442
5800.0 67.60379746835441
6000.0 67.20379746835441
6150.0 66.50379746835442
6300.0 65.30379746835442
6500.0 63.40379746835441
6700.0 61.30379746835442
6900.0 59.80379746835442
7100.0 57.20379746835442
7300.0 56.003797468354406
7500.0 57.40379746835441
7750.0 59.503797468354406
8000.0 62.003797468354406
8250.0 64.40379746835441
8500.0 65.10379746835441
8750.0 65.00379746835442
9000.0 64.60379746835441
9250.0 65.00379746835442
9500.0 66.40379746835441
9750.0 68.20379746835441
10000.0 69.40379746835441
10300.0 69.10379746835443
10600.0 68.70379746835441
10900.0 68.30379746835442
11200.0 68.1037974683544
11500.0 67.30379746835442
11800.0 63.90379746835441
12200.0 58.90379746835441
12500.0 57.603797468354415
12800.0 61.003797468354406
13200.0 62.70379746835442
13600.0 63.50379746835442
14000.0 60.30379746835442
14500.0 57.503797468354406
15000.0 63.30379746835442
15500.0 66.00379746835442
16000.0 65.70379746835441
16500.0 62.20379746835442
17000.0 58.30379746835442
17500.0 61.503797468354406
18000.0 59.20379746835442
18500.0 52.30379746835442
19000.0 56.40379746835441
19500.0 53.90379746835441
