Freq "Rear Wall Bounce"
20.5078 54.70087657213972
21.2402 59.98670489397773
21.9727 64.02800042054952
22.7051 66.77171605874706
23.4375 68.25348600609868
24.1699 68.93012959240768
25.6348 69.72258897460608
26.3672 70.00201538703048
27.0996 70.32624836063803
27.832 70.99814229125056
29.2969 72.22229832615807
30.0293 72.80277706609401
31.4941 73.66330958932147
32.2266 73.90479484414574
33.6914 74.2309858490181
34.4238 74.26931709282432
35.8887 74.45857534345781
37.3535 74.7422154515522
38.8184 75.14042555123558
39.5508 75.34443549460507
41.0156 76.11550192568752
42.4805 76.46119685025236
43.9453 76.96086040105415
45.4102 77.39991033659935
47.6074 78.0194157010593
49.0723 78.40895940720638
50.5371 78.79454697900628
52.7344 79.37603469435298
54.1992 79.7368316113763
56.3965 80.25807994772191
58.5938 80.76434241270182
60.0586 81.15502431052835
62.2559 81.71639182484863
64.4531 82.24739054740832
66.6504 82.7151693089016
69.5801 83.43309560056068
71.7773 83.9053763688347
73.9746 84.41169882211001
76.9043 85.07843909360798
79.834 85.68357389336686
82.7637 86.24310927608744
85.6934 86.75320422670208
88.623 87.27446059609605
91.5527 87.72486738911013
94.4824 88.07391659882366
98.1445 88.40376342293396
101.807 88.78674848909253
105.469 89.01201878429337
109.131 89.2318960593812
112.793 89.45535314919549
116.455 89.57733710745795
120.85 89.65186823601552
125.244 89.53709582318251
129.639 89.29374256077986
134.033 89.22158604549404
138.428 89.1103636148326
143.555 88.73207056488306
148.682 88.45435812761993
153.809 88.1497432613936
159.668 88.05613196811466
164.795 87.95145178635768
170.654 87.85624946127054
176.514 87.52162586329575
183.105 87.0108836425172
189.697 86.78181509689392
196.289 86.82782486946552
202.881 86.52747024028604
210.205 86.11403425350223
217.529 85.99833585861359
225.586 85.97402747154565
232.91 85.65868101567676
241.699 85.02234537431033
249.756 84.42140098997692
258.545 84.76341012560066
268.066 83.85845575000305
277.588 84.17628148297081
287.109 84.20930601131072
297.363 83.72074858297395
307.617 83.94170874705489
318.604 83.0433037881457
329.59 82.79151466028179
341.309 82.65916788434217
353.76 81.95602160432219
366.211 81.65891833255723
378.662 82.07569644224701
392.578 81.10793916457254
405.762 81.31245977374269
420.41 80.50296328822034
435.059 80.32052076126466
450.439 80.29733637153473
466.553 80.63393440995694
482.666 79.93944888784202
500.244 80.0619985680694
517.822 80.03663562325703
536.133 79.72553752600567
554.443 78.33408664879775
574.219 79.60986932307534
594.727 78.25810033863111
615.234 76.94499971563341
637.207 76.25040572499232
659.912 79.33843551787791
683.35 80.81503255232172
706.787 80.48911405713466
731.689 81.37551233959103
758.057 82.37422483348749
784.424 80.31945373006087
812.256 80.36146764443197
840.82 81.16731920065627
870.85 82.37511914789182
901.611 80.75177843067789
933.105 79.92253441945503
966.064 79.58250641843695
999.756 78.92019470271629
1034.91 78.99517720533262
1071.53 78.55015239585441
1109.62 78.02011718738657
1148.44 77.91271712276725
1189.45 78.85476824542296
1231.2 78.69251267674039
1274.41 77.97729576684321
1319.82 77.54283409785576
1365.97 76.24216656191835
1414.31 75.11851029305132
1464.11 75.12324421256305
1515.38 74.80379117434572
1568.85 73.50737271747474
1624.51 71.00994312729641
1681.64 70.58487798953028
1740.97 72.33416106270072
1802.49 71.94245588825879
1866.21 71.37225110301092
1932.13 72.37713249475757
2000.24 73.78486414094002
2070.56 75.23843212215668
2143.8 75.25265307791602
2219.24 75.4508314613584
2297.61 75.35161559287461
2378.17 75.3348130569115
2462.4 74.68600287072424
2548.83 74.62132655312276
2638.92 74.94574640517457
2731.93 75.36492962305304
2828.61 76.10411001533939
2928.22 76.88771348419354
3031.49 76.94582605933059
3138.43 77.02497976003002
3249.02 77.1533368224941
3363.28 76.89374547501781
3481.93 76.95702376039534
3604.98 76.73507725527864
3732.42 76.24263332823566
3863.53 75.9630555133503
3999.76 76.67892044763838
4141.11 76.1292539087893
4286.87 76.0273310203061
4438.48 76.36195340024955
4594.48 75.84054219376843
4757.08 76.08932995064042
4924.8 75.96725340282251
5098.39 76.01970550977414
5277.83 76.69135063456702
5463.87 75.37285257687091
5656.49 73.53163288507255
5856.45 73.11409431393113
6062.99 73.06630705948702
6276.86 72.68819433963974
6498.05 72.9714665899958
6727.29 73.38076819746678
6964.6 72.11759787467346
7209.96 71.93113851697782
7464.11 71.34403645299376
7727.78 70.44342151616436
8000.24 69.64854726443187
8282.23 70.04992378066665
8574.46 70.55687718459856
8876.22 70.47356215386588
9189.7 70.23892953578029
9513.43 69.42226256376046
9848.88 68.42425295609512
10196.8 67.32758021885867
10556.4 65.69564833767978
10928.5 64.5490572488529
11313.7 63.83532349545362
11712.9 63.04304338716486
12126.0 62.146095959655156
12553.7 59.80767380393303
12996.1 57.046672892809966
13454.6 54.16554144169325
13928.5 50.563652380215984
14419.9 46.973417299363064
14928.2 51.2194995854004
15454.8 51.48416322185278
15999.8 51.51155949638044
16564.5 51.62324242155853
17148.2 46.95062957539369
17753.2 43.56331152920097
18379.4 44.334599493696686
19027.6 44.605821662849735
19698.5 44.48546227195018
19999.5 44.80638261259233
