Freq "Sound Power"
20.5078 54.251528204664055
21.2402 55.417541763910975
21.9727 56.604068514125345
22.7051 57.21281489880238
23.4375 58.27887694710358
24.1699 60.08197616844262
25.6348 62.83620163364347
26.3672 63.47326166735158
27.0996 64.0426314940276
27.832 65.67963706957103
29.2969 67.56056128713112
30.0293 68.58260066884279
31.4941 70.28067737109043
32.2266 71.46901925766545
33.6914 73.44754887911502
34.4238 74.29426104994778
35.8887 76.04008044300211
37.3535 77.59791494251527
38.8184 78.80606093005561
39.5508 79.33837061183317
41.0156 80.2185425530499
42.4805 80.82581300058473
43.9453 81.1684389796466
45.4102 81.39926272709727
47.6074 81.55409193769026
49.0723 81.56873399801154
50.5371 81.54827593755293
52.7344 81.51677076950578
54.1992 81.52763356303375
56.3965 81.47715145212611
58.5938 81.52277083663243
60.0586 81.5243859124974
62.2559 81.43031171555104
64.4531 81.46483416854142
66.6504 81.41223844174155
69.5801 81.40377203197697
71.7773 81.46640520259126
73.9746 81.4380612096313
76.9043 81.45253807716075
79.834 81.53419988137955
82.7637 81.31827710090256
85.6934 81.4034649327734
88.623 81.49714173360908
91.5527 81.5725213408336
94.4824 81.50721005723256
98.1445 81.4989716067316
101.807 81.38623189604601
105.469 81.41373616945594
109.131 81.30344335502235
112.793 81.25687020057134
116.455 81.24103831092316
120.85 81.17527995403833
125.244 81.1789772952142
129.639 81.15081613209703
134.033 81.1591681060271
138.428 80.96193605284355
143.555 81.0013418036951
148.682 80.94300364786147
153.809 80.92291998015668
159.668 80.66580522325066
164.795 80.61186794576952
170.654 80.82514787825485
176.514 80.6101073550157
183.105 80.49068946433655
189.697 80.45180969639134
196.289 80.10308693708065
202.881 80.28023614152887
210.205 80.16947578396775
217.529 80.07618111076512
225.586 79.85794996977889
232.91 79.72242460480777
241.699 79.93868513972937
249.756 79.66670931417235
258.545 79.94379704820506
268.066 79.91215273462149
277.588 79.9357831262271
287.109 79.99020118874414
297.363 79.61023629739374
307.617 79.40234719208676
318.604 79.47070025847965
329.59 80.06548282277035
341.309 79.890223190383
353.76 79.60337421584495
366.211 79.27457852553616
378.662 79.62660535252974
392.578 79.3236715539026
405.762 79.11321740442797
420.41 79.25374788524742
435.059 79.66230410748567
450.439 79.7582784375023
466.553 79.28677725504699
482.666 78.99055887826573
500.244 78.74179858510834
517.822 78.25638355461464
536.133 77.71969572529805
554.443 78.43412081687065
574.219 78.14329789184097
594.727 78.60757918764826
615.234 78.60624449115397
637.207 78.96402451631351
659.912 79.0924887626035
683.35 78.98295503337262
706.787 78.64646403718899
731.689 78.58621243371874
758.057 78.19844569118952
784.424 77.9817179560408
812.256 77.54189832618643
840.82 77.57445540461795
870.85 77.7907266866179
901.611 77.46404110569958
933.105 77.47202917251178
966.064 77.5169900764258
999.756 77.42122941481423
1034.91 77.17636545480826
1071.53 77.33489937453598
1109.62 77.41485843384865
1148.44 77.83123237583648
1189.45 77.80743868126729
1231.2 78.07357539613557
1274.41 77.8415540165438
1319.82 77.76992403899385
1365.97 77.79140104085852
1414.31 77.92222050378982
1464.11 78.07277636917198
1515.38 78.09676606237969
1568.85 77.87316248322385
1624.51 77.40796840396864
1681.64 77.19123152159517
1740.97 77.70725633351677
1802.49 77.55177550879367
1866.21 77.54024896985672
1932.13 76.8978959738484
2000.24 76.5005525261154
2070.56 76.29330324086061
2143.8 76.02604973443309
2219.24 75.95279857951333
2297.61 75.90210546882673
2378.17 75.52588920831958
2462.4 75.3707235490677
2548.83 75.34796785836384
2638.92 75.51469998321136
2731.93 75.38314763856201
2828.61 75.25114462803602
2928.22 75.09180330482548
3031.49 75.25801072185712
3138.43 75.35118395132203
3249.02 75.32833830902031
3363.28 75.47960528614959
3481.93 75.5953498058647
3604.98 75.59102451493541
3732.42 75.42276943268811
3863.53 75.06358707532648
3999.76 75.11336098503615
4141.11 74.86180173748556
4286.87 74.04656251627195
4438.48 73.80284610080822
4594.48 73.53987584254412
4757.08 73.77320326796902
4924.8 74.07601998600187
5098.39 74.39578770093401
5277.83 74.44817464505485
5463.87 74.51286506090736
5656.49 75.11809394102227
5856.45 75.6099594999933
6062.99 76.01585207796874
6276.86 76.37763750528794
6498.05 76.47426669652273
6727.29 76.33534357538812
6964.6 76.38193337483494
7209.96 76.08213151700252
7464.11 76.08782914412143
7727.78 75.85546398210148
8000.24 75.77267800505278
8282.23 75.59667750930086
8574.46 75.14888035192425
8876.22 74.90708559073778
9189.7 74.56554207948876
9513.43 74.35621756166759
9848.88 74.16335864230213
10196.8 74.13567069074062
10556.4 74.30499937855119
10928.5 74.35594874905557
11313.7 74.38879383961402
11712.9 74.47824862005528
12126.0 74.4836243654805
12553.7 74.24281355432039
12996.1 73.98093232750465
13454.6 73.4895825194503
13928.5 73.16286455244222
14419.9 72.90170773319299
14928.2 72.81221216215621
15454.8 73.18321420178331
15999.8 73.73240370048651
16564.5 74.00555761418806
17148.2 74.09641835467582
17753.2 74.02136753833935
18379.4 73.96102498608538
19027.6 73.95434405679761
19698.5 73.85855056360579
19999.5 73.92309458131487
