Freq,Floor Bounce,Ceiling Bounce,Front Wall Bounce,Side Wall Bounce,Rear Wall Bounce,Total Early Reflection
20.5078,69.56739639885544,68.60222122930035,69.31472559579508,68.93094117249414,67.88841791869073,68.89948488345749
23.4375,72.68529226446707,71.68407812997863,72.388149256135,72.06855585627075,71.24476311483882,72.04368393771209
26.3672,74.82413202266872,73.75834717236782,74.48802232348446,74.19216732876966,73.44776817413664,74.17000500105954
29.2969,76.68174889085921,75.51955394435578,76.28779391934623,76.03122077830858,75.41440525473905,76.01285975792256
32.2266,78.50071284141221,77.23869904829559,78.04905911165649,77.82685702951473,77.30713788163125,77.81023216814691
35.1563,80.07310228898494,78.72244785116125,79.57059789123521,79.3790123668392,78.94855048711405,79.36485831955162
38.0859,81.51892704731672,80.08813711059189,80.97112845142522,80.80464083681419,80.4452515530878,80.79275705840924
41.0156,82.7458590046924,81.26183879668699,82.16697150749114,82.01932374233043,81.71335794349822,82.00940986347834
43.9453,83.97872512606143,82.4254769876756,83.36639438157758,83.2253583994203,82.93385917450432,83.21605543440366
46.875,84.95327386830925,83.37676794769519,84.32140069658685,84.20310070194942,83.97462490141284,84.195842554891
49.8047,85.89340672927604,84.27892349169267,85.24307278732496,85.12632477365906,84.9061708412191,85.1208829974371
52.7344,86.6700346533602,85.04446045083793,86.00949708558541,85.9010625530601,85.70080480498882,85.89664559157303
55.6641,87.28863064269969,85.65769365327202,86.61845172716386,86.51864772175077,86.34532193722282,86.51715152460633
58.5938,87.84151335539043,86.181654412199,87.15546805867113,87.05485945202408,86.88667185923254,87.05649777588295
61.5234,88.3255996776134,86.62111205399472,87.62331845876506,87.50981013768961,87.305759186471,87.51169891236083
64.4531,88.73628138126917,87.01468762327889,88.0201627294223,87.91485176423333,87.72695296834806,87.91764226674741
67.3828,88.94019544654624,87.16194669221919,88.19388812184692,88.09786684574276,87.94133269213427,88.10405500270544
70.3125,89.22229582436411,87.42410965312709,88.4672742932795,88.37026530205621,88.22633049150906,88.37979362340754
73.2422,89.58327525119272,87.77917749131798,88.82666427510397,88.71788923221817,88.54179958034909,88.72808076035197
76.1719,89.7684597299265,87.96480585847199,89.00437131517955,88.90106207969411,88.73826122678058,88.91357033291727
79.1016,89.89397192359944,88.08391403090434,89.11610345020328,89.0221201116236,88.88730796873627,89.03888919668748
82.0313,90.0073213200536,88.12858274865609,89.20095503634398,89.10001223569891,88.96228168763251,89.12099106142588
84.9609,90.03635619346663,88.1202931944952,89.21178877623096,89.11046730420242,88.96434882691392,89.13149781688232
87.8906,90.06073976063885,88.1231366029778,89.22308899786209,89.12631601292443,89.00485321046709,89.15122381805243
90.8203,90.02583632864155,88.04101719313043,89.170648189553,89.05289746491887,88.9000353281185,89.08419442480495
93.75,90.12747060525292,88.04848061564468,89.23559274855359,89.1134383285733,88.94945305663627,89.14546369306247
96.6797,90.0418538444063,87.95866472655517,89.14983653600177,89.01260299331935,88.79921282435578,89.04385807847977
102.539,89.9110142953358,87.69353726606064,88.95984009912792,88.80726351883229,88.61018100039705,88.85438933828492
105.469,89.88214905276048,87.5493931672629,88.90078041716636,88.71941298701304,88.45283125162229,88.76600967630341
108.398,90.01755194401427,87.66602680811145,89.03868992677968,88.8427676194842,88.53939553268316,88.8876596251434
111.328,90.1397458669452,87.80610686263809,89.16838032715648,88.97179104604884,88.65932384206803,89.0150446471756
117.188,90.10555801843476,87.79421469940048,89.1342669538687,88.92467170669906,88.59962244906393,88.97701036032626
120.117,90.09285480346117,87.77651586115091,89.11357592702001,88.89412251936771,88.55037221100308,88.95168123615484
125.977,89.88272073363068,87.46316095671027,88.85514432717615,88.61231061676543,88.20100293229474,88.67651026188763
128.906,89.80521170750824,87.27515573637079,88.7382535712698,88.48315138579012,88.03152022585131,88.54759462654174
134.766,89.81818760532015,87.27453957872699,88.73936609641508,88.4872120356411,88.11127494404028,88.56626219621627
137.695,89.65659782957023,87.07195343912711,88.55780381457488,88.28370336619066,87.87712318402215,88.37319677552347
143.555,89.45328871340489,86.6373905720285,88.27665010254528,87.94826315456386,87.41149858722363,88.04779531046458
149.414,89.33935997365471,86.2417838836782,88.08141301300874,87.69487334585872,87.02753094235658,87.80347085267242
155.273,89.44908080191748,86.13760574877982,88.17358928474816,87.71985408647068,86.80957529653784,87.80994024877612
158.203,89.56495010699719,86.32665187633575,88.3150797822702,87.88040733358076,87.0250230890028,87.96605261518245
164.063,89.5215241899344,86.36323289346238,88.29241837801104,87.87050993521409,87.1247038165378,87.96800163023288
169.922,89.29516424222804,86.17411448117034,88.04750767377043,87.6295004897037,86.94458516035279,87.7476143467991
175.781,89.14296047795914,85.78409261576381,87.80975392295406,87.32800410841182,86.63020126120587,87.48871271711491
181.641,89.24414655305624,85.5928156687787,87.8633427087062,87.27255357995756,86.39083212218975,87.45605016824801
190.43,89.6947422615324,85.85369871778722,88.31348641967995,87.55468289089426,86.14605184275224,87.74724214156302
196.289,89.86850780615822,86.02619807822269,88.47055707684166,87.69574011659945,86.32402848024435,87.9113849846969
202.148,89.92743416898921,85.58614304854699,88.45440663425678,87.53775373979789,85.79731273625629,87.7715255348714
210.938,89.90809284214149,85.87770109613,88.68204902205535,87.75500475429659,85.454022916531,87.8558478585809
216.797,89.65650328760604,85.88923410274059,88.40773265662996,87.5418070060579,85.47298296838488,87.67229138252391
225.586,89.77747756571789,85.18109009778179,88.39692804581573,87.19205143755278,84.9657314950863,87.49531831520419
234.375,90.25498168025638,86.15485771137043,89.15196043868836,87.94592319449282,84.41972395104732,88.05564504023876
240.234,89.81721618154818,86.11053523355189,88.76584699826034,87.66639530551227,84.65766125405214,87.77623085009719
249.023,89.88512983652024,85.80532763847953,88.78885938656724,87.51569214152612,83.75785274934015,87.65389942592424
257.813,90.35890465109132,86.65189761509693,89.41083971366923,88.0898729151254,84.12309562041237,88.22747904763592
266.602,90.04185396781475,86.40428331283734,88.97766602974419,87.71045243907123,83.94622927925236,87.88909657800939
278.32,89.68119622990507,85.86939953262471,88.6998696902837,87.40337685567849,83.35979096910104,87.51825812225682
287.109,89.51283454245656,85.33703862759464,88.32314633692083,87.03638659428209,83.03001383270053,87.19603849608559
295.898,89.9279392755189,84.87409687992589,88.5365753400038,87.05877809758495,82.71225758374293,87.32300583061482
307.617,90.438848082593,85.39624430466343,89.21328854111529,87.68993832619665,82.21355907330515,87.84051954020349
319.336,90.44504533369532,85.18806577485852,89.32448421382321,87.80795955637647,82.23624546704859,87.87474234069543
331.055,90.85674538801798,86.74592363647271,90.12938125722039,88.64483708799216,82.70935609038243,88.62082134555908
342.773,90.23032385783024,86.1837575066193,89.44201204404915,88.0073087465426,83.71958215844866,88.08442032241902
354.492,90.20450581886075,86.3148676552368,89.517558990714,87.79541729615572,81.52614796547168,87.9450901743718
366.211,90.59948834005591,86.62940713018384,89.82349730435003,88.14861153658184,81.1235267162506,88.26182668014859
377.93,90.76659758178802,86.94818966972632,90.02027159289982,88.38909401636971,81.96099833836678,88.50050873837678
392.578,90.6679144320574,87.32577488041191,90.1015606954138,88.61489456097256,81.56120539674797,88.57371341247503
407.227,90.07807515740926,86.87237493074134,89.7136535396417,88.06964582123403,82.15700532185191,88.12443709224648
421.875,91.36400874992079,88.45594501787606,90.98504722590535,88.51961325076898,79.56091309453593,89.16551331028823
436.523,90.63632908760395,87.95318149205795,90.41866887576872,88.56609211843403,81.67423034817875,88.74948870055451
451.172,90.5739124723248,88.22229480663079,90.39128370360257,88.66799450231345,81.61437342059732,88.78584004681632
465.82,90.50180536563802,87.62947059921768,90.13288913027021,88.38885642491944,82.11104490942839,88.55587828113838
483.398,90.02346250405684,87.61018643379879,90.00304440029676,87.87538447198654,81.50864861069276,88.24458417228932
500.977,89.36706816723633,86.81778196930128,89.35043204272743,87.18467657154126,81.8391376516101,87.60685202727936
518.555,90.19758401248792,86.73153107550304,90.58048655141991,88.3239510227529,81.86500695140872,88.44372350478044
536.133,90.840496590107,87.54982461547375,91.1759755714117,88.21505349605054,81.89710136543988,88.93329792998999
553.711,90.40778690830506,88.2876317160778,90.80140562243683,88.04732002704684,81.8111431238086,88.76780508507302
574.219,90.4257712439714,87.97068299252737,90.84158915730019,87.73865522881349,81.65241765562905,88.67344518202977
594.727,90.26837393480427,87.00811874758803,90.76489120342626,87.49921655352979,81.78830996479829,88.41565084513132
615.234,90.25230479325323,87.5253941813538,91.27397095097673,87.58651387379295,80.30428635673347,88.6299800819461
638.672,89.06166236904913,87.64852910871826,90.94511501888555,87.42169412174458,81.55365565351129,88.22953676890897
659.18,88.61133895421968,88.34018381786977,91.15431833018566,87.26146024131536,80.15386487426706,88.25952173306773
682.617,88.64572264152673,87.90263118584453,91.16891203605344,87.80733511679334,80.20980804656415,88.28202624205396
706.055,87.5803088478057,86.86288464372124,90.74857303552926,87.69086432635315,79.69713315739072,87.67516459027881
732.422,86.64609220990354,86.32495667578861,90.27413044026954,86.93708537962199,79.51900425191363,87.05804488255238
758.789,86.16813361928926,86.37918811966252,90.11200048918293,86.59511154453445,79.76471023242826,86.85862725240541
785.156,85.12402117674401,85.98157177223665,90.2536281152209,86.5902281440869,79.34141709429564,86.67254752944626
811.523,82.5207937857949,84.41790690144083,88.80408908366077,85.7094639050261,79.42960633240536,85.24933892760502
840.82,80.4905102435998,82.36865858995328,87.42522937470252,85.1279096927274,78.92201058090912,83.9477695231911
870.117,78.05741777743538,78.7471550720356,86.58425878731438,84.96698188959118,79.06987648248415,82.96166617423064
902.344,79.68305600270516,74.9489455014734,86.37681627575712,85.34026681563796,78.98485079153959,82.92062689253557
931.641,83.6056491296558,81.99695328239653,89.3568232657713,86.57845395299786,78.74211916865063,85.51398816143511
966.797,84.83974140928358,84.89012433374923,91.37969972276844,87.37343133083864,78.44565616121484,87.16529092131749
999.023,84.51919483867184,85.50066262618896,91.50333589301833,87.27041706844084,78.45976632454817,87.25111707551243
1034.18,83.50093662083567,84.78129508889333,91.08336614983568,86.80509467004487,77.99173621142701,86.72118233734277
1072.27,82.92540112977827,83.31413369747109,90.70289114258894,86.45775404003014,76.71308906292464,86.18168542277454
1110.35,82.53459218284777,82.04961364552274,90.10346118839398,86.08085171358252,76.21620395566981,85.58972422565661
1148.44,83.4078084371469,80.93839964148715,89.89345506821626,85.97744459809115,76.90650389710274,85.47565794267543
1189.45,83.46477857999996,81.72440561255006,90.47195796409734,86.56854908078597,77.65613962177868,86.01557633896185
1230.47,83.51955719758048,81.39398212164538,90.66596093901323,87.08804157734792,77.79934819070387,86.23280896295302
1274.41,84.12167450476731,82.52872591886326,91.1446461861998,87.80216303080731,78.51674915331382,86.83555431545362
1318.36,84.75270286785998,82.94177321250187,91.28090065438312,88.25189531594943,79.36264504822654,87.1493678639937
1365.23,85.76094012314296,84.23947899496288,90.28451598171499,87.80955494774042,78.77432770465505,86.7928563964821
1415.04,86.14339684643157,84.97844479242939,89.72547291495026,87.40192550348691,78.158239106849,86.58983788774098
1464.84,86.14547718297759,86.23372761519083,89.53180111641787,87.81697961867239,78.32732771588292,86.81701371422868
1514.65,85.64043703441197,86.40576632233878,89.56888164129705,87.88004331622822,78.38258783466314,86.79744697527747
1570.31,85.38662278290457,86.33699007375438,89.66213763313384,87.98758249996031,77.95475125585051,86.79909143519792
1623.05,84.785490067627,86.33097658221328,89.29161160196101,87.64684011391724,77.32717904311522,86.46567749687544
1681.64,83.89136188696054,85.54707322012885,88.86121966836956,86.9492489129835,76.83924188679886,85.83577726662423
1740.23,83.07313449975832,86.70777669231325,88.76114621700519,86.4659229181268,76.18282869581971,85.8161388205066
1801.76,82.60650775667872,85.26650126785054,89.35185660546165,86.09277609302384,75.54927555222797,85.61682013859593
1866.21,81.93726712838138,83.86610234601962,89.32974003366888,84.84911740369846,74.72369226514486,85.02937303450476
1930.66,81.90066842664405,81.08126941773678,88.76943667460695,83.42210832176868,73.51080280871241,84.07822291154288
2000.98,81.76179944258108,80.56553403679577,89.34128259274044,85.23857140344738,74.63080329866652,84.73147107017074
2071.29,80.77488957210878,82.97425505008475,90.40811491362128,85.89426597534509,75.11521959209988,85.65237006257105
2144.53,81.06377998095527,81.04985148727431,89.73518295675326,86.0279263259474,75.20295574800625,85.13152972766896
2217.77,79.99150564732379,79.40868271200893,88.34679210051875,86.12516164018429,75.87339308578153,84.21240607529136
2296.88,78.36490016557029,80.56100518692605,88.81260792333666,86.64387292497507,76.84189806270415,84.63371643891446
2378.91,79.99950537540394,80.33554892706472,89.06913982173096,87.73801907347061,76.88879587007357,85.20606461448772
2460.94,80.97473770001947,78.64696872449323,88.6804452887633,87.39565193339918,76.41910827131116,84.85496729819171
2548.83,82.80902154217722,77.34993767160785,88.75514008391083,87.49474517507176,76.95736471309884,85.07137547238189
2639.65,84.37412666617679,76.29521729330561,89.41239908918806,87.52981206821838,76.64080941835452,85.5683461602899
2733.4,85.5391265216558,75.40366285680864,89.23478826990052,87.08533665629419,75.77012310082806,85.5146745548516
2827.15,85.24263446886253,77.52220661819439,89.28756675562447,86.65220661835393,75.05742634916821,85.40150408772585
2926.76,84.72935363500564,79.67959305550681,89.24718215089173,86.35817370341147,73.92112096011485,85.2836601902638
3032.23,84.67768560412865,81.38321132436421,89.08151170798811,85.90271469611673,73.40293683767437,85.18953985194788
3137.7,85.69282034380203,82.40918648532947,88.97962662746971,85.69227977315887,72.99813031879592,85.3819648599014
3249.02,86.82785196702388,83.23450082311348,88.52602300799457,85.43853142252424,73.0804057729672,85.50144747926832
3363.28,87.84803124343749,83.84847981443943,88.22988663737355,85.24835991620262,73.31803543380398,85.73660528901745
3483.4,88.03794640746041,84.54197506077064,88.21539389775076,85.15878107381867,73.20078448834525,85.872639650101
3606.45,87.90045549422852,85.67313933284925,88.34696363104578,84.85351131180128,72.77779638405347,86.00762639293195
3732.42,88.08232096533571,86.73034319925287,88.43634539694501,84.37951731981138,72.49908710141116,86.23992520621636
3864.26,87.82322922978294,87.24909250915582,88.52940287221371,84.37169039610338,72.82823087732403,86.31876209662829
3999.02,87.43441046651836,87.72527971960133,88.66931827214427,84.29159237069979,72.6034250177261,86.37315458477073
4139.65,87.52615932557927,87.54775332558981,88.85105921457512,84.21134385550141,72.09315271940555,86.39835663820361
4286.13,87.05472660240027,87.44999881617127,89.32707136425645,83.8951191230202,72.16420779718437,86.39797520559833
4438.48,87.43198103879618,87.30828406647514,89.68651414624215,83.59357969963102,71.33978014340298,86.55979816023682
4593.75,87.20481072576517,87.07492441534174,89.81484124761157,83.35245297004465,71.50935059463363,86.48186139181195
4757.81,87.64775802977148,87.13426539908626,89.65663252178027,83.3346294350836,70.9754555133788,86.5335419400332
4924.8,88.007434289941,86.84021845400174,89.6781398263213,82.93422325785654,70.85589151402883,86.53674635153563
5097.66,87.90416371456318,86.19680454943138,89.61852605753286,82.98342876328374,69.82968080757969,86.35089600039149
5279.3,87.39644214338166,85.41447289191953,89.94273590864191,82.1569853564433,69.17487261445764,86.1415424624816
5463.87,86.90280834472085,84.6111787850863,90.13780629928215,81.40311750680925,69.26798361510046,85.92857849983157
5657.23,86.46517386667927,84.07121662240239,89.38421120904633,82.01779956569716,69.49607991082738,85.4015553236952
5856.45,86.42856358508156,83.51640724421732,89.28083198610561,82.5072464031335,69.80787497009143,85.31273891833088
6061.52,86.45688038465978,82.68709586693696,89.75606837110006,83.1793993184278,69.36391632052627,85.53855422290927
6275.39,86.67352548356797,82.20605171185039,90.05909854728789,83.84275670604625,69.38774577690106,85.78805400648044
6498.05,86.8453639409368,81.82376433114577,90.33115981039779,84.11163920374693,69.85635125730344,85.98239099881751
6726.56,87.11198371815792,81.54709784588086,90.5433566987006,84.16093615578826,69.9923600075804,86.15108483110487
6963.87,87.20648437037708,81.56064156265778,90.54292552766339,84.17186394456768,69.97292679098103,86.17684002612664
7209.96,87.26628189170087,81.40340255249005,90.41266402601163,83.9976307949922,69.21125782677133,86.08546608652088
7464.84,87.19108320282702,81.26246620769027,90.41295069658797,83.74313805415953,68.43508424210557,86.02267689441871
7728.52,87.04953688438461,81.20693691687516,90.74130686665217,83.79218506261597,68.46481627233156,86.17330243873538
8000.98,87.2780675373264,81.09555405793931,91.27430792673943,84.1940920698772,68.28675657468185,86.57712612195698
8282.23,87.63790824006794,81.1848654033238,91.89719690063849,84.65748101300757,67.83323761143326,87.089282754459
8575.2,87.67424321317954,81.30796552977864,92.17107447979608,84.92816651157726,67.78379250687406,87.30155294697045
8876.95,87.9140301576803,81.13535908553287,92.17971190971541,84.81884533182271,68.0257908630641,87.33995457411102
9190.43,87.92488296515346,81.01663381003365,92.15033878694705,84.5478556269988,67.23170661545338,87.2875606128997
9512.7,88.04055101935911,81.03268449485482,92.21539006531495,84.15479832813561,66.06055832126718,87.31353209625986
9849.61,88.11630807051787,81.13335875129633,92.48633712173276,83.84476748414076,65.57404599234228,87.47656197022019
10195.3,88.01771165337644,81.02676859366272,92.8904492164956,84.0398168290377,65.45085283505732,87.72729165116824
10555.7,87.88556038991943,79.81899877760026,93.27211555779098,84.77448965548558,66.05232786982067,87.9782145824412
10927.7,87.75615396053821,78.55145831114453,93.53657753197584,85.37961033625707,66.64553367135555,88.16311966498306
11314.5,87.7332173666757,79.18035397224288,93.70761618683296,85.1289174223523,66.21761059310846,88.26651357983387
11712.9,87.59837233894682,80.22436993825546,93.59747394520376,84.66912455345744,66.2174368217343,88.15216042276838
12126.0,87.81190074974431,81.05778154439174,93.45188286061183,84.67047310601463,66.09258202848541,88.11981525140551
12553.7,88.32025870940014,82.35434477185466,93.28693162256218,85.20142984480042,65.67862334199661,88.21864825112281
12996.1,87.23115861119491,82.79112064481482,92.59777727353975,86.67692179761102,68.58587332091311,87.79595041828405
13453.1,86.61009928155,81.95425662913959,91.59760295069272,88.30462249056824,71.11852240025482,87.40262207774136
13927.7,89.89793387745411,83.5077062672479,90.91757084691021,90.12117838763446,72.11214025195584,88.42716205578249
14419.9,93.14289087941607,86.71166094963321,92.08640564135618,91.0369827378216,72.78454487858603,90.36342578300288
14929.7,92.76574397446954,85.734463094579,92.7694281054976,89.05689047355133,70.27072831583179,89.97606967716105
15454.1,91.39466301701763,83.86376121394018,92.5734521818921,86.6507595344114,67.80735603141127,88.92008739690642
