Freq "Side Wall Bounce"
20.5078 68.93094117249414
23.4375 72.06855585627075
26.3672 74.19216732876966
29.2969 76.03122077830858
32.2266 77.82685702951473
35.1563 79.3790123668392
38.0859 80.80464083681419
41.0156 82.01932374233043
43.9453 83.2253583994203
46.875 84.20310070194942
49.8047 85.12632477365906
52.7344 85.9010625530601
55.6641 86.51864772175077
58.5938 87.05485945202408
61.5234 87.50981013768961
64.4531 87.91485176423333
67.3828 88.09786684574276
70.3125 88.37026530205621
73.2422 88.71788923221817
76.1719 88.90106207969411
79.1016 89.0221201116236
82.0313 89.10001223569891
84.9609 89.11046730420242
87.8906 89.12631601292443
90.8203 89.05289746491887
93.75 89.1134383285733
96.6797 89.01260299331935
102.539 88.80726351883229
105.469 88.71941298701304
108.398 88.8427676194842
111.328 88.97179104604884
117.188 88.92467170669906
120.117 88.89412251936771
125.977 88.61231061676543
128.906 88.48315138579012
134.766 88.4872120356411
137.695 88.28370336619066
143.555 87.94826315456386
149.414 87.69487334585872
155.273 87.71985408647068
158.203 87.88040733358076
164.063 87.87050993521409
169.922 87.6295004897037
175.781 87.32800410841182
181.641 87.27255357995756
190.43 87.55468289089426
196.289 87.69574011659945
202.148 87.53775373979789
210.938 87.75500475429659
216.797 87.5418070060579
225.586 87.19205143755278
234.375 87.94592319449282
240.234 87.66639530551227
249.023 87.51569214152612
257.813 88.0898729151254
266.602 87.71045243907123
278.32 87.40337685567849
287.109 87.03638659428209
295.898 87.05877809758495
307.617 87.68993832619665
319.336 87.80795955637647
331.055 88.64483708799216
342.773 88.0073087465426
354.492 87.79541729615572
366.211 88.14861153658184
377.93 88.38909401636971
392.578 88.61489456097256
407.227 88.06964582123403
421.875 88.51961325076898
436.523 88.56609211843403
451.172 88.66799450231345
465.82 88.38885642491944
483.398 87.87538447198654
500.977 87.18467657154126
518.555 88.3239510227529
536.133 88.21505349605054
553.711 88.04732002704684
574.219 87.73865522881349
594.727 87.49921655352979
615.234 87.58651387379295
638.672 87.42169412174458
659.18 87.26146024131536
682.617 87.80733511679334
706.055 87.69086432635315
732.422 86.93708537962199
758.789 86.59511154453445
785.156 86.5902281440869
811.523 85.7094639050261
840.82 85.1279096927274
870.117 84.96698188959118
902.344 85.34026681563796
931.641 86.57845395299786
966.797 87.37343133083864
999.023 87.27041706844084
1034.18 86.80509467004487
1072.27 86.45775404003014
1110.35 86.08085171358252
1148.44 85.97744459809115
1189.45 86.56854908078597
1230.47 87.08804157734792
1274.41 87.80216303080731
1318.36 88.25189531594943
1365.23 87.80955494774042
1415.04 87.40192550348691
1464.84 87.81697961867239
1514.65 87.88004331622822
1570.31 87.98758249996031
1623.05 87.64684011391724
1681.64 86.9492489129835
1740.23 86.4659229181268
1801.76 86.09277609302384
1866.21 84.84911740369846
1930.66 83.42210832176868
2000.98 85.23857140344738
2071.29 85.89426597534509
2144.53 86.0279263259474
2217.77 86.12516164018429
2296.88 86.64387292497507
2378.91 87.73801907347061
2460.94 87.39565193339918
2548.83 87.49474517507176
2639.65 87.52981206821838
2733.4 87.08533665629419
2827.15 86.65220661835393
2926.76 86.35817370341147
3032.23 85.90271469611673
3137.7 85.69227977315887
3249.02 85.43853142252424
3363.28 85.24835991620262
3483.4 85.15878107381867
3606.45 84.85351131180128
3732.42 84.37951731981138
3864.26 84.37169039610338
3999.02 84.29159237069979
4139.65 84.21134385550141
4286.13 83.8951191230202
4438.48 83.59357969963102
4593.75 83.35245297004465
4757.81 83.3346294350836
4924.8 82.93422325785654
5097.66 82.98342876328374
5279.3 82.1569853564433
5463.87 81.40311750680925
5657.23 82.01779956569716
5856.45 82.5072464031335
6061.52 83.1793993184278
6275.39 83.84275670604625
6498.05 84.11163920374693
6726.56 84.16093615578826
6963.87 84.17186394456768
7209.96 83.9976307949922
7464.84 83.74313805415953
7728.52 83.79218506261597
8000.98 84.1940920698772
8282.23 84.65748101300757
8575.2 84.92816651157726
8876.95 84.81884533182271
9190.43 84.5478556269988
9512.7 84.15479832813561
9849.61 83.84476748414076
10195.3 84.0398168290377
10555.7 84.77448965548558
10927.7 85.37961033625707
11314.5 85.1289174223523
11712.9 84.66912455345744
12126.0 84.67047310601463
12553.7 85.20142984480042
12996.1 86.67692179761102
13453.1 88.30462249056824
13927.7 90.12117838763446
14419.9 91.0369827378216
14929.7 89.05689047355133
15454.1 86.6507595344114
15999.0 85.10661837468278
16564.5 84.55888186523711
17147.5 83.78941120184078
17753.9 82.32048634606939
18377.9 81.00062573625463
19028.3 80.22890121626021
19699.2 81.06061842574529
19998.0 81.51857992008561
