Freq "Rear Wall Bounce"
20.5078 47.384951858568385
21.9727 46.8918764110267
23.4375 49.22618070798815
24.9023 49.64967835466412
26.3672 48.27499359385028
27.832 48.387948839692214
29.2969 49.97270488376266
30.7617 52.875721365489696
32.2266 56.37233065142239
33.6914 60.116609044524225
35.1562 63.707221855256236
36.6211 66.59823421900067
38.0859 69.39880458856815
39.5508 71.27752570276532
41.0156 74.20835551588478
42.4805 75.55745127076592
43.9453 77.07234373283742
45.4102 78.29762092255196
46.875 79.3603221210516
48.3398 80.0805773011411
51.2695 80.91636443381553
52.7344 81.20832553113804
54.1992 81.3800927481066
55.6641 81.41341951813341
58.5938 81.60066584217766
60.0586 81.73245635831496
62.9883 82.06240202466772
64.4531 82.15144411879068
67.3828 82.47102393531095
68.8477 82.61634696027635
71.7773 82.8550222414862
74.707 83.2319048850781
77.6367 83.47530580955289
79.1016 83.58542549783978
82.0312 83.85548029883019
84.9609 84.1752719442593
87.8906 84.44751752066288
90.8203 84.58813834245598
95.2148 85.06934942381669
98.1445 85.30905313122085
101.074 85.52570180738343
105.469 85.8079320307855
108.398 85.99105108865544
112.793 86.32049555928442
117.188 86.39096246105527
120.117 86.50317417323339
124.512 86.77946242455329
128.906 87.05482304231528
133.301 87.23360889082663
139.16 87.42764008400961
143.555 87.55200464273565
147.949 87.56220290461216
153.809 87.54507727210967
159.668 87.80290174906052
165.527 87.91190068503077
171.387 87.82234356627426
177.246 87.62504554851607
183.105 87.57816508247973
188.965 87.5851164559592
196.289 87.39435968608721
203.613 87.15569434237703
210.938 87.04320542763145
218.262 86.98251916828539
225.586 86.8885548415677
232.91 86.50234174267206
241.699 86.11168352300184
250.488 85.86569750200566
259.277 85.83858530737818
268.066 85.30627829137856
276.855 85.24479240772607
287.109 85.37258858003952
297.363 85.03058890429787
307.617 84.71105396262398
319.336 84.23681709298054
329.59 83.82259671832894
341.309 83.68248079424298
353.027 83.30919526513189
366.211 82.94165904825202
379.395 83.11328379186595
392.578 82.9161083768275
405.762 82.68976303445953
420.41 82.09051477199417
435.059 81.81480686550162
451.172 81.33791130758637
465.82 81.25870678697115
483.398 81.19991210595065
499.512 81.03561800600711
517.09 80.43864218213123
536.133 79.23708914709508
555.176 79.70184197224981
574.219 80.54373621857525
594.727 81.43629703290011
615.234 81.43350457822805
637.207 82.50320176182655
659.18 82.58673872824637
682.617 82.1964535191642
707.52 82.29996716105796
732.422 81.52111924650085
757.324 82.09213164247586
785.156 79.46799356922052
811.523 80.25436691619404
840.82 80.93826132580433
870.117 81.26886500631116
900.879 80.29247838416305
933.105 79.2474965575113
965.332 81.61017597581848
1000.49 78.15413553166238
1035.64 79.64456032261297
1072.27 78.6439937767756
1108.89 77.0853743577053
1148.44 79.49275180442338
1189.45 75.56380705858774
1230.47 77.09890707567446
1274.41 76.15729828054597
1319.82 78.28871001558436
1366.7 77.41463214227629
1413.57 77.27834222343198
1463.38 75.50211710250781
1516.11 73.1174279536122
1568.85 72.20732910890646
1624.51 73.39067010278337
1681.64 72.73831957822405
1741.7 72.99513492051368
1803.22 72.86493287809229
1866.21 72.18713140484734
1932.13 70.91101599313413
1999.51 71.0267151640906
2069.82 71.41479155617526
2143.07 71.61141549064293
2219.24 71.07807771308887
2296.88 70.86338656079549
2378.91 71.36235272529997
2462.4 72.03623569819068
2548.83 71.84411413957595
2639.65 71.40094521323778
2731.93 70.13208860153142
2828.61 70.47805271069151
2928.22 70.42212667741315
3030.76 71.11766294961582
3137.7 70.90687719656155
3249.02 70.1991149363942
3363.28 69.34642626412185
3481.93 70.54196419273522
3604.98 72.54220806505515
3732.42 73.47738909081623
3864.26 73.61010471111958
4000.49 73.63230514464199
4141.11 73.85608400039021
4287.6 74.14954189966646
4438.48 73.3740049913613
4595.21 72.67913442855838
4756.35 71.64094883741821
4924.8 70.89067051604302
5097.66 70.67134382025314
5277.83 70.49883089000738
5463.87 71.08755292190838
5657.23 69.35602864514293
5856.45 69.78440997042013
6062.99 69.39273421425838
6276.86 68.96481745274058
6498.05 68.39121681236321
6726.56 68.81646079199606
6963.87 67.7227186594091
7209.96 68.13386447056796
7464.84 66.12549656286492
7727.05 66.4202239861523
7999.51 65.69706567946189
8282.23 65.46795130251931
8573.73 65.2602307067154
8876.95 65.27906233071826
9188.96 64.9502084969336
9514.16 64.53025926214167
9849.61 64.04996000676722
10196.8 63.96346320889073
10555.7 63.253101926664144
10927.7 62.87209756015248
11313.0 62.84615946159197
11712.9 62.016958821102364
12126.0 62.56164287391171
12553.7 62.030195012597446
12996.1 62.69801330346128
13454.6 62.40505446524271
13929.2 61.283736527292135
14419.9 60.7599062029595
14928.2 58.92237270740661
15455.6 55.79994982407099
16000.5 51.8940035000938
16564.5 50.11734543039718
17148.9 53.3944283707893
17752.4 52.723579522405444
18379.4 48.67221234876938
19026.9 47.016020134330645
19697.8 46.90351323630982
19999.5 50.29134430871299
