Freq "Floor Bounce"
22.4 38.710300775773646
23.0 39.51030077577363
23.6 40.34440020514293
24.0 41.54440020514295
25.0 42.610300775773624
25.8 43.51030077577366
26.5 44.44287121824911
27.2 45.94287121824911
28.0 47.24287121824912
29.0 48.342871218249115
30.0 50.04287121824913
30.7 52.6428712182491
31.5 54.342871218249115
32.5 55.97594936708862
33.5 58.57594936708861
34.5 60.44287121824911
35.5 61.97594936708862
36.5 64.30953919396859
37.5 66.04287121824912
38.7 67.57594936708861
40.0 69.44287121824911
41.2 70.8428712182491
42.5 72.34287121824912
43.7 73.71030077577365
45.0 74.91030077577365
46.2 76.21030077577365
47.5 77.31030077577364
48.7 78.61030077577364
50.0 79.71030077577363
51.5 81.04440020514295
53.0 82.24440020514294
54.5 83.5782339810488
56.0 84.71030077577363
58.0 85.74440020514294
60.0 86.54440020514295
61.5 87.04440020514294
63.0 87.34440020514295
65.0 87.37671686154424
67.0 87.27671686154423
69.0 87.14440020514294
71.0 87.01107995886844
73.0 86.91107995886844
75.0 86.97901893813113
77.5 87.14440020514294
80.0 87.24440020514294
82.5 87.37901893813113
85.0 87.54440020514295
87.5 87.61258512376048
90.0 87.51258512376047
92.5 87.3125851237605
95.0 87.047457374958
97.5 86.67901893813112
100.0 86.44745737495799
103.0 86.347457374958
106.0 86.247457374958
109.0 86.27901893813113
112.0 86.347457374958
115.0 86.44745737495799
118.0 86.44745737495799
122.0 86.44745737495799
125.0 86.347457374958
128.0 86.21639104654352
132.0 86.05204112158084
136.0 85.95204112158082
140.0 85.95204112158082
145.0 85.88822115024479
150.0 85.82171656147331
155.0 85.7217165614733
160.0 85.65814904041167
165.0 85.65814904041167
170.0 85.65814904041167
175.0 85.85814904041166
180.0 85.85814904041166
185.0 85.79511642211615
190.0 85.56577793382334
195.0 85.33691450946044
200.0 85.10852154755419
206.0 85.07492381839788
212.0 85.14677906993158
218.0 85.31347714008889
224.0 85.48558193390483
230.0 85.32493295859703
236.0 85.0855819339048
240.0 84.78558193390481
250.0 84.42493295859703
258.0 84.29774675397758
265.0 84.55814749498916
272.0 85.02493295859703
280.0 85.38558193390482
290.0 85.58558193390482
300.0 85.72493295859704
307.0 85.72493295859704
315.0 85.59774675397756
325.0 85.33789804272627
335.0 84.95236566441014
345.0 84.4683283551866
355.0 83.98577792265618
365.0 83.50470546837175
375.0 83.22510140707692
387.0 83.12510140707693
400.0 83.07259718002095
412.0 83.07858287247633
425.0 82.84630130496214
437.0 82.52007989090437
450.0 82.39997423734884
462.0 82.25523669316294
475.0 82.01877967180836
487.0 82.01639104654353
500.0 82.18581565381191
515.0 82.7557268249943
530.0 83.86251583020108
545.0 85.00521613588283
560.0 85.44263489498883
580.0 85.49956039702573
600.0 84.92771857813088
615.0 84.26168717866817
630.0 83.72400601464477
650.0 83.2905283246217
670.0 83.05179544236007
690.0 83.07856092604227
710.0 83.10464182076657
730.0 82.84398043365096
750.0 82.42400601464476
775.0 81.82580087395559
800.0 81.73942968946962
825.0 82.41722664009251
850.0 82.65220371851498
875.0 82.29749802459885
900.0 82.02422489548118
925.0 81.74628876341933
950.0 81.55977097542014
975.0 81.16168852357832
1000.0 81.31909762818296
1030.0 82.24014737004828
1060.0 82.99025574571144
1090.0 83.3852959860525
1120.0 83.56218449164099
1150.0 82.76641158318918
1180.0 81.07718509335501
1220.0 80.04421610913656
1250.0 80.94839763354706
1280.0 81.60644688110462
1320.0 81.1145305593126
1360.0 80.42657064719225
1400.0 80.36133647174759
1450.0 81.7106471006976
1500.0 83.419865257781
1550.0 83.89200520108471
1600.0 83.51066472722233
1650.0 83.5415970436244
1700.0 83.18516262077809
1750.0 82.97025862319266
1800.0 83.22510140707692
1850.0 83.90197389065554
1900.0 83.91853210371877
1950.0 82.97025681253525
2000.0 83.95049994078968
2060.0 85.35851002208395
2120.0 83.98272476555982
2180.0 82.53315307170979
2240.0 84.20843538535318
2300.0 84.74649344022464
2360.0 83.78659992775798
2400.0 83.41116961186214
2500.0 82.64348431326678
2580.0 81.74688185940286
2650.0 81.98448969417993
2720.0 81.2190701971162
2800.0 81.50880859792936
2900.0 81.21661742602862
3000.0 80.51141028557909
3070.0 80.572692340406
3150.0 80.71242349099276
3250.0 81.54972600325793
3350.0 82.81877967180836
3450.0 81.10987769523429
3550.0 83.06002618007805
3650.0 82.63199060073393
3750.0 83.12556217248132
3870.0 83.79474966481695
4000.0 82.86171099500352
4120.0 83.40511620493464
4250.0 80.90112982144454
4370.0 82.91872711784603
4500.0 81.40110324981423
4620.0 82.12597959354954
4750.0 83.15421063721737
4870.0 82.34059616521398
5000.0 82.80132639786171
5150.0 83.59350650297529
5300.0 82.88589544416033
5450.0 79.10981683548808
5600.0 78.86757169843031
5800.0 81.75306095818017
6000.0 83.24499485080766
6150.0 84.79776884737079
6300.0 83.60140357078735
6500.0 80.91868234133374
6700.0 81.59350650297527
6900.0 84.58869023982474
7100.0 85.93656981859574
7300.0 85.4244443437284
7500.0 83.88217627831224
7750.0 82.62598849365548
8000.0 83.7800585334746
8250.0 84.73474614124449
8500.0 85.34018251660191
8750.0 85.31766889039838
9000.0 84.20397313958803
9250.0 83.65126988202498
9500.0 84.07292404514723
9750.0 83.10360462835533
10000.0 83.72598849365548
10300.0 84.17732671749734
10600.0 84.14433685835559
10900.0 85.18841577970342
11200.0 86.34477080223714
11500.0 85.84554040016907
11800.0 84.4470168098278
12200.0 84.44121048048626
12500.0 85.83335104495464
12800.0 86.66733477091987
13200.0 84.1451638449823
13600.0 83.33042652039497
14000.0 84.85626600872828
14500.0 84.87036381681067
15000.0 81.04197586156755
15500.0 80.53673061870556
16000.0 81.27591040915814
16500.0 77.6881672831767
17000.0 74.53318121287379
17500.0 73.49018392195526
18000.0 59.86250517981756
18500.0 58.55056041345523
19000.0 58.23499467322202
19500.0 46.55693427259541
