Freq "Front Wall Bounce"
22.4 37.281078441457154
23.0 38.11001860711973
23.6 38.98453611066277
24.0 40.171886117548596
25.0 41.24453600009515
25.8 42.17509044869733
26.5 43.089600762060215
27.2 44.589600762060215
28.0 45.874751881623396
29.0 46.98710619188749
30.0 48.712281312876954
30.7 51.2525275676977
31.5 53.00880997059711
32.5 54.591110621349756
33.5 57.15973430167632
34.5 59.0301293008268
35.5 60.601644639277325
36.5 62.90163697981933
37.5 64.63110179883557
38.7 66.20295993728115
40.0 68.03110179883556
41.2 69.43110179883556
42.5 70.96005136612824
43.7 72.3307751786751
45.0 73.54510093472827
46.2 74.85937959077516
47.5 75.95937959077516
48.7 77.21573126164822
50.0 78.3301066458427
51.5 79.6437907541973
53.0 80.84379075419729
54.5 82.12946066855592
56.0 83.28716689224359
58.0 84.2871668922436
60.0 85.04379833967026
61.5 85.5871668922436
63.0 85.8590700361194
65.0 85.91606664920141
67.0 85.8454340619224
69.0 85.71704993328869
71.0 85.60359507493895
73.0 85.54607766783812
75.0 85.60359507493895
77.5 85.74607766783812
80.0 85.86035311823196
82.5 86.00359507493896
85.0 86.14607766783811
87.5 86.23175513861908
90.0 86.17394240304029
92.5 86.03175513861906
95.0 85.80359507493895
97.5 85.54607766783812
100.0 85.34607766783813
103.0 85.20359507493895
106.0 85.15971162455999
109.0 85.17394240304029
112.0 85.21704993328868
115.0 85.24607766783812
118.0 85.27394240304028
122.0 85.27394240304028
125.0 85.24607766783812
128.0 85.17525122642458
132.0 85.11834583164506
136.0 85.01834583164505
140.0 85.01834583164505
145.0 85.00489499373622
150.0 84.93271257836936
155.0 84.89009840257404
160.0 84.89009840257404
165.0 84.89009840257404
170.0 84.96264712636355
175.0 85.11834583164506
180.0 85.21834583164507
185.0 85.17525122642458
190.0 85.11930623183422
195.0 84.97686830489172
200.0 84.86264712636356
206.0 84.89170996321623
212.0 85.06264712636356
218.0 85.33628240487208
224.0 85.57848478147017
230.0 85.42124978319366
236.0 85.20684500366414
240.0 84.94933300911411
250.0 84.60684500366413
258.0 84.52124978319367
265.0 84.79170996321623
272.0 85.19170996321624
280.0 85.57848478147017
290.0 85.79170996321623
300.0 85.99170996321624
307.0 86.03271257836937
315.0 86.00489499373622
325.0 85.84770564348939
335.0 85.64933300911412
345.0 85.38074803729255
355.0 85.04079992330712
365.0 84.77172729776471
375.0 84.68693201565365
387.0 84.73729388132857
400.0 84.77749156887656
412.0 84.73729388132857
425.0 84.36722858209215
437.0 83.85297575086602
450.0 83.40715141617714
462.0 82.81311426735812
475.0 82.17694707771287
487.0 81.76272615755047
500.0 81.59284797231753
515.0 81.96061531058594
530.0 82.95887605862433
545.0 83.7288835314158
560.0 83.9893542713781
580.0 83.89783239550056
600.0 83.58211465411179
615.0 83.45145768474617
630.0 83.48028739436936
650.0 83.38028739436936
670.0 83.14643157857715
690.0 82.74643157857716
710.0 82.30151396480595
730.0 81.96782386084303
750.0 81.6896058926818
775.0 81.2733217493055
800.0 81.08489550329132
825.0 81.30406627324575
850.0 81.62503504751912
875.0 82.04308621013203
900.0 82.54227538437952
925.0 82.84510115503748
950.0 83.09359430250628
975.0 83.14227109846264
1000.0 83.05577129413966
1030.0 83.08448881373938
1060.0 82.93333796301695
1090.0 82.80115029353225
1120.0 82.36553158091091
1150.0 81.54071531889109
1180.0 80.74630276810723
1220.0 79.82624222458476
1250.0 78.82667497773431
1280.0 78.17518228544911
1320.0 77.82184845202002
1360.0 77.83196385847191
1400.0 77.7657082588321
1450.0 77.56537555255066
1500.0 77.74532734652946
1550.0 78.4332685257624
1600.0 79.56045790613175
1650.0 80.16534348322764
1700.0 80.41121227208042
1750.0 80.48100723121507
1800.0 80.63067958331169
1850.0 80.69069320668767
1900.0 81.04185487433497
1950.0 81.7722765287253
2000.0 81.90866509956221
2060.0 82.40700018659808
2120.0 82.83855216300377
2180.0 82.68680085329065
2240.0 82.93874361718876
2300.0 83.74883804945868
2360.0 84.14804871149775
2400.0 83.46766634369952
2500.0 83.1412981892973
2580.0 83.20075787407309
2650.0 83.07910382523481
2720.0 83.48236410153372
2800.0 84.03826245710736
2900.0 83.21418541018646
3000.0 83.60573070674367
3070.0 82.59650723392123
3150.0 83.13575610837292
3250.0 84.39365512577122
3350.0 84.32805544695717
3450.0 85.01476559158698
3550.0 84.48269168636328
3650.0 85.57169909381996
3750.0 84.89359430250626
3870.0 86.23572720132064
4000.0 85.21900299797427
4120.0 85.73357677675816
4250.0 84.12067048948892
4370.0 84.27328801689967
4500.0 84.75222617540786
4620.0 85.10278086436557
4750.0 86.15433251059316
4870.0 85.72974446360583
5000.0 84.71665168861996
5150.0 85.17440108853818
5300.0 84.58978476950938
5450.0 82.53465014071752
5600.0 81.69378285534692
5800.0 83.99602609450848
6000.0 85.05529059926572
6150.0 85.88165362190138
6300.0 85.82891594103067
6500.0 84.3902992192513
6700.0 84.83692801099211
6900.0 86.10884577552761
7100.0 86.20563649339068
7300.0 86.80106453898433
7500.0 86.47166719217275
7750.0 86.02898986135258
8000.0 86.34091215005986
8250.0 87.16054774858307
8500.0 87.29678924825676
8750.0 87.43491227488862
9000.0 87.44489321903464
9250.0 87.08985575104118
9500.0 86.58240174177614
9750.0 86.11796364342602
10000.0 87.0911378822712
10300.0 87.363597780615
10600.0 86.71976362932575
10900.0 87.02101805124745
11200.0 88.04951403298445
11500.0 88.62475539570683
11800.0 87.04627886042728
12200.0 86.30461917608699
12500.0 86.66354257580176
12800.0 86.76826486011791
13200.0 85.77099673940903
13600.0 85.8881793639535
14000.0 87.38442612106981
14500.0 86.0373064932862
15000.0 82.71855411807978
15500.0 82.12971688788316
16000.0 82.01076623563517
16500.0 79.07620892714637
17000.0 77.72661115118126
17500.0 75.68827570862034
18000.0 67.0862528705779
18500.0 63.89064569511149
19000.0 60.66786169730311
19500.0 54.725886767177414
