Freq "Total Early Reflection"
22.4 36.27501737360387
23.0 37.0977352371909
23.6 37.968682872685065
24.0 39.17223706088214
25.0 40.2615417835942
25.8 41.196111189762206
26.5 42.14122727535511
27.2 43.6653433867684
28.0 45.00507555982762
29.0 46.13342196650038
30.0 47.883736577098574
30.7 50.46656105441082
31.5 52.23960382688239
32.5 53.865375472145985
33.5 56.46082233788883
34.5 58.327126890188595
35.5 59.87275394976584
36.5 62.16521511966398
37.5 63.85096771563882
38.7 65.36595597510328
40.0 67.1753618786853
41.2 68.52147117716088
42.5 70.00747438418395
43.7 71.32867573629449
45.0 72.51702417719787
46.2 73.79028715011867
47.5 74.8630926295808
48.7 76.09913274949544
50.0 77.18271478675426
51.5 78.48336995548281
53.0 79.66631963223485
54.5 80.95249647903607
56.0 82.06563266429423
58.0 83.06749147828327
60.0 83.82994288131728
61.5 84.35196111279
63.0 84.62592514633614
65.0 84.69433334241256
67.0 84.60592103416988
69.0 84.46616618107039
71.0 84.35073705180466
73.0 84.27805825953565
75.0 84.33681024561362
77.5 84.48245757177213
80.0 84.5841973234642
82.5 84.70956814079075
85.0 84.85820365120482
87.5 84.93699920213791
90.0 84.87833772359845
92.5 84.74348078170472
95.0 84.51475720353662
97.5 84.2467086076744
100.0 84.03050887611363
103.0 83.91264890150161
106.0 83.847959896517
109.0 83.84407585502575
112.0 83.86868763135463
115.0 83.88281726321506
118.0 83.88236476413391
122.0 83.88191125677818
125.0 83.82149397429444
128.0 83.75749703816479
132.0 83.69751431887812
136.0 83.62363999735925
140.0 83.61876559683606
145.0 83.55933100385715
150.0 83.45904618071432
155.0 83.3793250935714
160.0 83.34624816281831
165.0 83.37580918702302
170.0 83.46192844654924
175.0 83.63571999540923
180.0 83.68569329555234
185.0 83.6002096313964
190.0 83.45757741936752
195.0 83.27806251635927
200.0 83.13554921769318
206.0 83.16733980651152
212.0 83.3080492746153
218.0 83.52066438587082
224.0 83.71371401342799
230.0 83.55592260841604
236.0 83.3256322206145
240.0 83.04671519987568
250.0 82.6757930168728
258.0 82.5618866006513
265.0 82.82008517080509
272.0 83.21303780684096
280.0 83.55803194166651
290.0 83.7489757451857
300.0 83.9395038206673
307.0 84.00840010200358
315.0 83.96124057033585
325.0 83.78929278191515
335.0 83.5846679301803
345.0 83.2497660862867
355.0 82.8382971365692
365.0 82.49422336794876
375.0 82.29826183611502
387.0 82.24646725554759
400.0 82.19886728672905
412.0 82.13387187741654
425.0 81.78674587481484
437.0 81.320468084695
450.0 80.93459234947873
462.0 80.49245259489724
475.0 79.98487393760031
487.0 79.68053952053644
500.0 79.63960632360802
515.0 79.97322738460366
530.0 80.82593627405213
545.0 81.49118259558597
560.0 81.6457654704636
580.0 81.42666066280604
600.0 80.88812035336811
615.0 80.48455233663103
630.0 80.26664975039068
650.0 80.04001694363978
670.0 79.80861089889711
690.0 79.5914518244125
710.0 79.34750848348729
730.0 79.081517896171
750.0 78.77223056888084
775.0 78.30991034367051
800.0 78.08219040957113
825.0 78.33633325290687
850.0 78.49074833872217
875.0 78.55223826640551
900.0 78.75903040060487
925.0 78.8971824234843
950.0 79.01839580180176
975.0 78.91193110415225
1000.0 78.80325163061386
1030.0 78.9792079408177
1060.0 79.13482672267804
1090.0 79.27151272158592
1120.0 79.15244953171937
1150.0 78.35821427218949
1180.0 77.28483700359487
1220.0 76.34584415762001
1250.0 75.93239451905089
1280.0 75.82637924124478
1320.0 75.40123996261023
1360.0 75.29655676198985
1400.0 75.94964941927682
1450.0 77.21405871932251
1500.0 78.042489271782
1550.0 78.33244596604186
1600.0 78.76074883497377
1650.0 79.24896689065008
1700.0 79.26826903572788
1750.0 79.20691887178981
1800.0 79.44025039524925
1850.0 79.6140117789931
1900.0 79.4566086238714
1950.0 79.2570383694313
2000.0 80.00219118179596
2060.0 80.56339600962468
2120.0 80.06229974889422
2180.0 79.32770995671278
2240.0 79.81676181914679
2300.0 80.39589172729958
2360.0 80.25873204819855
2400.0 79.880195497289
2500.0 79.46600700325322
2580.0 79.06665920322024
2650.0 79.0756511597097
2720.0 79.38241946923074
2800.0 79.8965495182595
2900.0 79.05417046193864
3000.0 79.14097836929503
3070.0 78.05315103199078
3150.0 78.68183026014063
3250.0 79.6041006945238
3350.0 79.88778604944929
3450.0 80.06038220374043
3550.0 80.13019483833483
3650.0 81.0330173437716
3750.0 80.47308818701212
3870.0 82.02830151756353
4000.0 80.81620422141309
4120.0 81.70784990070774
4250.0 79.49339948352859
4370.0 80.37104487393717
4500.0 80.38429684193768
4620.0 80.38210097863518
4750.0 81.71440506630611
4870.0 80.75638184957967
5000.0 80.34077516642282
5150.0 81.0497662712752
5300.0 80.13883974194805
5450.0 77.67612547092067
5600.0 77.34191351606657
5800.0 79.98796219595961
6000.0 81.17731625910068
6150.0 82.0528770236534
6300.0 81.54949257725758
6500.0 79.72223164436753
6700.0 80.14248548857938
6900.0 81.8054102642061
7100.0 82.21243604012159
7300.0 82.37706236308968
7500.0 81.58042832838272
7750.0 80.8847172444951
8000.0 81.40835907575132
8250.0 82.37764380867009
8500.0 82.78003929852859
8750.0 82.95060823735653
9000.0 82.48754882636541
9250.0 81.92632675079297
9500.0 81.72470932508062
9750.0 81.18295387708983
10000.0 82.20457523431989
10300.0 82.7082977159095
10600.0 82.07566778748212
10900.0 82.36131267027733
11200.0 83.49846733374054
11500.0 83.85395082905433
11800.0 82.29142555129648
12200.0 81.58900984280224
12500.0 82.2096614816286
12800.0 82.75388070808513
13200.0 81.27331359556081
13600.0 81.05151117166928
14000.0 82.65548235223733
14500.0 81.69005883078144
15000.0 78.16447741197052
15500.0 77.39482333916521
16000.0 77.52677165473546
16500.0 74.358745184578
17000.0 72.59393074022557
17500.0 70.74099692258619
18000.0 61.1614149731987
18500.0 58.38504568182924
19000.0 56.07763871075926
19500.0 48.67118112803513
