Freq "Total Early Reflection"
22.4 37.5509667406925
23.0 38.373684604279504
23.6 39.24463223977369
24.0 40.44818642797074
25.0 41.5374911506828
25.8 42.472060556850835
26.5 43.417176642443735
27.2 44.941292753857
28.0 46.281024926916245
29.0 47.40937133358898
30.0 49.1596859441872
30.7 51.74251042149942
31.5 53.51555319397099
32.5 55.141324839234585
33.5 57.73677170497746
34.5 59.603076257277195
35.5 61.148703316854466
36.5 63.4411644867526
37.5 65.12691708272743
38.7 66.64190534219189
40.0 68.45131124577392
41.2 69.79742054424948
42.5 71.28342375127257
43.7 72.6046251033831
45.0 73.79297354428647
46.2 75.0662365172073
47.5 76.13904199666942
48.7 77.37508211658405
50.0 78.45866415384288
51.5 79.75931932257143
53.0 80.94226899932346
54.5 82.22844584612467
56.0 83.34158203138284
58.0 84.34344084537187
60.0 85.10589224840588
61.5 85.6279104798786
63.0 85.90187451342476
65.0 85.97028270950119
67.0 85.88187040125851
69.0 85.742115548159
71.0 85.62668641889326
73.0 85.55400762662427
75.0 85.61275961270223
77.5 85.75840693886074
80.0 85.86014669055281
82.5 85.98551750787935
85.0 86.13415301829343
87.5 86.21294856922653
90.0 86.15428709068705
92.5 86.01943014879333
95.0 85.79070657062522
97.5 85.52265797476302
100.0 85.30645824320224
103.0 85.18859826859023
106.0 85.12390926360561
109.0 85.12002522211438
112.0 85.14463699844325
115.0 85.15876663030369
118.0 85.15831413122253
122.0 85.15786062386681
125.0 85.09744334138307
128.0 85.03344640525341
132.0 84.97346368596672
136.0 84.89958936444786
140.0 84.89471496392466
145.0 84.83528037094578
150.0 84.73499554780295
155.0 84.65527446066
160.0 84.62219752990693
165.0 84.65175855411164
170.0 84.73787781363784
175.0 84.91166936249785
180.0 84.96164266264095
185.0 84.87615899848501
190.0 84.73352678645614
195.0 84.55401188344788
200.0 84.4114985847818
206.0 84.44328917360014
212.0 84.5839986417039
218.0 84.79661375295942
224.0 84.9896633805166
230.0 84.83187197550465
236.0 84.6015815877031
240.0 84.32266456696428
250.0 83.95174238396143
258.0 83.83783596773992
265.0 84.0960345378937
272.0 84.48898717392957
280.0 84.83398130875514
290.0 85.02492511227432
300.0 85.21545318775591
307.0 85.2843494690922
315.0 85.23718993742446
325.0 85.06524214900377
335.0 84.86061729726892
345.0 84.52571545337531
355.0 84.11424650365781
365.0 83.77017273503739
375.0 83.57421120320363
387.0 83.5224166226362
400.0 83.47481665381767
412.0 83.40982124450514
425.0 83.06269524190347
437.0 82.5964174517836
450.0 82.21054171656733
462.0 81.76840196198586
475.0 81.26082330468891
487.0 80.95648888762506
500.0 80.91555569069664
515.0 81.24917675169229
530.0 82.10188564114074
545.0 82.76713196267458
560.0 82.9217148375522
580.0 82.70261002989466
600.0 82.16406972045672
615.0 81.76050170371963
630.0 81.5425991174793
650.0 81.31596631072838
670.0 81.08456026598571
690.0 80.86740119150113
710.0 80.6234578505759
730.0 80.35746726325961
750.0 80.04817993596944
775.0 79.58585971075912
800.0 79.35813977665974
825.0 79.61228261999548
850.0 79.76669770581077
875.0 79.82818763349414
900.0 80.03497976769349
925.0 80.17313179057291
950.0 80.29434516889037
975.0 80.18788047124085
1000.0 80.07920099770246
1030.0 80.25515730790632
1060.0 80.41077608976664
1090.0 80.54746208867454
1120.0 80.42839889880798
1150.0 79.63416363927811
1180.0 78.5607863706835
1220.0 77.62179352470862
1250.0 77.20834388613949
1280.0 77.1023286083334
1320.0 76.67718932969883
1360.0 76.57250612907845
1400.0 77.22559878636542
1450.0 78.49000808641114
1500.0 79.31843863887062
1550.0 79.60839533313046
1600.0 80.03669820206237
1650.0 80.5249162577387
1700.0 80.5442184028165
1750.0 80.48286823887842
1800.0 80.71619976233787
1850.0 80.88996114608172
1900.0 80.73255799096003
1950.0 80.5329877365199
2000.0 81.27814054888458
2060.0 81.83934537671328
2120.0 81.33824911598283
2180.0 80.6036593238014
2240.0 81.0927111862354
2300.0 81.67184109438821
2360.0 81.53468141528715
2400.0 81.1561448643776
2500.0 80.74195637034185
2580.0 80.34260857030884
2650.0 80.3516005267983
2720.0 80.65836883631937
2800.0 81.1724988853481
2900.0 80.33011982902727
3000.0 80.41692773638366
3070.0 79.3291003990794
3150.0 79.95777962722926
3250.0 80.88005006161241
3350.0 81.16373541653792
3450.0 81.33633157082905
3550.0 81.40614420542343
3650.0 82.30896671086022
3750.0 81.74903755410072
3870.0 83.30425088465215
4000.0 82.0921535885017
4120.0 82.98379926779637
4250.0 80.7693488506172
4370.0 81.6469942410258
4500.0 81.6602462090263
4620.0 81.65805034572378
4750.0 82.99035443339473
4870.0 82.03233121666828
5000.0 81.61672453351144
5150.0 82.32571563836382
5300.0 81.41478910903665
5450.0 78.95207483800928
5600.0 78.6178628831552
5800.0 81.26391156304823
6000.0 82.45326562618929
6150.0 83.32882639074201
6300.0 82.82544194434621
6500.0 80.99818101145617
6700.0 81.41843485566798
6900.0 83.08135963129473
7100.0 83.4883854072102
7300.0 83.65301173017829
7500.0 82.85637769547134
7750.0 82.16066661158372
8000.0 82.68430844283994
8250.0 83.65359317575869
8500.0 84.0559886656172
8750.0 84.22655760444515
9000.0 83.76349819345403
9250.0 83.20227611788158
9500.0 83.00065869216924
9750.0 82.45890324417844
10000.0 83.4805246014085
10300.0 83.9842470829981
10600.0 83.35161715457072
10900.0 83.63726203736596
11200.0 84.77441670082916
11500.0 85.12990019614293
11800.0 83.5673749183851
12200.0 82.86495920989084
12500.0 83.48561084871722
12800.0 84.02983007517375
13200.0 82.54926296264942
13600.0 82.32746053875789
14000.0 83.93143171932593
14500.0 82.96600819787005
15000.0 79.44042677905914
15500.0 78.67077270625383
16000.0 78.80272102182408
16500.0 75.63469455166661
17000.0 73.8698801073142
17500.0 72.0169462896748
18000.0 62.43736434028733
18500.0 59.66099504891784
19000.0 57.35358807784789
19500.0 49.94713049512376
