Freq "On Axis"
20.5078 55.56650606060607
21.9727 55.29580606060604
23.4375 56.208606060606044
24.9023 57.910406060606064
26.3672 60.62210606060604
27.832 63.86880606060605
29.2969 66.49670606060606
30.7617 69.18530606060605
32.2266 71.71240606060606
33.6914 73.95790606060606
35.1562 75.96610606060604
36.6211 77.59420606060606
38.0859 78.97080606060605
39.5508 79.99210606060606
41.0156 80.74760606060606
42.4805 81.25940606060605
43.9453 81.54480606060606
45.4102 81.73100606060606
46.875 81.83400606060606
48.3398 81.91980606060606
51.2695 81.94080606060605
52.7344 81.99490606060606
54.1992 82.04380606060606
55.6641 82.05280606060606
58.5938 82.18160606060606
60.0586 82.30720606060606
62.9883 82.35780606060605
64.4531 82.36260606060605
67.3828 82.54950606060608
68.8477 82.61240606060606
71.7773 82.73720606060606
74.707 82.85630606060606
77.6367 82.94580606060606
79.1016 83.01130606060606
82.0312 83.08230606060606
84.9609 83.30470606060605
87.8906 83.54580606060604
90.8203 83.04040606060606
95.2148 83.61400606060606
98.1445 83.69320606060606
101.074 83.32510606060605
105.469 83.64320606060606
108.398 83.76500606060607
112.793 83.78210606060605
117.188 83.96620606060604
120.117 84.02510606060606
124.512 83.77990606060605
128.906 83.85050606060607
133.301 83.93040606060605
139.16 83.92900606060606
143.555 83.97730606060605
147.949 83.94980606060605
153.809 83.72080606060605
159.668 83.76190606060605
165.527 83.70780606060606
171.387 83.83600606060605
177.246 83.69260606060605
183.105 83.62090606060606
188.965 83.67530606060606
196.289 83.87860606060606
203.613 83.78370606060605
210.938 83.71220606060605
218.262 83.39200606060605
225.586 83.52890606060606
232.91 83.49090606060605
241.699 83.52140606060605
250.488 84.09270606060606
259.277 83.78160606060605
268.066 83.18460606060606
276.855 83.30810606060605
287.109 83.48440606060606
297.363 84.04450606060605
307.617 83.87650606060608
319.336 83.76280606060605
329.59 83.42980606060605
341.309 83.70280606060605
353.027 83.74570606060605
366.211 84.36750606060606
379.395 83.79440606060605
392.578 83.46840606060606
405.762 83.39110606060606
420.41 83.27910606060605
435.059 82.97320606060605
451.172 83.18890606060606
465.82 82.87040606060606
483.398 82.70830606060606
499.512 82.64960606060606
517.09 82.23130606060606
536.133 82.67130606060606
555.176 82.89000606060605
574.219 83.16660606060604
594.727 83.10090606060605
615.234 83.71700606060605
637.207 84.86020606060606
659.18 84.31540606060604
682.617 84.29710606060605
707.52 84.82680606060606
732.422 84.10670606060606
757.324 84.31890606060605
785.156 83.72420606060605
811.523 83.34490606060605
840.82 83.59040606060607
870.117 83.61700606060604
900.879 84.14540606060606
933.105 84.68230606060605
965.332 84.44590606060606
1000.49 84.36620606060606
1035.64 84.24680606060606
1072.27 83.79890606060606
1108.89 84.34720606060604
1148.44 84.60400606060607
1189.45 84.64300606060606
1230.47 85.06850606060605
1274.41 84.69130606060607
1319.82 84.38970606060606
1366.7 83.36070606060606
1413.57 83.70740606060606
1463.38 84.20170606060604
1516.11 84.94430606060605
1568.85 84.44320606060606
1624.51 83.46060606060605
1681.64 83.56600606060606
1741.7 83.67650606060606
1803.22 83.90190606060605
1866.21 83.44920606060606
1932.13 82.68010606060605
1999.51 83.32060606060604
2069.82 83.54830606060607
2143.07 83.01660606060604
2219.24 82.97190606060606
2296.88 83.72900606060605
2378.91 83.68160606060606
2462.4 82.75060606060606
2548.83 83.63000606060605
2639.65 83.98890606060606
2731.93 83.14830606060606
2828.61 83.14120606060605
2928.22 83.85570606060605
3030.76 83.64970606060605
3137.7 83.32910606060604
3249.02 83.63930606060606
3363.28 83.40400606060605
3481.93 83.39370606060605
3604.98 83.34760606060605
3732.42 84.03900606060607
3864.26 83.53310606060607
4000.49 83.93930606060606
4141.11 83.19060606060607
4287.6 83.89500606060604
4438.48 83.44230606060606
4595.21 83.93240606060606
4756.35 84.38520606060605
4924.8 84.60620606060606
5097.66 85.12860606060606
5277.83 84.65610606060606
5463.87 85.04950606060608
5657.23 84.17010606060606
5856.45 83.70480606060606
6062.99 83.18690606060606
6276.86 83.11780606060604
6498.05 82.61260606060607
6726.56 82.28890606060607
6963.87 82.54290606060606
7209.96 82.47400606060604
7464.84 82.56860606060606
7727.05 82.92870606060607
7999.51 82.69870606060606
8282.23 82.50010606060606
8573.73 82.64750606060606
8876.95 82.68210606060606
9188.96 82.90700606060605
9514.16 83.03860606060606
9849.61 82.86120606060605
10196.8 82.66980606060606
10555.7 82.29340606060607
10927.7 82.17230606060606
11313.0 82.11470606060605
11712.9 82.23490606060604
12126.0 82.24170606060606
12553.7 82.16570606060606
12996.1 82.18870606060605
13454.6 82.17160606060607
13929.2 81.79080606060604
14419.9 81.32120606060606
14928.2 81.40970606060606
15455.6 81.43700606060605
16000.5 81.72240606060606
16564.5 82.01930606060606
17148.9 81.88210606060606
17752.4 81.36490606060606
18379.4 80.76070606060605
19026.9 79.24280606060606
19697.8 77.39210606060605
19999.5 76.72700606060606
