Freq,Floor Bounce,Ceiling Bounce,Front Wall Bounce,Side Wall Bounce,Rear Wall Bounce,Total Early Reflection
22.4,-7.144161410064768,-8.167875157176141,-6.277566303895597,-5.443737539598274,-5.608593010306706,-6.41486370603873
23.0,-5.110386877833676,-6.421818015985153,-4.434537266586133,-3.7437375395982855,-3.848525034020568,-4.606792716102873
23.6,-3.505946785934171,-4.882365861643038,-2.904964599956614,-2.2614906879523318,-2.361875688480197,-3.0841287758963887
24.0,-2.8992115015694964,-4.110879161342453,-2.207419860764915,-1.7014541744614888,-1.7033103878385845,-2.435188091309797
25.0,-2.953567636656757,-3.731367693006959,-2.066054194755523,-1.7593699704480201,-1.6978205719457975,-2.3734495872822805
25.8,-3.683293038613286,-3.717600032040835,-2.420225283255391,-2.492481763685632,-2.2839189676018776,-2.8731865033496575
26.5,-6.494801930469848,-5.001722911300121,-4.578316847923688,-5.3315262936225025,-4.803376767081701,-5.192530850542411
27.2,-6.582663475661988,-4.506322201123012,-4.390317198650578,-5.307488728352851,-4.72078045763736,-5.03159954351888
28.0,-5.12950037802166,-2.896988388297032,-2.7178107946630377,-3.5424526945500503,-3.1435747547538853,-3.4061321006850136
29.0,-4.226163526651291,-1.7412832693558329,-1.366847856567503,-1.9729537465990319,-1.8612582680233487,-2.126928199997522
30.0,-2.940042727531093,0.4891251260936116,1.0748973586606922,1.0851567955200068,0.3646704682712567,0.23634338828695434
30.7,2.709013604237228,5.455865400760175,5.827732225866228,5.969310751199842,5.202846088113503,5.177495556605933
31.5,7.426556670651209,9.2248624047606,9.104387279367572,9.412249586240861,8.790038668629947,8.846102837799819
32.5,13.043484115001078,13.633301495060877,12.469120829714043,12.999420340398629,12.729795529077862,12.992642368393476
33.5,19.39409164976773,17.889125126093617,16.032464262280243,18.295460029222582,17.935336910297238,18.038578685272924
34.5,23.1522011473116,19.776182519650277,17.396465866014907,21.453955908319713,20.86572844406338,20.922664717987388
35.5,25.81130229951144,21.22154681612288,18.360164156104062,23.80664751253211,23.212428920918157,23.147063266434728
36.5,27.396022985942963,24.286958564052142,23.54366087300049,26.657540994083504,26.879980475729937,26.008050927002998
37.5,28.509658247000615,26.147012424039147,28.598906646756106,28.062399815927776,29.37727244070051,28.263463991343897
38.7,31.00655110059911,28.52107669751929,35.60635613686337,29.498556021860665,32.9920029443406,32.2998169143077
40.0,37.41218159149052,33.940992635607714,37.643064856384754,35.84985948029076,37.01976878484756,36.566942708357956
41.2,44.39470928036768,38.61497813489861,43.21014900403041,43.43179095942064,42.265950205679175,42.769585296971584
42.5,51.488960089132476,41.08518899807153,44.12195565797866,45.00576436950139,42.56354881864665,46.61391815267881
43.7,54.24760692271148,42.36589876938386,43.535116909684305,44.19134467435482,41.8687557624409,48.41815355204206
45.0,54.32887473728836,44.445449597149505,44.67337801597803,45.05499480437156,42.951104361286795,48.80662397550081
46.2,52.41328494606374,48.482358394396684,48.465991842424714,48.3291516429788,47.089997751770014,49.38814065671819
47.5,51.85576147636114,52.55480986715973,51.68386018264083,50.69373379021086,50.392185782993366,51.50775879035446
48.7,55.27069973806543,57.39138292880874,52.94056693855474,53.02677047554879,53.212215123350305,54.748307529904466
50.0,57.923382323898,60.91181610742011,54.22968772546419,54.885212130535805,55.35443018735613,57.43426966354441
51.5,58.96548287408511,62.932584390797444,57.05928581994574,57.30903277252666,57.351034756938745,59.38737278855132
53.0,58.69201861859922,63.76890313673947,61.12324092741012,60.43819636709458,58.852310469182996,60.99733327710399
54.5,60.32040939835632,63.63959252273577,63.0525800516169,62.301150098323674,59.49181601655589,62.039161862461356
56.0,62.829916066145245,63.99567222424285,63.04415072016933,62.205190652223294,58.60106143075198,62.46983353237377
58.0,64.15757764138874,65.93578568547274,63.67792228635007,62.39532178869126,56.88318504626959,63.45706897621719
60.0,64.60733402827897,67.67446612663508,65.47359975969316,63.92807428941343,58.85922434848685,64.91615913386639
61.5,65.38773948759895,69.11721455095618,67.49521788202968,65.52585315316524,61.49203877368737,66.47669967445547
63.0,66.64940762001346,70.01409824412806,68.75375479150415,67.16976981491625,63.53011614627343,67.72719041870398
65.0,67.91305707345978,70.78051432989866,69.72549142545327,68.51111820283911,64.96091476015384,68.78204250991979
67.0,69.47872128675229,71.41409824412806,70.31083359207479,69.53247472474808,65.92999473180056,69.6714014162789
69.0,70.56631329855551,71.98051432989865,71.14009995367499,70.41197294864513,66.90339407785244,70.4975643272118
71.0,71.39405321406586,72.61409824412807,72.05241051255273,71.2149472195881,67.90997171771546,71.30273449262441
73.0,72.12390458479156,73.28506490310774,72.9530574586794,72.03695052196521,69.05005210238954,72.11503213577643
75.0,73.18881113560288,73.98281640648555,73.85371937436675,72.94552190390986,70.18614820368767,73.02277273797795
77.5,74.25046416039713,74.68206678134081,74.7242040194809,73.8181874426031,71.20806311847771,73.9084211386962
80.0,75.01638259211491,75.14819767349736,75.25140958936194,74.4777969804079,72.049285749325,74.53441032348827
82.5,75.78281640648557,75.84819767349737,76.02288623078086,75.2777969804079,73.12366468396675,75.32941953325684
85.0,76.64819767349736,76.54819767349737,76.79482997788188,76.11416368561436,74.17356527935554,76.15331291457142
87.5,77.44819767349738,77.18281640648556,77.49482997788188,76.87092193047043,75.12054411568005,76.90500771350959
90.0,78.21409824412805,77.74819767349736,78.19482997788188,77.63008740220641,76.04740439832817,77.63440104611387
92.5,78.88051432989865,78.34819767349737,78.85140958936195,78.28895294724711,76.94397435355236,78.3163167829225
95.0,79.44666868660353,78.84819767349738,79.39482997788188,78.90498350815015,77.75214085827204,78.9102849455545
97.5,80.04666868660354,79.28281640648557,79.85140958936195,79.443697483638,78.52540985201489,79.46139354378249
100.0,80.47974683544304,79.74819767349737,80.32288623078087,79.98204915608355,79.33669068871669,79.9929435552069
103.0,80.94666868660354,80.18051432989866,80.72288623078084,80.54094157778488,80.15414114527618,80.51991897149236
106.0,81.44666868660353,80.58051432989866,81.10855399218833,81.07974683544303,81.07974683544303,81.06776303900526
109.0,81.81409824412806,81.11333666232301,81.53717132680119,81.66039281322895,82.12466134192168,81.66258362718408
112.0,82.28051432989866,81.51333666232303,81.97974683544304,82.1404874604254,82.86405551282111,82.17789995960212
115.0,82.78051432989865,81.84666868660354,82.43717132680119,82.56132867618712,83.55697896755348,82.67239258796056
118.0,83.11333666232302,82.11487742722286,82.89482997788187,82.82094666668787,84.09542807973479,83.0557844308262
122.0,83.48051432989865,82.21795813433047,83.38204160237996,82.90039026852384,84.37269139843276,83.32877805127849
125.0,83.88281640648557,82.32257714016278,83.87152434218929,82.86647969458686,84.33128524190589,83.51665849206726
128.0,84.22018851489796,82.46957540217777,84.31898959266296,82.80306295201882,83.94754884216171,83.61737467961824
132.0,84.65583858993526,82.67872128675229,84.71898959266296,82.89399862869757,83.45554754869777,83.76633701269616
136.0,84.95583858993527,83.05057653828601,85.0888927285013,83.09998637093233,82.86712484496904,83.92818687232065
140.0,85.28665184579764,83.45057653828603,85.39973106945747,83.43903690781617,82.24708462942382,84.13091050792083
145.0,85.55125484331242,83.85057653828603,85.6115019740621,83.8248849022532,81.40399728580324,84.2981268716531
150.0,85.98203144940322,84.47872128675229,85.92353758964033,84.52734062344156,80.87970475920822,84.69573167869261
155.0,86.51333666232303,85.29891389047056,86.32321192242202,85.52632608766217,81.30797121313415,85.33466308059481
160.0,86.94666868660353,86.02018851489795,86.69743730677818,86.39964517882389,83.00658599988469,86.01799517930756
165.0,87.14666868660355,86.51638259211491,86.8974373067782,86.84596712144516,84.54016098444997,86.48251380539642
170.0,87.14666868660355,86.58051432989866,86.95239526657463,86.96130737558826,85.62354275563497,86.68565032691608
175.0,86.81333666232301,86.31333666232302,86.77974683544305,86.82002356441352,86.5074185860413,86.65146688047427
180.0,85.89201861859922,85.047442048496,86.14503399543854,85.50131755289802,86.06567401455099,85.74899611149185
185.0,84.81727460844333,83.18982483324596,85.31187182461069,83.50745624622641,84.95433015209983,84.43603320290055
190.0,83.90154422233199,81.32387735925882,84.56293027747515,81.5179489855917,83.47602187436738,83.14553258880422
195.0,83.28916931970325,80.55732634005015,84.09055140589957,80.24929198154031,82.44100513114194,82.37932683775284
200.0,83.44852717541094,80.55075295555785,84.19611788917169,79.85287324790569,81.27953718106365,82.19311075145352
206.0,84.12289509653739,81.83840407562174,84.83096165855652,80.98023103991177,79.76599647415117,82.71994759034507
212.0,85.16957540217777,83.663570177119,85.69973106945747,83.01806299152412,78.64156963130598,83.82483366815707
218.0,85.69201861859923,84.92289509653739,86.22353758964033,84.38317278603273,79.25272230451797,84.6514509278564
224.0,85.55583858993525,85.34071197781486,86.23717132680117,84.83614093182932,80.57246475084118,84.8869211689729
230.0,84.86194650876608,85.09891389047058,85.78072610287765,84.6488553541876,81.08296168649595,84.55861159492365
236.0,83.76957540217776,84.16194650876608,84.866261331304,83.75032442727583,80.88376527527872,83.67468443851003
240.0,82.88937940225924,83.12873198423854,84.08464182917926,82.48674691875198,80.60236356619086,82.77991052709457
250.0,82.48916931970324,81.73641939474354,83.57841926240651,80.6399760583378,79.79681559384545,81.85144797684787
258.0,82.84852717541094,80.53974645289296,83.64735792078487,79.51895591364244,78.4930542529004,81.44708357905388
265.0,83.22289509653739,80.38305067373233,83.92304044317903,79.80238762435224,77.26446135123021,81.5524407434781
272.0,83.54071197781487,80.91585391521654,84.10915360235933,80.67086098131888,76.2151207468387,81.85018173580652
280.0,83.59891389047058,81.61751417829844,84.22975317561377,81.53449079219502,75.39259738837073,82.12713328947729
290.0,83.56194650876607,82.23840711145138,84.31150197406211,82.17269450930448,75.38954083370925,82.37492050432895
300.0,83.56957540217776,82.74852717541096,84.36723613436345,82.6854196019223,75.98734721860619,82.62176142614672
307.0,83.66957540217777,83.2619449633436,84.55271875282007,83.17380734822325,76.96252790727787,82.9550517757166
315.0,83.47872128675229,83.45057653828603,84.540099953675,83.09483602280208,77.60575615981627,82.9671822396756
325.0,82.97481141580134,82.97872128675228,84.21898959266295,82.29652407215357,77.35898614546608,82.48085547360094
335.0,82.48916931970324,82.18937940225923,83.86821901471819,81.45120026436852,76.71183341576456,81.89319623105753
345.0,82.50501137473152,82.00154422233199,84.01490731540123,81.22604323815953,76.61165922976382,81.85871526880887
355.0,82.68008796484132,82.16863230699306,84.23096165855654,81.1645498264157,76.63623543207913,81.9968701840816
365.0,82.80501137473154,81.78240133884644,84.15943220236282,80.84699319734047,76.27777086156665,81.85296175027854
375.0,82.40501137473153,80.78957539101059,83.68262311844705,79.95313491827702,75.28839110613029,81.20657079128098
387.0,81.80501137473152,80.68472352221112,83.41490731540124,79.6816910730736,74.63974780339272,80.8648425808981
400.0,81.40850293672618,81.02889887543135,83.59338624151185,80.17820342614142,74.28121379395002,80.96748751763641
412.0,81.16135892077725,81.00577135900994,83.71490731540123,80.17820342614142,73.23541286111407,80.91455562217328
425.0,81.30850293672619,80.7282669900311,83.63980620402215,80.02944186925868,72.02649100977739,80.80077793439602
437.0,81.03270220332081,80.98305067373234,83.49338624151186,80.20707717904996,72.2350308628316,80.77289115371464
450.0,80.65243828866899,81.18305067373232,83.5322664761243,80.645117788436,72.77536088360102,80.84951473005802
462.0,80.25732634005017,81.23840407562174,83.25823161691319,80.20071803524677,72.62615830177491,80.59856958255448
475.0,80.25009877331658,81.09807227729276,83.02874701631045,80.01761569659591,72.49748564153786,80.44324781963341
487.0,80.05219510190148,80.12232957207318,82.50260446292249,79.23900481851167,71.55592972692403,79.82484454723787
500.0,80.04210426486382,79.452438288669,82.34334461605805,78.85686882522738,70.48973226540747,79.52993465416307
515.0,80.01305707345979,79.29630502721474,82.4871813644106,79.27528598111473,69.79043385147143,79.60761893704871
530.0,79.55219510190149,79.57292171051195,82.19338624151185,79.16469755064658,69.77967196369723,79.43050487065366
545.0,79.0335565790375,79.66419445907313,81.43096165855653,78.24343136112788,69.14887374439867,78.88278188371963
560.0,79.21487742722287,79.56419445907314,80.77841926240652,77.52463591139364,68.48886508894434,78.53892725756006
580.0,78.88051432989865,78.21612771583447,79.51417862750199,76.31830728284478,67.68657412036242,77.5084353724246
600.0,80.41487742722286,79.02551907023957,80.12416584995657,76.72816837435137,68.87486210085596,78.4213581650547
615.0,81.25125484331242,79.56863547082955,80.3506573832915,76.49890895126133,69.29481312171241,78.87057697065136
630.0,81.35125484331242,77.60617981286812,79.86618405070148,75.78284173251318,69.516982708807,78.29825770862301
650.0,81.58506490310774,77.0775566792616,80.03943238285795,75.42194569498191,69.41595268004313,78.31962722502742
670.0,82.35125484331243,77.33249677758664,80.64275904482572,75.98945530088031,69.72104305111984,78.93196127017092
690.0,83.02390458479155,77.59298257947437,81.16638875026062,76.5920001784478,69.81912819144222,79.4851540723114
710.0,83.59996993868558,77.838471412866,81.63796392363805,77.14513293143459,69.54639371486098,79.96967137466889
730.0,83.38895608771242,77.03572013628674,81.18318282535151,76.60707546820535,68.20309619998993,79.56614372957952
750.0,83.12634376349138,76.43934069156239,81.05714884285437,76.19051744830467,67.53278405821077,79.28689721464384
775.0,82.63497018532912,75.84322715782405,80.98722693435893,75.61690011713354,67.0251697198083,78.90816229915917
800.0,82.2522011473116,75.37194730695876,80.88722693435894,75.29242048540931,67.15748758559016,78.62255211814191
825.0,82.53073689926362,75.20519806953014,81.31846441265986,75.69682582298167,67.75100550350759,78.9298360701618
850.0,81.74313458795667,75.0278034829992,81.10807906878189,75.43969366882992,66.80226496701023,78.45170962434237
875.0,81.40899522490791,74.5895753910106,81.13897887344602,75.20282228174953,66.49775464842125,78.25661519606047
900.0,81.09613453857311,73.88765759107754,80.85958458674415,75.0911487537107,66.27515876595936,77.94641408506989
925.0,79.94467718885399,72.86734607228523,80.43897887344602,74.71143418278297,65.83487729757086,77.1957227057894
950.0,79.25926161828154,72.73270220332083,80.23897887344603,74.55343264822875,65.3956745272843,76.82567972759823
975.0,79.3435688886897,73.18472352221112,80.4209948341886,74.72772330746866,66.4899209117622,77.00925660673897
1000.0,79.2326582356274,73.80786784034252,80.70120991835869,75.17313248171078,67.18753589598158,77.21811359705337
1030.0,78.95291747441193,74.96179589215258,80.77251909531928,75.40001193983252,67.0440792259124,77.30987290463847
1060.0,78.67020743636344,75.8893693462051,80.22891702090195,75.12214556421348,67.02611228772042,77.08272855264163
1090.0,78.16382522916854,75.49807227729276,79.06638875026063,73.99404764202312,66.30021198559109,76.2529962214928
1120.0,77.85903416151736,75.29807227729277,78.490808215588,73.59314741476865,64.37674050353303,75.82533720228896
1150.0,78.43742811366258,76.5278034829992,78.7335305701885,73.92711983883807,63.512955489354326,76.36265161965595
1180.0,78.9481465244842,77.4740560915471,78.89442537103841,73.84051963585101,63.724010579405345,76.78490716533001
1220.0,79.0431493989574,77.18941853069268,78.6306089693249,73.82378380389832,63.49087360632181,76.66310252973624
1250.0,78.5191513118447,76.12615379019825,78.3306089693249,73.04763800472462,62.26561057729667,76.06457839512929
1280.0,77.88638556972133,76.18127794138114,78.1961178891717,72.48462988582209,60.59498972520906,75.74844060052152
1320.0,77.06770182318607,76.09694151862875,78.3963808332608,72.74428893890207,60.10367569059575,75.57692078732686
1360.0,77.1771045793316,75.84131800326463,78.95591883128763,72.25185784832523,59.69195431096371,75.72742867585127
1400.0,76.06509285113906,75.0583327510345,79.73605013506773,72.50379755479393,59.955062143403524,75.69031207297114
1450.0,75.13835644716336,74.49090238050083,80.12442710140145,72.66501667340054,58.320231721777006,75.63073828331501
1500.0,74.8478417714257,73.88760003069645,80.53964851940302,73.11399046267933,57.89147983210994,75.7827386585806
1550.0,74.37474742784842,73.21780235631397,80.68032469693414,72.78339896315838,58.30898066181378,75.68153500922955
1600.0,74.23435824771401,73.19449209364308,80.70912803360717,72.516377373761,57.70627788105908,75.64795517854117
1650.0,74.6677296819462,73.96369952628889,80.81991610732672,72.08038700123872,58.18278295533305,75.83845883412307
1700.0,75.40966252721849,74.04958440188615,80.78942715380055,71.94850674904659,58.927862755018154,75.94471420737278
1750.0,75.60944772383182,74.110629509024,81.12251265384585,72.54740699344897,59.81064651500323,76.24454569754563
1800.0,75.77629963727824,74.61895811867254,81.01333613329145,71.47331272093916,60.22425791508269,76.19406555864246
1850.0,76.83510590690355,74.5052010391418,81.02185088607932,70.39521441485412,59.72054361962661,76.3324015743837
1900.0,77.93055299462411,75.45234270675999,81.4549398293181,71.17751478701554,59.585276780650105,77.00717721077741
1950.0,77.43704833202234,75.70673084066598,81.58511085177868,71.13954093745308,60.98405777562111,77.0059980340789
2000.0,78.97629963727825,75.31829766686351,81.56514107277509,71.58105792021112,61.64689966845488,77.3602827952218
2060.0,78.97757572896437,74.85371856615708,81.0927481887042,71.84905433464998,62.40041144628793,77.08003655838027
2120.0,78.31492301827006,74.45179836674849,80.00068001144633,70.77089985901254,61.40757380163117,76.2128965854111
2180.0,78.76940941420919,74.79268766757876,79.74282916341862,71.3780016853277,60.57034085454357,76.32657286331111
2240.0,78.50174428719801,75.11969563868182,79.99255626560107,72.00734132230464,61.32802317441789,76.44225149452012
2300.0,78.13229101553875,74.94616291386231,79.85809401765042,70.72499528335103,60.42433654137888,76.14865993597677
2360.0,77.91444922968616,73.82715981728607,79.92066984731231,69.91924507295586,58.11243143967174,75.90300064683717
2400.0,77.38472562774818,73.35185709343641,79.43571307556127,70.71944741881958,58.1477248433262,75.48186916874764
2500.0,77.42669762834291,73.04286631786972,78.8113201504532,70.48125346789598,57.59852885818135,75.13873428447852
2580.0,77.49728043536554,73.45398067043412,79.0125381937031,72.0700198508587,57.742376903805095,75.43357199674763
2650.0,77.29432343383465,74.08320083009977,79.61966861748682,72.31426313176715,57.239345523457715,75.76158604424334
2720.0,77.85585377605226,74.96727073451255,80.35744999240178,73.1324854395674,57.37351025418711,76.47611648396254
2800.0,78.31141895674676,72.98910286134996,80.37001613348549,71.80409344485122,55.62901503690868,76.27566010762992
2900.0,78.89431546453706,73.10043508565776,80.46218470825268,72.13036164075584,56.08963692177052,76.54965451453042
3000.0,78.41532530290245,72.58894987364035,80.42006850119651,71.33884438648936,56.429236085401826,76.26923931748503
3070.0,78.60673084066599,73.64833729478222,80.50753338875641,71.05757499507251,56.9759848118414,76.4615535919924
3150.0,78.80042598133055,72.94923682565079,80.81081132352146,71.06113410325997,55.10699927197392,76.6125200877447
3250.0,79.43908954851035,73.96127806725487,81.11516884233923,71.1266787334366,57.472444941770604,77.0855020267448
