Freq,On Axis,Listening Window,Sound Power,Early Reflections,Early Reflections DI,Sound Power DI,DI offset
22.4,6.200000000000003,7.373063891508323,6.818693374490593,7.548847619691642,39.82421627181668,40.55437051701773,40
23.0,8.399999999999991,9.287510947605384,8.867218758230095,9.694563500601916,39.59294744700347,40.42029218937529,40
23.6,10.500000000000014,11.076178102492847,10.963892170421687,11.85652899002396,39.219649112468886,40.11228593207116,40
24.0,13.000000000000014,13.234664435459266,13.599337930377331,14.347649956816653,38.88701447864261,39.635326505081935,40
25.0,15.399999999999991,15.149779331887189,16.101795033362137,16.638730370473,38.51104896141419,39.04798429852505,40
25.8,17.500000000000014,16.797726053204244,18.396119199716978,18.6831684421784,38.114557611025845,38.401606853487266,40
26.5,19.500000000000014,18.448184746919978,20.60906389040555,20.60653822229328,37.8416465246267,37.83912085651443,40
27.2,22.000000000000014,21.375144580273528,22.871028523893315,22.959787970244818,38.41535661002871,38.50411605638021,40
28.0,24.39999999999999,24.752890098708136,25.40660171452926,25.715950301224737,39.0369397974834,39.34628838417888,40
29.0,26.500000000000014,28.577774397030268,28.528084234007693,29.022076460350164,39.555697936680104,40.049690163022575,40
30.0,28.799999999999997,33.02069893911492,32.620621561127265,33.19125936087262,39.8294395782423,40.40007737798766,40
30.7,31.39999999999999,36.7579637459862,36.14117013869644,36.576954406876936,40.181009339109266,40.616793607289765,40
31.5,33.7,41.03328865497237,39.948659628556285,40.14213511981255,40.891153535159816,41.08462902641608,40
32.5,35.89999999999999,46.06792408400351,44.57740953047822,44.390123582651384,41.677800501352124,41.49051455352529,40
33.5,38.500000000000014,45.16916631220609,43.56704232975646,43.96850125849342,41.20066505371267,41.602123982449626,40
34.5,40.8,45.729191485225485,44.74332822189022,45.31022291629593,40.41896856892956,40.98586326333526,40
35.5,43.000000000000014,45.39286001379138,45.49130174869289,45.970019400686866,39.42284061310451,39.90155826509849,40
36.5,45.60000000000001,45.601872647369945,46.28569064318698,46.53120378477557,39.070668862594374,39.31618200418296,40
37.5,48.000000000000014,47.69960916962471,48.45221404297196,48.53280304479158,39.16680612483313,39.24739512665275,40
38.7,50.3,49.9031854370419,50.382361329157945,50.39839742881141,39.50478800823049,39.52082410788395,40
40.0,52.89999999999999,52.805870312389075,52.645880929765966,52.78631449656423,40.019555815824845,40.15998938262311,40
41.2,55.3,55.925626953345656,55.76298001752029,55.947827889439495,39.97779906390616,40.162646935825364,40
42.5,57.89999999999999,58.647505800196186,57.696425301126865,58.12895509330629,40.5185507068899,40.95108049906932,40
43.7,60.39999999999999,61.51492247533599,59.58987264931173,60.27015830103028,41.244764174305715,41.925049826024264,40
45.0,62.8,64.16982622127696,62.10469650604357,62.789324113567886,41.38050210770908,42.0651297152334,40
46.2,65.5,66.24572456739618,64.91896822191599,65.31670144993731,40.92902311745887,41.32675634548019,40
47.5,67.89999999999999,68.17297752900953,67.51531757057002,67.58652705555188,40.586450473457646,40.65765995843951,40
48.7,70.39999999999999,70.46804783765657,71.25195934073459,70.378587295378,40.08946054227857,39.216088496921984,40
50.0,72.7,74.18571992187559,76.70225802699895,74.86637186845569,39.3193480534199,37.48346189487664,40
51.5,74.9,74.28484332798112,74.27394820351641,74.20808677096595,40.07675655701517,40.01089512446471,40
53.0,76.9,76.36580939701194,74.72534723537375,75.59417745155874,40.77163194545321,41.6404621616382,40
54.5,78.5,78.08217236467537,75.64907135160162,76.8115238012674,41.270648563407974,42.43310101307375,40
56.0,79.8,79.41200040581518,76.90909344379862,78.1001019759265,41.31189842988867,42.50290696201655,40
58.0,80.8,80.34049718392136,78.08104000432552,79.20818729382742,41.132309890093936,42.25945717959584,40
60.0,81.40000000000002,80.94688753632032,78.8241908941922,79.88783357958089,41.05905395673943,42.12269664212812,40
61.5,81.8,81.31284521071474,79.21607759293893,80.22987191101946,41.08297329969528,42.09676761777581,40
63.0,81.9,81.56158991481324,79.49139313572377,80.496381675519,41.065208239294236,42.07019677908947,40
65.0,82.0,81.72838878145022,79.69744321541991,80.72543995682818,41.00294882462204,42.03094556603031,40
67.0,82.0,81.69001682127079,79.77362491704288,80.71542026911466,40.97459655215613,41.91639190422791,40
69.0,82.0,81.64314891415272,79.89675116030276,80.72164025175067,40.92150866240205,41.74639775384996,40
71.0,82.0,81.6628765489551,80.10650211643618,80.83704697942584,40.82582956952926,41.55637443251892,40
73.0,82.0,81.65061006445946,80.43910824719025,80.9941316723337,40.65647839212576,41.21150181726921,40
75.0,82.0,81.68257993795768,80.74522237211087,81.17012542585023,40.51245451210745,40.93735756584681,40
77.5,82.0,81.72598505379608,80.96045699946792,81.27750944933814,40.44847560445794,40.76552805432816,40
80.0,81.9,81.64753759997562,81.08806119097015,81.34631903905151,40.30121856092411,40.55947640900547,40
82.5,81.8,81.53690167610866,81.13832724682385,81.31118267322013,40.225719002888525,40.39857442928481,40
85.0,81.6,81.40306388367914,81.11256555067658,81.21321845355764,40.189845430121494,40.29049833300256,40
87.5,81.40000000000002,81.18106108935986,80.88974745016257,80.98565397288138,40.19540711647848,40.291313639197284,40
90.0,81.10000000000001,80.91504658727847,80.58792144513923,80.69585162018983,40.21919496708864,40.32712514213924,40
92.5,80.8,80.6925457372896,80.49502610113727,80.55621807454894,40.13632766274067,40.197519636152336,40
95.0,80.5,80.43716731332336,80.22286410220623,80.29549510226262,40.14167221106074,40.21430321111713,40
97.5,80.2,80.08075185166759,79.72285697391389,79.91550973025333,40.16524212141425,40.357894877753694,40
100.0,79.9,79.96264059262437,79.39845967062246,79.6862292201903,40.27641137243407,40.56418092200191,40
103.0,79.7,79.75486586460447,79.02986197174151,79.39929430056272,40.35557156404175,40.72500389286296,40
106.0,79.8,79.74220886153252,78.82433231641905,79.3387442063818,40.403464655150714,40.91787654511347,40
109.0,79.9,79.97924463385935,78.78570334281085,79.42265524304354,40.556589390815816,41.193541291048504,40
112.0,80.2,80.33095943564976,78.90118391208826,79.67210806107826,40.6588513745715,41.4297755235615,40
115.0,80.39999999999999,80.48429789353646,78.90957333432497,79.76330376044305,40.72099413309341,41.57472455921149,40
118.0,80.8,80.69477157972175,79.07282694060014,79.9300070369782,40.76476454274355,41.62194463912161,40
122.0,81.10000000000001,80.9937582056943,79.38862472600779,80.22485494302953,40.76890326266478,41.605133479686515,40
125.0,81.49999999999999,81.43787051624626,79.84713459778379,80.63974737569478,40.79812314055148,41.59073591846247,40
128.0,81.7,81.56843923875051,79.9975325917441,80.74865352335415,40.819785715396364,41.57090664700641,40
132.0,81.6,81.42549953092625,79.86647397694571,80.60856019790768,40.81693933301857,41.55902555398053,40
136.0,81.2,80.96363860888128,79.27531505426569,80.07883196755783,40.88480664132345,41.68832355461559,40
140.0,80.6,80.37495836611423,78.56334723941201,79.44470481692608,40.93025354918815,41.81161112670222,40
145.0,80.09999999999998,79.93255535646828,77.86791811284719,78.87905484385253,41.053500512615756,42.06463724362109,40
150.0,79.7,79.49376272314075,77.23162280237527,78.3717412462004,41.12202147694035,42.26213992076548,40
155.0,79.4,79.19632687663369,76.78909528165035,78.00709924114899,41.1892276354847,42.407231594983344,40
160.0,79.3,79.05177767056043,76.47107614031509,77.74659925590184,41.305178414658585,42.580701530245335,40
165.0,79.2,78.91480394889135,76.24284792814159,77.58300828717029,41.33179566172106,42.67195602074976,40
170.0,79.3,78.94543626817543,76.27162362493605,77.59679144852544,41.34864481964999,42.67381264323937,40
175.0,79.4,79.11774952984489,76.58366510654288,77.8162405063242,41.30150902352068,42.534084423302005,40
180.0,79.6,79.3183620401593,76.96861078022802,78.1024900407967,41.215871999362605,42.34975125993128,40
185.0,79.8,79.56700791137187,77.32738353718624,78.3858884863384,41.18111942503347,42.23962437418564,40
190.0,80.09999999999998,79.83014343582167,77.4258837697796,78.5472332777335,41.28291015808817,42.404259666042066,40
195.0,80.39999999999999,80.07648560564151,77.44266156744412,78.71886072173558,41.35762488390593,42.63382403819739,40
200.0,80.7,80.36031248141245,77.45056231799292,78.91214834682937,41.44816413458308,42.90975016341953,40
206.0,81.10000000000001,80.69607488718795,77.46160566732547,79.14006626258359,41.55600862460436,43.234469219862476,40
212.0,81.40000000000002,81.08427222973627,77.62246392286018,79.45138240437129,41.632889825364984,43.461808306876094,40
218.0,81.7,81.41436912884019,77.65759874663294,79.65364149934314,41.760727629497055,43.75677038220725,40
224.0,82.0,81.69071069408793,77.6013714175878,79.79512876441517,41.89558192967276,44.08933927650013,40
230.0,82.3,81.9596573775646,77.7179535632576,80.00348787321737,41.95616950434723,44.241703814307,40
236.0,82.50000000000001,82.12844053754861,77.73646500775267,80.11100497314915,42.01743556439946,44.39197552979594,40
240.0,82.8,82.32188720652556,77.73976900543882,80.2430584729955,42.07882873353006,44.58211820108674,40
250.0,82.89999999999999,82.51892575904013,77.98194696969831,80.51880552417991,42.00012023486022,44.536978789341816,40
258.0,83.0,82.67420655138596,78.33117908164725,80.81080653082165,41.86340002056431,44.343027469738715,40
265.0,83.0,82.73638758335052,78.59601443946327,80.96500412428969,41.77138345906083,44.140373143887246,40
272.0,82.89999999999999,82.6465586777194,78.6405927405186,80.89898886326449,41.747569814454906,44.0059659372008,40
280.0,82.7,82.38083680580111,78.5510764230054,80.70011790420591,41.6807189015952,43.82976038279571,40
290.0,82.2,81.8785320768619,78.17269308787512,80.22263983255547,41.65589224430643,43.705838988986784,40
300.0,81.40000000000002,81.04232062527683,77.28957101223332,79.35016458957588,41.69215603570095,43.752749613043505,40
307.0,80.5,80.09682057373452,76.18654443039522,78.29281697009068,41.804003603643835,43.9102761433393,40
315.0,79.5,79.07876295608278,75.28670739067726,77.31711869749203,41.76164425859075,43.79205556540552,40
325.0,78.7,78.31674379858909,74.65988574268405,76.58233095959004,41.73441283899905,43.65685805590503,40
335.0,78.2,78.01064406220097,74.4475410007968,76.27215163668235,41.738492425518615,43.56310306140416,40
345.0,78.2,78.13614581767597,74.47393415589575,76.28959743339324,41.84654838428273,43.66221166178022,40
355.0,78.7,78.71880644519298,74.82557341708555,76.76495789175682,41.95384855343616,43.89323302810743,40
365.0,79.4,79.33639027097972,75.13533930978095,77.30126308199351,42.03512718898621,44.201050961198774,40
375.0,80.2,79.97847917894435,75.34200776668906,77.7357193018786,42.24275987706575,44.63647141225529,40
387.0,80.8,80.56190678406544,75.7018025581683,78.20296319923479,42.358943584830655,44.860104225897146,40
400.0,81.10000000000001,80.93369048566692,75.857093797994,78.47403161875637,42.459658866910544,45.07659668767292,40
412.0,81.10000000000001,80.90550378838803,75.62605815782406,78.38249968439935,42.52300410398868,45.27944563056397,40
425.0,80.7,80.5469907794158,75.18406653654138,78.06099179803498,42.48599898138082,45.36292424287441,40
437.0,79.9,79.89426495620849,74.76407439260218,77.58373086759802,42.31053408861047,45.130190563606305,40
450.0,78.99999999999999,79.03293739530565,74.26700806752986,76.94383853247021,42.08909886283544,44.765929327775794,40
462.0,78.4,78.4465250725687,73.92104701931753,76.44449751165985,42.00202756090886,44.52547805325118,40
475.0,78.60000000000001,78.6470312986821,74.24157772033179,76.72097858046311,41.92605271821898,44.405453578350304,40
487.0,79.8,80.0665025955745,75.73424575155477,78.07199902267561,41.99450357289889,44.33225684401974,40
500.0,81.2,81.66059013418571,76.9097601440955,79.28496960328356,42.375620530902154,44.75082999009021,40
515.0,82.3,82.59658973614269,77.11095991628984,79.69062463180565,42.90596510433704,45.485629819852846,40
530.0,83.0,83.15917561265624,76.98474371564772,79.88104678588803,43.27812882676821,46.17443189700852,40
545.0,83.1,83.37373216135799,76.92128170059162,80.08782243193727,43.28590972942072,46.45245046076637,40
560.0,83.0,83.32124316315108,76.81162054639351,80.07769118103302,43.24355198211806,46.50962261675757,40
580.0,82.50000000000001,82.80346772640468,76.19745190052275,79.54450253145312,43.25896519495156,46.606015825881926,40
600.0,82.0,81.94232808700824,75.13012422061723,78.63981466308759,43.302513423920644,46.812203866391,40
615.0,81.6,81.14640637388872,74.21032186746945,77.91005485504758,43.23635151884115,46.93608450641928,40
630.0,81.40000000000002,80.69427743777554,73.75959312222281,77.5701502212647,43.12412721651084,46.93468431555273,40
650.0,81.40000000000002,80.62099438014161,73.64845814836012,77.4981168017546,43.122877578387005,46.97253623178149,40
670.0,81.6,80.74748147342638,73.71924430648797,77.51850019439803,43.228981279028346,47.02823716693841,40
690.0,81.8,80.75463974956196,73.59972602688342,77.37335519584995,43.38128455371201,47.15491372267854,40
710.0,81.9,80.68703095027718,73.24952056365578,77.0565533726908,43.630477577586376,47.4375103866214,40
730.0,82.0,80.65108045805817,73.01528085141892,76.94062214781952,43.71045831023865,47.63579960663925,40
750.0,82.1,80.63877515833104,72.95551592431042,76.96995789989752,43.66881725843352,47.683259234020625,40
775.0,82.4,80.76964970952427,72.99185768384137,77.07132235320113,43.69832735632315,47.7777920256829,40
800.0,82.8,81.00558338705967,73.01939254223552,77.17357508790658,43.83200829915309,47.98619084482415,40
825.0,83.1,81.30223428656048,73.1692245561455,77.40730444340467,43.89492984315581,48.13300973041498,40
850.0,83.4,81.55718009863376,73.3089523178455,77.60160588186834,43.95557421676543,48.24822778078827,40
875.0,83.4,81.52213001949401,73.40921459120524,77.63652522928034,43.88560479021368,48.11291542828877,40
900.0,83.2,81.25372331807503,73.2662143981909,77.37520423046169,43.87851908761334,47.987508919884135,40
925.0,82.7,80.81340552096921,73.16629936480214,77.18664388213162,43.62676163883759,47.64710615616707,40
950.0,82.2,80.44733859378499,72.99928510968694,76.94532784262303,43.50201075116196,47.448053484098054,40
975.0,81.9,80.12121474848041,72.79649386955651,76.66132577479705,43.45988897368336,47.3247208789239,40
1000.0,81.7,80.10101217066678,73.12255956003423,77.06157231010035,43.03943986056643,46.978452610632544,40
1030.0,81.49999999999999,79.68793800875719,71.75372587063568,75.9454717154541,43.74246629330308,47.93421213812151,40
1060.0,81.0,79.23013145270806,70.47703737400413,74.61675232837446,44.613379124333605,48.75309407870394,40
1090.0,80.7,79.04760967900924,70.68766844436858,74.40594706830585,44.64166261070339,48.35994123464066,40
1120.0,80.6,78.8172020889263,70.65400176964324,74.31809373868187,44.49910835024443,48.16320031928305,40
1150.0,80.6,78.94155171537282,70.80052568058834,74.35929711555849,44.582254599814334,48.14102603478449,40
1180.0,80.6,79.1307769082187,70.77914990334601,74.34848655800982,44.78229035020888,48.3516270048727,40
1220.0,80.7,79.28279335035946,70.62069682713943,74.25131300673995,45.031480343619506,48.66209652322003,40
1250.0,80.6,79.11164888564917,70.47370285117768,74.10936563799383,45.00228324765534,48.6379460344715,40
1280.0,80.3,78.81170451580444,70.32313743643614,73.9746708220912,44.83703369371324,48.488567079368295,40
1320.0,79.9,78.44034029815727,70.14433443666131,73.79017881610272,44.65016148205454,48.296005861495956,40
1360.0,79.5,78.24405520605451,70.2581121755745,73.86844077192747,44.375614434127044,47.985943030480016,40
1400.0,79.6,78.21582890600818,69.40264150370324,73.25279044410125,44.96303846190693,48.81318740230495,40
1450.0,80.00000000000001,78.482488677375,69.1858598089584,73.21103617971657,45.27145249765843,49.296628868416605,40
1500.0,80.39999999999999,78.73989022119662,69.34943212997972,73.45152238957247,45.28836783162414,49.3904580912169,40
1550.0,80.39999999999999,78.79906061072268,69.4902018657569,73.59213118382927,45.20692942689341,49.308858744965775,40
1600.0,80.09999999999998,78.59918233721262,69.27099438103971,73.40382989730854,45.195352439904084,49.32818795617291,40
1650.0,79.6,78.23252051919144,69.34451790723229,73.21027723466904,45.0222432845224,48.88800261195915,40
1700.0,78.99999999999999,77.73577839158189,69.38088762860055,73.09118584260605,44.64459254897584,48.35489076298134,40
1750.0,78.7,77.50449925642904,69.41050897088093,73.04667432678634,44.4578249296427,48.09399028554812,40
1800.0,79.4,78.22214056384028,69.65450706404232,73.38895916506787,44.83318139877241,48.567633499797964,40
1850.0,80.3,79.06705486691645,70.47869563485257,74.12048116102586,44.946573705890586,48.58835923206388,40
1900.0,80.3,79.22845128144142,71.21375453772237,74.57861102439851,44.64984025704291,48.01469674371906,40
1950.0,79.6,78.62672626250502,70.57027810107049,74.03991792896076,44.586808333544255,48.05644816143453,40
2000.0,79.4,77.9887795013706,69.45574454250043,73.23349340359492,44.75528609777568,48.533034958870175,40
2060.0,79.3,77.96981180869258,68.932492393206,72.99144322427289,44.9783685844197,49.03731941548658,40
2120.0,78.7,77.3547200370535,67.82420395184802,72.0750896191578,45.2796304178957,49.53051608520548,40
2180.0,79.2,77.70932572691498,67.79118986322057,72.14408530238144,45.56524042453354,49.91813586369442,40
2240.0,80.2,78.47405658407058,68.55843843492087,73.01754068601018,45.4565158980604,49.91561814914971,40
2300.0,80.39999999999999,78.48609813098606,68.69536746437004,73.16133097982029,45.32476715116577,49.79073066661603,40
2360.0,80.6,78.92420197722171,68.96063556128134,73.51025353274142,45.4139484444803,49.96356641594038,40
2400.0,81.3,79.60509926164501,69.55787874066901,74.1186873456947,45.48641191595031,50.047220520976,40
2500.0,82.2,80.60087573532913,70.78591437405596,75.23085799233202,45.370017742997106,49.81496136127316,40
2580.0,82.4,80.86488623605264,71.19909638073857,75.63538826242974,45.2294979736229,49.665789855314074,40
2650.0,82.7,81.2569033266186,71.60189942311368,76.01030489755347,45.24659842906513,49.65500390350492,40
2720.0,83.60000000000001,81.86646056543165,71.87967408721161,76.51204578576731,45.35441477966434,49.98678647822004,40
2800.0,84.2,82.1049540163798,71.95443017528846,76.91770425418376,45.187249762196046,50.15052384109134,40
2900.0,83.3,80.96757334076113,70.85807065506052,75.97243610156279,44.99513723919834,50.10950268570062,40
3000.0,81.2,80.07577049009431,70.4455016029021,75.04067483053848,45.035095659555836,49.630268887192216,40
3070.0,80.9,80.3914973804031,70.61187488345882,75.0438799770581,45.347617403345,49.77962249694427,40
3150.0,81.6,80.56747670656036,70.81694772106475,75.20249791650126,45.3649787900591,49.750528985495606,40
3250.0,82.8,80.92905884678783,70.95422469371525,75.5683269175269,45.36073192926092,49.97483415307258,40
3350.0,84.4,82.08369174624805,72.11548904599461,76.83145938624325,45.2522323600048,49.96820270025344,40
3450.0,85.09999999999998,82.6877306098662,72.58989241395464,77.31989732064511,45.36783328922108,50.09783819591155,40
3550.0,84.9,82.67602919631251,72.36377513081764,77.18909594690992,45.4869332494026,50.31225406549487,40
3650.0,84.2,82.13393229480339,71.79822568446352,76.77305342066424,45.360878874139146,50.33570661033987,40
3750.0,83.0,81.37636845306974,71.13813628132311,76.0515118206524,45.32485663241735,50.23823217174663,40
3870.0,82.8,81.28543736955218,71.19938734060878,75.79805475020662,45.48738261934557,50.086050028943404,40
4000.0,82.8,81.69724397893634,72.34259269997908,76.36241302114207,45.33483095779427,49.35465127895726,40
4120.0,85.00000000000001,83.16134327515945,73.6526718383057,77.97706981573248,45.184273459426976,49.50867143685376,40
4250.0,85.5,83.92263806359227,74.53237782387997,78.7370317051553,45.18560635843697,49.390260239712305,40
4370.0,84.6,83.05057531985362,73.45554753528823,77.64329346762042,45.4072818522332,49.59502778456539,40
