Freq "On Axis"
22.4 6.387341772151885
23.0 8.587341772151873
23.6 10.687341772151896
24.0 13.187341772151896
25.0 15.587341772151873
25.8 17.687341772151896
26.5 19.687341772151896
27.2 22.187341772151896
28.0 24.587341772151873
29.0 26.687341772151896
30.0 28.98734177215188
30.7 31.587341772151873
31.5 33.887341772151885
32.5 36.08734177215187
33.5 38.687341772151896
34.5 40.98734177215188
35.5 43.187341772151896
36.5 45.78734177215189
37.5 48.187341772151896
38.7 50.48734177215188
40.0 53.08734177215187
41.2 55.48734177215188
42.5 58.08734177215187
43.7 60.58734177215187
45.0 62.98734177215188
46.2 65.68734177215188
47.5 68.08734177215187
48.7 70.58734177215187
50.0 72.88734177215188
51.5 75.08734177215189
53.0 77.08734177215189
54.5 78.68734177215188
56.0 79.98734177215188
58.0 80.98734177215188
60.0 81.5873417721519
61.5 81.98734177215188
63.0 82.08734177215189
65.0 82.18734177215188
67.0 82.18734177215188
69.0 82.18734177215188
71.0 82.18734177215188
73.0 82.18734177215188
75.0 82.18734177215188
77.5 82.18734177215188
80.0 82.08734177215189
82.5 81.98734177215188
85.0 81.78734177215188
87.5 81.5873417721519
90.0 81.28734177215189
92.5 80.98734177215188
95.0 80.68734177215188
97.5 80.38734177215188
100.0 80.08734177215189
103.0 79.88734177215188
106.0 79.98734177215188
109.0 80.08734177215189
112.0 80.38734177215188
115.0 80.58734177215187
118.0 80.98734177215188
122.0 81.28734177215189
125.0 81.68734177215187
128.0 81.88734177215188
132.0 81.78734177215188
136.0 81.38734177215188
140.0 80.78734177215188
145.0 80.28734177215186
150.0 79.88734177215188
155.0 79.58734177215189
160.0 79.48734177215188
165.0 79.38734177215188
170.0 79.48734177215188
175.0 79.58734177215189
180.0 79.78734177215188
185.0 79.98734177215188
190.0 80.28734177215186
195.0 80.58734177215187
200.0 80.88734177215188
206.0 81.28734177215189
212.0 81.5873417721519
218.0 81.88734177215188
224.0 82.18734177215188
230.0 82.48734177215188
236.0 82.6873417721519
240.0 82.98734177215188
250.0 83.08734177215187
258.0 83.18734177215188
265.0 83.18734177215188
272.0 83.08734177215187
280.0 82.88734177215188
290.0 82.38734177215188
300.0 81.5873417721519
307.0 80.68734177215188
315.0 79.68734177215188
325.0 78.88734177215188
335.0 78.38734177215188
345.0 78.38734177215188
355.0 78.88734177215188
365.0 79.58734177215189
375.0 80.38734177215188
387.0 80.98734177215188
400.0 81.28734177215189
412.0 81.28734177215189
425.0 80.88734177215188
437.0 80.08734177215189
450.0 79.18734177215187
462.0 78.58734177215189
475.0 78.78734177215189
487.0 79.98734177215188
500.0 81.38734177215188
515.0 82.48734177215188
530.0 83.18734177215188
545.0 83.28734177215188
560.0 83.18734177215188
580.0 82.6873417721519
600.0 82.18734177215188
615.0 81.78734177215188
630.0 81.5873417721519
650.0 81.5873417721519
670.0 81.78734177215188
690.0 81.98734177215188
710.0 82.08734177215189
730.0 82.18734177215188
750.0 82.28734177215188
775.0 82.58734177215189
800.0 82.98734177215188
825.0 83.28734177215188
850.0 83.58734177215189
875.0 83.58734177215189
900.0 83.38734177215188
925.0 82.88734177215188
950.0 82.38734177215188
975.0 82.08734177215189
1000.0 81.88734177215188
1030.0 81.68734177215187
1060.0 81.18734177215188
1090.0 80.88734177215188
1120.0 80.78734177215188
1150.0 80.78734177215188
1180.0 80.78734177215188
1220.0 80.88734177215188
1250.0 80.78734177215188
1280.0 80.48734177215188
1320.0 80.08734177215189
1360.0 79.68734177215188
1400.0 79.78734177215188
1450.0 80.1873417721519
1500.0 80.58734177215187
1550.0 80.58734177215187
1600.0 80.28734177215186
1650.0 79.78734177215188
1700.0 79.18734177215187
1750.0 78.88734177215188
1800.0 79.58734177215189
1850.0 80.48734177215188
1900.0 80.48734177215188
1950.0 79.78734177215188
2000.0 79.58734177215189
2060.0 79.48734177215188
2120.0 78.88734177215188
2180.0 79.38734177215188
2240.0 80.38734177215188
2300.0 80.58734177215187
2360.0 80.78734177215188
2400.0 81.48734177215188
2500.0 82.38734177215188
2580.0 82.58734177215189
2650.0 82.88734177215188
2720.0 83.78734177215189
2800.0 84.38734177215188
2900.0 83.48734177215188
3000.0 81.38734177215188
3070.0 81.08734177215189
3150.0 81.78734177215188
3250.0 82.98734177215188
3350.0 84.58734177215189
3450.0 85.28734177215186
3550.0 85.08734177215189
3650.0 84.38734177215188
3750.0 83.18734177215188
3870.0 82.98734177215188
4000.0 82.98734177215188
4120.0 85.1873417721519
4250.0 85.68734177215188
4370.0 84.78734177215188
4500.0 85.28734177215186
4620.0 84.78734177215188
4750.0 83.68734177215188
4870.0 81.5873417721519
5000.0 83.58734177215189
5150.0 82.58734177215189
5300.0 83.28734177215188
5450.0 84.88734177215188
5600.0 85.48734177215188
5800.0 86.18734177215188
6000.0 85.48734177215188
6150.0 78.58734177215189
6300.0 82.38734177215188
6500.0 83.38734177215188
6700.0 82.88734177215188
6900.0 79.0873417721519
7100.0 76.88734177215188
7300.0 81.18734177215188
7500.0 83.08734177215187
7750.0 78.78734177215189
8000.0 77.58734177215189
8250.0 82.88734177215188
8500.0 83.08734177215187
8750.0 79.68734177215188
9000.0 82.88734177215188
9250.0 85.88734177215188
9500.0 84.88734177215188
9750.0 86.18734177215188
10000.0 85.38734177215188
10300.0 87.18734177215188
10600.0 86.18734177215188
10900.0 85.08734177215189
11200.0 84.28734177215188
11500.0 83.08734177215187
11800.0 79.58734177215189
12200.0 80.78734177215188
12500.0 80.78734177215188
12800.0 82.08734177215189
13200.0 80.1873417721519
13600.0 80.78734177215188
14000.0 82.18734177215188
14500.0 79.18734177215187
15000.0 79.28734177215188
15500.0 74.48734177215188
16000.0 71.68734177215187
16500.0 68.18734177215188
17000.0 63.48734177215188
17500.0 65.48734177215188
18000.0 65.08734177215189
18500.0 61.98734177215188
19000.0 60.48734177215188
19500.0 54.78734177215189
