Freq,Floor Bounce,Ceiling Bounce,Front Wall Bounce,Side Wall Bounce,Rear Wall Bounce,Total Early Reflection
22.4,-16.17687510087933,-13.154391333193132,-13.999804325335504,-10.233267649366951,-3.261255618013564,-8.67103869649992
23.0,-15.375933655664397,-14.301058960475018,-14.178730393482596,-8.442890892329075,-5.111505393575641,-9.541404985838824
23.6,-14.433315919533356,-14.681010306892546,-14.283238391831304,-7.3331421139669715,-5.795071541281459,-9.543023503200345
24.0,-13.179427206627793,-14.619596810926254,-14.21275321095257,-6.409257342664233,-5.886653715204972,-9.158206781260361
25.0,-12.312030361861844,-13.873963783711957,-13.485229864128542,-5.8995290815999795,-5.170191939667859,-8.503698809114553
25.8,-11.496753879472948,-12.775001211303078,-12.18451159577134,-5.5198616393584246,-3.9786273368762863,-7.620915194465397
26.5,-10.318926726171213,-10.976671466322017,-9.82202423130343,-5.225986684768117,-2.0301840676286247,-6.184357738060811
27.2,-8.849164539717094,-8.032929941401505,-4.58202998062967,-6.176182782278602,0.8572300802547659,-3.7773969984367
28.0,-7.630765559868848,-5.271681625324817,-0.6996984680358764,-3.9323907242863925,2.514379853439408,-1.5374548528269827
29.0,-6.163193502695691,-2.1655125353582036,2.163509691311077,-1.210941966724448,4.499414562579034,0.841944638495562
30.0,-4.54152977810304,1.7385639103046913,4.8603636862914925,1.3908616843807806,7.082802634245411,3.5762179864060784
30.7,-2.0757041022768874,5.061635750873762,6.873593115845608,3.5679317413026013,10.210754251577868,6.327991407795565
31.5,1.0179874094901322,8.713399020198182,8.787021231398825,5.952342388213481,14.063791950959313,9.60865148290597
32.5,4.702612475668559,13.355383923825912,10.616871872640985,8.85271345833982,18.83411564296469,13.811787658799602
33.5,9.346475812031827,13.58438934834615,13.532136081557269,13.775362329634476,18.216725469731387,14.598742382555997
34.5,13.626928242342132,14.877874753234721,17.163378551859182,18.705618340927742,19.421741113669697,17.285122086550217
35.5,17.483193814757442,17.06461116101002,20.18637807215987,21.626666290728622,21.041943542058902,19.857140903879866
36.5,21.26892624877985,21.063563092852377,21.17628233516635,19.01276848408577,22.41107050089576,21.117202571792006
37.5,26.1231171837193,27.155453189020392,23.032212033761027,17.218954244936157,27.469022745353357,25.418469421715315
38.7,28.071902589709595,33.40137114876751,24.194422430829974,16.400244767993996,33.81616618313055,30.448583271401247
40.0,25.36398604912617,32.02658606760383,24.269500132400992,16.351676789975926,33.4992938168416,29.530145346902742
41.2,21.886983001032604,30.297122244022205,24.28059930432451,15.91403942247615,33.35091661702626,28.68689919921681
42.5,25.41667301234267,28.677084873226107,30.57148488180482,20.94846839845067,32.81277335355708,29.306027007137914
43.7,30.38844102520943,27.871176082871585,37.445724736885694,27.41135449992632,33.98149704790674,33.14366150984455
45.0,31.00322505318121,29.720123504636916,32.93813066033394,25.219176452558685,35.51362198299847,32.071691605470875
46.2,31.272914303805862,32.72079669135505,28.989416042119473,25.053187172059864,40.220365038489916,34.725991806488736
47.5,34.6474286260372,30.8256204669035,32.64187375514217,25.60822825683863,37.3755263748929,33.725697097934415
48.7,38.64647581203184,31.345741578897673,36.47259925289978,26.51812698702284,36.06767772573903,35.469480729568886
50.0,35.97244993229336,32.87333854596832,35.57777524077386,31.207597773288654,35.838357785617546,34.67230401891814
51.5,36.645831471573985,34.60870389637975,34.916845751225054,33.74809887817611,36.88800454670047,35.53060045420841
53.0,36.11172846437378,36.04680047887706,35.90691231221837,35.18832346202311,35.89841264281736,35.84266128837194
54.5,37.411728464373795,37.845767194384706,37.90687569495873,37.04241433672044,36.7626634647022,37.41652740090885
56.0,40.00531806766472,39.636635756671865,40.23754321429635,39.05906036174471,38.526548801167195,39.53728089920142
58.0,42.641361504235874,41.794857058831695,42.56276835451024,41.5700196904713,40.868414360261625,41.93675532098098
60.0,45.19046221610057,43.96878033996791,44.84047202365622,44.14540399418152,43.26798052304443,44.33476503514524
61.5,47.3093466189639,46.016279400836396,46.37926633894216,45.7521408659689,44.980447300822476,46.15541406619403
63.0,49.202319945897756,47.83513059177983,48.20914589305826,47.525662519721465,46.821570521709305,47.99124772267959
65.0,50.96692185116051,49.3030695710425,50.18942357824278,49.463887935565936,48.907889891798646,49.82924357415345
67.0,53.04898514879551,51.036635756671856,51.971662753918906,51.288066396375314,50.652696832078675,51.684681334762345
69.0,54.82402487026023,52.80076749445561,53.54313939533782,52.97190637214737,52.333232776017425,53.38347189554034
71.0,56.010077997802924,54.603069571042525,55.08684446163055,54.49117509502737,54.03966711008516,54.89962319113627
73.0,57.13435140868502,56.26845083805432,56.599999999999994,56.143905448643224,55.64220630607893,56.386205270602034
75.0,58.76845083805432,57.66692185116051,58.05742449135815,57.76119474234183,57.353770426749875,57.94869879761255
77.5,60.133589826879984,59.0,59.400000000000006,59.221570717454966,58.969151803612945,59.36628468862973
80.0,61.30076749445561,60.400000000000006,60.64313939533781,60.54027672897047,60.48520312971223,60.686287976143674
82.5,62.23358982687998,61.700767494455604,61.77166275391889,61.720643433080795,61.88570067034581,61.86698796196626
85.0,63.400000000000006,62.66692185116051,62.92880715674529,62.920185055415885,63.2222487215559,63.03519872960399
87.5,64.23435140868501,63.633589826879984,63.87166275391891,63.88018335884988,64.33936792890977,63.999550340202006
90.0,64.8022846139602,64.43358982687998,64.67166275391891,64.64027672897048,65.1666633411607,64.74975270409556
92.5,65.23435140868503,65.1,65.4,65.34027672897048,65.63449257515346,65.34550390740488
95.0,65.73435140868501,65.70076749445562,66.05742449135815,65.96027588070906,66.00182605987702,65.89335026218123
97.5,66.33435140868502,66.30076749445561,66.71475531529211,66.60046051294917,66.42749808785834,66.47847153669437
100.0,67.0669218511605,66.96769521305295,67.24313939533782,67.12201851881731,66.86379188131676,67.05465147227402
103.0,67.56692185116049,67.60076749445561,67.9288071567453,67.80137091259009,67.42853882939893,67.66892639671264
106.0,68.03358982687998,68.10076749445561,68.45742449135815,68.34165599637157,68.02749808785835,68.19573945353302
109.0,68.40076749445562,68.50076749445563,68.85742449135815,68.76119474234183,68.3604041361612,68.58065390968943
112.0,68.7669218511605,68.90076749445561,69.20000000000002,69.08110854744814,68.54203939838061,68.90432672565572
115.0,69.20000000000002,69.2007674944556,69.52880715674529,69.38064597778592,68.78179456003112,69.22554407705442
118.0,69.6,69.50076749445562,69.85742449135816,69.7009209770721,69.14155367344983,69.56669732547257
122.0,70.03358982687996,69.90076749445564,70.28585448910238,70.06119474234184,69.55975729278825,69.97473627999786
125.0,70.5,70.30076749445561,70.65742449135814,70.42157071745497,69.92952448605612,70.36868661448807
128.0,71.00076749445563,70.56845083805432,70.9,70.68156054014523,70.23231521701206,70.68492257501646
132.0,71.4,70.80076749445563,71.17166275391891,70.9023023206405,70.52185067647508,70.9698946299369
136.0,71.66692185116051,71.10076749445562,71.4,71.2023023206405,70.89515785780999,71.26105461730279
140.0,71.9669218511605,71.40076749445561,71.72880715674528,71.48156054014522,71.17925687274038,71.5600222559944
145.0,72.1,71.50076749445562,71.94313939533782,71.64210173162692,71.31111897043202,71.70896066188195
150.0,72.13358982687997,71.66845083805433,72.0716627539189,71.76255705027367,71.37415048157739,71.81090221236853
155.0,72.36692185116051,71.86845083805433,72.2716627539189,71.9023023206405,71.53218657715233,71.99870481702591
160.0,72.56692185116049,72.10076749445562,72.54313939533782,72.16395064819497,71.847775426334,72.25319287914846
165.0,72.7669218511605,72.26769521305295,72.67166275391891,72.34210173162694,71.96927663815383,72.41304639264627
170.0,72.83358982687997,72.20076749445562,72.61442746339745,72.30230232064049,71.94274354929424,72.39007576193121
175.0,72.93358982687997,72.20076749445562,72.5716627539189,72.22201851881731,71.94238624500815,72.3878649698448
180.0,72.96692185116049,72.30076749445561,72.64313939533781,72.30230232064049,72.04790087682784,72.46407385239792
185.0,73.00076749445562,72.30076749445561,72.62979499755905,72.22157071745497,72.1070265412452,72.46433243629619
190.0,72.63513059177983,72.00076749445562,72.55907003611941,71.9630532742558,71.87171181124579,72.21806026396723
195.0,72.46845083805431,71.96845083805432,72.50229476693693,71.8046043972274,71.64272558871276,72.09136618579097
200.0,72.26845083805433,72.00076749445562,72.54675150375354,71.76537624439828,71.7727312430274,72.0813384256876
206.0,72.16845083805433,71.63513059177983,72.41998423401444,71.38943152887123,71.38963953290182,71.82111755998929
212.0,72.23663575667186,71.30306957104253,72.41998423401444,71.17891267744088,70.94084531516776,71.6572755693173
218.0,72.50306957104252,71.07387961222817,72.53537086618987,71.18852204138268,70.63799142684704,71.65891097868644
224.0,72.57150800786937,70.8489851487955,72.5936659009678,71.11229035820149,70.22913491427366,71.57567348092172
230.0,72.70306957104253,70.74898514879551,72.61998423401442,71.08264684748963,69.92937019481788,71.55135705211745
236.0,73.10306957104251,70.9489851487955,72.81998423401443,71.38264684748964,69.96161674959022,71.7999590436637
240.0,73.26845083805433,70.91916705502754,72.81998423401443,71.36082630843885,69.89183344154199,71.8274763706036
250.0,73.43435140868503,71.04898514879551,72.90489499373622,71.46082630843883,70.04730352751257,71.95411921223578
258.0,73.66845083805433,71.31916705502752,73.07525122642457,71.68264684748964,70.34461331640459,72.18436758649251
265.0,73.40076749445562,71.44898514879551,73.08748929892042,71.83677387477599,70.52155250192803,72.18750098630423
272.0,73.20076749445562,71.54898514879551,73.18748929892041,71.9951248805119,70.76854009212371,72.24181421130122
280.0,73.0,71.41916705502754,73.14379075419728,72.02988465408723,71.07690966956062,72.21228310688379
290.0,72.8669218511605,71.48982856673473,73.17297191737703,72.036773874776,71.2716026645756,72.23192552261358
300.0,72.90076749445562,71.81916705502753,73.24379075419729,72.00245227663602,71.07160266457558,72.27709687129274
307.0,73.23435140868501,71.88982856673472,73.24379075419729,72.04868728184522,70.91741774379645,72.35504404944118
315.0,73.73435140868503,71.98982856673472,73.3437907541973,72.04868728184522,70.86719730936636,72.51756499790488
325.0,73.96845083805432,72.15260953202218,73.3874892989204,72.03276641677856,70.80938852286533,72.60953951803957
335.0,73.87150800786937,72.28982856673473,73.50229476693693,71.9316919845503,70.74410324772307,72.61019241098533
345.0,73.5069050103546,72.09897445130925,73.53537086618988,71.70531244059163,70.28362477757742,72.39006252304242
355.0,73.27609175449221,71.99897445130925,73.73537086618987,71.77096022893883,70.05089622025368,72.34993104081815
365.0,73.20690501035459,72.03752777300028,73.83537086618988,71.85778973918215,69.886902918085,72.36428874447344
375.0,73.27609175449221,72.00963256681621,73.89044363353322,71.94488034310518,69.64700474387448,72.3808582197635
387.0,73.24283030471975,71.88219812790055,73.74675150375354,71.84488034310519,69.26284056819705,72.25063861776296
400.0,73.17609175449222,71.64898359150843,73.54675150375354,71.64488034310519,68.60326304674996,72.03470606289198
412.0,73.01227178315618,71.38219812790055,73.31998423401444,71.48186810540449,67.69029645174575,71.77112124944291
425.0,72.91227178315619,71.18219812790055,73.21998423401443,71.49849845836965,67.02858774390688,71.63382342959898
437.0,72.71227178315618,71.37082970284298,73.11998423401444,71.6356718299331,67.3512660522444,71.63782813942225
450.0,72.51227178315618,71.52758719283592,73.11998423401444,71.66797265144207,67.88603574699367,71.66658670894529
462.0,72.38219967332304,71.68982856673472,73.11998423401444,71.60077902129676,68.0375740719291,71.66704442133681
475.0,72.35260953202217,72.0122717831562,73.20489499373622,71.78825872968017,68.00172718792639,71.78439029177886
487.0,72.28982856673473,72.1069050103546,73.11998423401444,71.78437077326194,68.51290553616447,71.81156924055136
500.0,72.33257218046558,71.34898514879552,73.07848478147017,71.18213630042098,68.24531039487388,71.51517485741599
515.0,72.34314826109436,70.90473530118575,73.07848478147017,70.86310663641524,67.06747117885172,71.27581319701167
530.0,72.04314826109434,70.98888547155002,73.04865957364794,70.78024655725666,66.34459647406192,71.1407429901637
545.0,71.670829702843,71.1026545034034,73.09044363353324,70.76867560737043,65.86654749178098,71.05522331784866
560.0,71.62758719283592,70.992378988098,73.04675150375354,70.78694883418707,65.53768428498164,70.99320663523751
580.0,72.08219967332303,71.2672655885961,73.31508314243885,71.40584612294276,65.9384927936851,71.38249786698185
600.0,72.41916705502754,72.02526453928849,73.48585448910238,72.08600849086405,66.64958541011521,71.84691373965936
615.0,72.21916705502754,72.5950645803583,73.45742449135815,72.34413679914908,67.25793473463165,72.01336421171959
630.0,71.55667255930051,72.4891563012964,73.22880715674529,72.25568125452854,67.49982154185882,71.79060712955287
650.0,71.30473530118574,72.23897757455804,73.08748929892042,72.14460856465313,67.67988404312948,71.63490835864351
670.0,71.12934077441656,72.06668552790022,73.05000634017073,71.93931626354404,67.73023167626359,71.51101718523446
690.0,70.8179278976485,72.0234968506598,73.0600593685791,71.55139809004802,67.17856748121343,71.31961969141398
710.0,70.992378988098,72.08656646311246,73.058217088195,70.9733784047472,66.51215689118473,71.20236630754673
730.0,71.53546263134683,71.78219967332305,73.18664191481759,70.37767134424415,65.84328840212424,71.13222639020083
750.0,71.77662798253905,71.16966078457042,73.3106896630263,70.1781631579122,65.33155729514161,71.03183658791171
775.0,71.68623512455237,71.03999927958743,73.38847217927517,70.11198887709764,64.76393170150357,70.97089467524337
800.0,71.67928732607432,71.97757950460712,73.49366590096783,70.50400230700296,64.84359005754318,71.27904980998605
825.0,71.63513059177983,72.50263350538769,73.53366980709029,70.8401032914165,65.43152390511756,71.49549358888424
850.0,71.63435140868503,72.41719474435358,73.30489499373621,70.48373110975244,65.21623977793847,71.33039242812696
875.0,71.60076749445562,72.77245249207644,73.08539130564125,70.15413314052685,63.937516344341134,71.24355368428819
900.0,72.30076749445561,73.36941986366729,72.97602210108667,70.25510288514654,63.91350561655054,71.56062242189681
925.0,73.03358982687998,73.39179815677409,72.7336457502912,69.49317404990326,63.267220589795045,71.56730646476007
950.0,73.56845083805433,74.07106744273919,73.05378373474548,69.44571626297511,63.26469307923483,72.00849724388067
975.0,74.37001488257476,73.86226919657724,73.20470702014276,69.39723172706397,63.90929744578159,72.24104027618986
1000.0,75.13746771551314,73.22021956404323,73.53942623521458,69.41371100751029,64.0727301161016,72.43102874393776
1030.0,76.00542400732661,73.70962251076207,73.60914589305827,69.87351359380033,64.802796879396,72.9686946980199
1060.0,75.63821129888743,73.51832544184973,73.52305470064503,69.92671732435724,63.57055908033186,72.72885358413617
1090.0,75.37449351030438,73.28538710465898,73.2481781544268,70.06516259153923,62.612622824406486,72.49837181915193
1120.0,76.11430637862281,72.54583147157396,73.17455785944566,69.75025524508837,62.774671752275424,72.59834439642745
1150.0,75.43897757455801,72.37269145322595,73.43443179205894,70.17695844887376,62.59140462585795,72.38242334764576
1180.0,75.02699787697726,72.22924838946486,73.51106138014495,70.23618938906915,62.863350815210964,72.22532601244026
1220.0,74.9552233498861,71.9387151104092,73.4596855474149,69.50597339359913,61.92065629988272,72.01869958158179
1250.0,75.05522334988609,72.00052961054487,73.41106138014496,69.13857811136485,61.586673263572436,72.01143372931743
1280.0,74.87872996753788,71.60464358834795,73.4866419148176,69.28797412300038,61.05000642505519,71.89218717918622
1320.0,74.73758968889496,70.3501692307022,73.36648670774596,69.02890611733105,60.788418227944646,71.55415982863379
1360.0,74.90464912211596,70.43546263134682,73.33698126844557,68.96848862375182,60.39126716445364,71.6156754561341
1400.0,74.0927276533821,70.37757950460713,73.27224439796834,68.4227596090815,59.73105914179443,71.18643668644013
1450.0,74.02389526938809,70.69257011413609,73.42146308291565,68.10233173913281,59.64882306842854,71.22901552103716
1500.0,73.45563638500028,70.72699787697726,73.48831552292606,67.81510983333293,59.7109343066018,71.02373272875435
1550.0,73.23694108962636,70.3464069547552,73.27740200741135,66.91546345543065,59.16105981051744,70.71219026544664
1600.0,72.94264771893205,69.20703247028058,73.20343598990847,67.71456553485757,58.83471157902679,70.46138860438619
1650.0,72.00996605888054,68.32812100489949,72.87740200741135,66.97831538558309,58.157326878788666,69.79807665915573
1700.0,71.00445255191632,69.47100612011482,72.91063265137014,66.91540033682367,58.46062190247808,69.69586976878499
1750.0,70.7181682322776,70.02643297742509,73.23156734312866,67.46025515624201,57.87670565934593,69.92024252844418
1800.0,69.76005632206405,69.98382992528653,73.44441901451353,67.78434860013593,58.53399016704178,69.84484862144453
1850.0,70.16899673041559,69.48889049053281,73.44303370469879,67.83536078755893,58.13352316212544,69.8324305875638
1900.0,68.47210933099396,69.79804670748716,73.50082270929394,67.57195280300503,57.26324072865016,69.56370975964064
1950.0,67.91798555922934,69.19430925610405,73.77740200741134,68.29463016485286,57.198851299318875,69.60368601384556
2000.0,66.7719918984262,69.81395652088273,73.68700543078884,67.87464780938906,57.06951137862366,69.47901912046221
2060.0,65.77971190008253,69.92545123408708,73.7074800989159,67.93159986499063,58.223947998793236,69.44206297815616
2120.0,65.98125974536141,69.09693704381888,73.53900047053699,67.43523801360041,57.502768993518515,69.11461686849529
2180.0,64.98405771335317,69.03758968889495,73.57330292929264,67.80064766160203,57.11402124377693,69.08188109763591
2240.0,65.72989052386149,70.04659692804832,73.68700543078884,68.05455039253371,57.51389865872174,69.46202655189211
2300.0,66.18806617811775,70.33921161314461,74.05378373474548,68.76150150775115,56.95421169293945,69.8602127549042
2360.0,66.83384639791802,70.0299114115576,74.05378373474548,68.25190377490557,57.54068687905867,69.78442915516544
2400.0,67.16219543008734,69.20209054318677,74.11467853559537,67.9822593056472,55.92277119665934,69.63694863634791
2500.0,67.7066387342783,69.31182730008753,74.28810079587952,68.37508042114194,55.75780466115077,69.87031156225092
2580.0,67.34293492570157,68.18107654963325,74.14273131524615,67.39150595589064,55.090742966928445,69.42182444011162
2650.0,67.4738024293654,66.39334234747825,73.90098676922553,66.42930660008577,52.8252747732422,68.93063504674937
2720.0,67.25427931284739,65.52129832737722,73.73425292632064,65.8336423535392,52.08676582769249,68.63331324282217
2800.0,67.53031449963484,66.05879677415588,73.69662980417905,65.22668955025799,52.53281074611573,68.64904169497521
2900.0,67.82457672584499,66.0708960000729,73.54443457389978,64.44154843548846,51.756010578046045,68.5314265211345
3000.0,68.0560388500297,66.57455057370106,73.59882325480007,64.16918972917047,54.43784720729505,68.66023360441713
3070.0,69.37609175449221,67.72401988636375,74.01603278514246,66.13186916853697,55.79897209681293,69.4722375707646
3150.0,70.31852635130014,67.59237650736642,74.13416418708971,66.49480531171508,56.15477962252845,69.75765444637683
3250.0,71.35498857039963,67.59330895054595,74.5669031315327,67.62802757145556,56.749644483020035,70.3577533077783
3350.0,71.29701892675756,68.20857942301257,74.6209322824358,67.6233182140977,56.792801220992374,70.44094610900108
