Freq,On Axis,Listening Window,Sound Power,Early Reflections,Early Reflections DI,Sound Power DI,DI offset
22.4,19.200000000000003,19.222937030699697,18.739981392639052,19.0072598410206,30.2156771896791,30.482955638060645,30
23.0,20.799999999999997,20.789777334053113,20.309721354350884,20.575870003848493,30.21390733020462,30.48005597970223,30
23.6,22.39999999999999,22.356350601256096,21.869197468885332,22.14155850838644,30.214792092869658,30.487153132370764,30
24.0,23.89999999999999,23.878233065083876,23.40194208867949,23.67111570447007,30.207117360613807,30.476290976404385,30
25.0,25.39999999999999,25.422937030699686,24.938066145404818,25.206290205569346,30.21664682513034,30.484870885294868,30
25.8,27.000000000000014,27.011741800636386,26.5181666392467,26.78467225642264,30.227069544213748,30.493575161389685,30
26.5,28.700000000000003,28.66717965375996,28.177988857510357,28.445575874894317,30.221603778865642,30.489190796249602,30
27.2,30.39999999999999,30.3452412839341,29.85120573345621,30.118207202789776,30.227034081144325,30.49403555047789,30
28.0,32.000000000000014,31.9782330650839,31.495880419222388,31.76366531062793,30.21456775445597,30.48235264586151,30
29.0,33.60000000000001,33.55635060125611,33.06919746888535,33.34155850838643,30.214792092869686,30.487153132370764,30
30.0,35.000000000000014,34.97823306508387,34.49588041922239,34.76366531062793,30.214567754455942,30.482352645861482,30
30.7,36.3,36.24524128393411,35.7521978921567,36.025188841036694,30.220052442897412,30.493043391777405,30
31.5,37.3,37.26717965375995,36.779601788520964,37.04557587489431,30.221603778865642,30.48757786523899,30
32.5,38.10000000000001,38.04524128393412,37.54086713046094,37.81233025492388,30.23291102901024,30.50437415347318,30
33.5,38.60000000000001,38.56743157327175,38.077637467988566,38.347482661474245,30.219948911797502,30.48979410528318,30
34.5,39.000000000000014,38.94524128393412,38.451205733456206,38.71820720278977,30.227034081144353,30.494035550477918,30
35.5,39.2,39.222937030699725,38.73806614540483,39.00629020556933,30.216646825130397,30.484870885294896,30
36.5,39.500000000000014,39.4782330650839,38.999093088405985,39.270160223170635,30.208072841913264,30.479139976677914,30
37.5,39.8,39.767431573271736,39.27567939807348,39.546499585968306,30.22093198730343,30.491752175198258,30
38.7,40.2,40.14524128393411,39.66208655955633,39.930094171706045,30.215147112228067,30.483154724377783,30
40.0,40.7,40.66717965375996,40.17944937267471,40.44653677967737,30.220642874082586,30.48773028108525,30
41.2,41.39999999999999,41.389777334053136,40.90842873552124,41.17587000384849,30.21390733020465,30.481348598531895,30
42.5,42.3,42.27823306508388,41.78575267458767,42.05157636717642,30.22665669790746,30.492480390496212,30
43.7,43.3,43.267179653759925,42.779601788520964,43.04557587489434,30.221603778865585,30.48757786523896,30
45.0,44.3,44.27823306508388,43.801942088679496,44.071115704470074,30.207117360613807,30.476290976404385,30
46.2,45.39999999999999,45.3452412839341,44.84083802859199,45.10894796641354,30.236293317520563,30.504403255342112,30
47.5,46.3,46.27823306508388,45.801942088679496,46.071115704470074,30.207117360613807,30.476290976404385,30
48.7,47.2,47.145241283934084,46.65120573345622,46.91820720278976,30.227034081144325,30.49403555047786,30
50.0,47.8,47.822937030699705,47.33912489913236,47.60629020556932,30.216646825130383,30.483812131567348,30
51.5,48.3,48.27823306508388,47.799093088405996,48.070160223170646,30.208072841913236,30.479139976677885,30
53.0,48.60000000000001,48.611741800636395,48.12009068039035,48.38564672993432,30.226095070702073,30.491651120246047,30
54.5,48.89999999999999,48.8452412839341,48.358917326016226,48.63270026015226,30.21254102378184,30.486323957917875,30
56.0,49.10000000000001,49.07823306508388,48.58575267458765,48.851576367176435,30.226656697907444,30.492480390496226,30
58.0,49.39999999999999,49.378233065083876,48.89269149450638,49.16066705785666,30.21756600722722,30.485541570577496,30
60.0,49.8,49.8117418006364,49.32570019645355,49.59305954164083,30.21868225899557,30.486041604182844,30
61.5,50.5,50.47823306508387,49.98732837326152,50.25157636717644,30.22665669790743,30.49090469182235,30
63.0,51.39999999999999,51.41174180063639,50.925662964992014,51.18758483808388,30.224156962552513,30.486078835644378,30
65.0,52.7,52.68977733405315,52.21164913979159,52.47684645419746,30.21293087985569,30.478128194261558,30
67.0,54.3,54.24524128393411,53.76717092926383,54.03761954475644,30.207621739177668,30.47807035467028,30
69.0,56.000000000000014,56.02293703069971,55.53091832512206,55.79889996162494,30.224037069074768,30.49201870557765,30
71.0,57.89999999999999,57.878233065083876,57.40194208867949,57.67111570447008,30.207117360613793,30.476290976404385,30
73.0,59.8,59.78977733405313,59.30364784147639,59.56842776861154,30.221349565441585,30.486129492576737,30
75.0,61.7,61.66717965375996,61.17609153137006,61.44557587489433,30.221603778865628,30.491088122389897,30
77.5,63.39999999999999,63.41174180063639,62.91816663924668,63.18467225642263,30.227069544213762,30.493575161389714,30
80.0,64.99999999999999,64.94524128393411,64.4389243989558,64.70697443762586,30.23826684630825,30.506316884978304,30
82.5,66.2,66.17823306508387,65.69919221194179,65.97111570447007,30.207117360613807,30.47904085314208,30
85.0,67.2,67.21174180063639,66.7315234741998,66.99210887650527,30.21963292413112,30.480218326436585,30
87.5,68.0,67.98977733405313,67.50833817100346,67.77206098860498,30.217716345448153,30.48143916304967,30
90.0,68.59999999999998,68.58977733405312,68.11555940397942,68.37949700574652,30.21028032830661,30.474217930073706,30
92.5,69.0,69.0229370306997,68.54780463556351,68.80294818307271,30.21998884762698,30.475132395136185,30
95.0,69.4,69.3452412839341,68.8674853150536,69.1314684517645,30.213772832169596,30.4777559688805,30
97.5,69.60000000000001,69.56743157327175,69.08628755748639,69.36321360602616,30.204217967245583,30.48114401578536,30
100.0,69.8,69.74524128393409,69.24047209376579,69.50697443762587,30.23826684630822,30.504769190168304,30
103.0,69.90000000000002,69.86717965375996,69.35381345322462,69.6376514205227,30.22952823323726,30.513366200535344,30
106.0,69.99999999999999,69.96717965375996,69.44080667344744,69.72210910881142,30.245070544948533,30.526372980312516,30
109.0,70.1,70.04524128393409,69.50409381955787,69.79478673747515,30.25045454645894,30.541147464376223,30
112.0,70.1,70.08925841531061,69.56315861095882,69.8595782944756,30.229680120835013,30.526099804351787,30
115.0,70.2,70.16717965375996,69.59069455784008,69.90396756461315,30.263212089146805,30.576485095919878,30
118.0,70.2,70.17823306508387,69.60376153992017,69.91475616580684,30.263476899277038,30.574471525163702,30
122.0,70.3,70.22267658830113,69.61950878806593,69.93756914458072,30.285107443720406,30.603167800235198,30
125.0,70.3,70.26717965375995,69.64240792294014,69.96532743484839,30.301852218911563,30.624771730819816,30
128.0,70.4,70.31173585711586,69.66520676682028,70.00544639337835,30.306289463737514,30.646529090295587,30
132.0,70.4,70.34498217571202,69.68196220879322,70.0332245063318,30.311757669380214,30.663019966918796,30
136.0,70.5,70.41173585711586,69.72053334122361,70.06844533833647,30.343290518779384,30.691202515892243,30
140.0,70.5,70.47823306508388,69.77772215666754,70.12586703659728,30.3523660284866,30.700510908416348,30
145.0,70.6,70.58925841531061,69.86297119395216,70.2193565935435,30.369901821767115,30.726287221358447,30
150.0,70.8,70.72293110248063,69.9448034425174,70.31281657996973,30.410114522510895,30.778127659963232,30
155.0,70.9,70.88925841531062,70.06563806956524,70.45732014243187,30.431938272878753,30.823620345745383,30
160.0,71.09999999999998,71.05635060125609,70.19645218423885,70.61303151619336,30.443319085062726,30.859898417017234,30
165.0,71.39999999999999,71.32293110248064,70.37522078386472,70.8191404434223,30.50379065905834,30.94771031861592,30
170.0,71.6,71.53435732133558,70.54645262611044,71.01316363280421,30.52119368853137,30.98790469522514,30
175.0,71.9,71.82293110248064,70.74026831393674,71.2610279945891,30.56190310789154,31.0826627885439,30
180.0,72.10000000000001,72.03435732133559,70.897498647668,71.44545765618581,30.588899665149782,31.13685867366759,30
185.0,72.3,72.2343573213356,71.01511744991681,71.60022412038566,30.634133200949933,31.21923987141878,30
190.0,72.49999999999999,72.39027257090359,71.10645157035763,71.7281897252141,30.662082845689497,31.283821000545956,30
195.0,72.6,72.467941235565,71.11253274851812,71.75821920560574,30.709722029959252,31.355408487046873,30
200.0,72.6,72.44575355685862,71.03946422398533,71.71347664677643,30.73227691008219,31.406289332873286,30
206.0,72.40000000000002,72.31224034685124,70.8686314127449,71.56061760201797,30.75162274483327,31.443608934106337,30
212.0,72.2,72.11224034685125,70.62175663806778,71.33253435177754,30.779705995073712,31.490483708783472,30
218.0,72.0,71.85736084076476,70.3004964856951,71.0415686379441,30.81579220282066,31.55686435506965,30
224.0,71.7,71.54599506285658,69.9499831632289,70.70793319575945,30.838061867097124,31.596011899627683,30
230.0,71.39999999999999,71.23485919027594,69.564600788136,70.34715983766561,30.887699352610326,31.670258402139936,30
236.0,71.09999999999998,70.93485919027594,69.17452060980759,69.99179709470421,30.943062095571733,31.760338580468357,30
240.0,70.8,70.6800035489201,68.79870979146104,69.67408046150639,31.005923087413706,31.881293757459062,30
250.0,70.6,70.4800035489201,68.448941616812,69.39231324241736,31.087690306502736,32.0310619321081,30
258.0,70.5,70.33662433805706,68.15466161311927,69.17656087960547,31.16006345845159,32.18196272493779,30
265.0,70.4,70.27021425291198,67.92599817701755,69.03094309752673,31.239271155385254,32.34421607589444,30
272.0,70.4,70.27021425291198,67.73618471539787,68.92884011465065,31.34137413826133,32.534029537514115,30
280.0,70.5,70.30508659472619,67.58957757540162,68.87819157185578,31.42689502287041,32.71550901932457,30
290.0,70.5,70.37125686487211,67.47451471380067,68.86013419367747,31.51112267119464,32.896742151071436,30
300.0,70.6,70.42828120946243,67.38352894350096,68.84574125534995,31.582539954112477,33.04475226596146,30
307.0,70.7,70.4838355972806,67.30145739295172,68.85006624791583,31.63376934936477,33.182378204328884,30
315.0,70.7,70.51784697548983,67.22983870917832,68.84459917400793,31.673247801481907,33.28800826631151,30
325.0,70.7,70.51784697548983,67.12231957178516,68.7992894947652,31.718557480724627,33.395527403704676,30
335.0,70.6,70.4384537689079,67.02955757386215,68.73990398043753,31.698549788470373,33.408896195045756,30
345.0,70.6,70.40583587491095,66.92758983321349,68.69571054821581,31.710125326695135,33.47824604169746,30
355.0,70.5,70.30583587491095,66.81425883548309,68.59916579997599,31.706670074934962,33.49157703942787,30
365.0,70.4,70.22649960300119,66.71963908484835,68.52434629734093,31.70215330566026,33.506860518152834,30
375.0,70.3,70.1264996030012,66.64161853063594,68.45169737466537,31.67480222833582,33.484881072365255,30
387.0,70.2,70.08052357459736,66.58735503648744,68.39843642785009,31.68208714674728,33.49316853810993,30
400.0,70.2,70.06921833250995,66.54759302082748,68.35457984735103,31.714638485158915,33.52162531168247,30
412.0,70.2,70.04676626413408,66.5312862059392,68.33734151192051,31.709424752213565,33.51548005819488,30
425.0,70.2,70.06895464854632,66.52428288047305,68.3337525341825,31.73520211436383,33.54467176807327,30
437.0,70.3,70.10204066493431,66.5331252006023,68.35865037952243,31.743390285411877,33.56891546433201,30
450.0,70.3,70.14676626413407,66.51898626162487,68.34959401789875,31.79717224623532,33.6277800025092,30
462.0,70.3,70.17975807560596,66.49561492810567,68.34921302882456,31.830545046781396,33.68414314750029,30
475.0,70.4,70.2020406649343,66.46327852884552,68.33615307996541,31.86588758496889,33.73876213608878,30
487.0,70.4,70.2020406649343,66.39272052881009,68.30296016830769,31.89908049662661,33.809320136124214,30
500.0,70.3,70.13639372963827,66.27672354854552,68.22079419072975,31.915599538908523,33.85967018109275,30
515.0,70.2,70.03639372963828,66.12286976058103,68.11350705493048,31.922886674707797,33.91352396905725,30
530.0,70.1,69.93639372963828,65.93445514210192,67.98383580093186,31.952557928706426,34.00193858753636,30
545.0,69.99999999999999,69.80406331639357,65.71662107049826,67.81577381851913,31.988289497874433,34.0874422458953,30
560.0,69.90000000000002,69.6604141975651,65.50456076015338,67.6733560134262,31.987058184138903,34.15585343741172,30
580.0,69.8,69.53991158667667,65.31082318631097,67.53921382680669,32.00069775986998,34.2290884003657,30
600.0,69.7,69.47376890571904,65.13585258087213,67.42639812925215,32.04737077646689,34.337916324846915,30
615.0,69.7,69.42088289940736,64.97778944199719,67.34159523842722,32.07928766098014,34.44309345741017,30
630.0,69.8,69.45617664434069,64.8843119378699,67.31007473313535,32.146101911205335,34.57186470647079,30
650.0,69.90000000000002,69.55617664434068,64.84838449261319,67.34622990177583,32.20994674256485,34.70779215172749,30
670.0,70.1,69.74860065210255,64.87854824689465,67.4549429552671,32.29365769683545,34.8700524052079,30
690.0,70.3,69.96378525509351,64.92461125377613,67.58970303054103,32.37408222455248,35.03917400131738,30
710.0,70.6,70.20038681379377,64.99814199686323,67.74050193348086,32.45988488031291,35.202244816930545,30
730.0,70.8,70.42476199646804,65.0519381158239,67.88021453165548,32.54454746481255,35.372823880644134,30
750.0,71.00000000000001,70.62677622940949,65.09941417230162,68.02252632058074,32.60424990882875,35.527362057107865,30
775.0,71.2,70.78373728716842,65.084677058262,68.10239952706617,32.68133776010225,35.69906022890642,30
800.0,71.3,70.87455708415942,65.02621143114378,68.14286292637404,32.731694157785384,35.84834565301564,30
825.0,71.3,70.86492338739713,64.88048821048397,68.08314457677977,32.781778810617354,35.98443517691315,30
850.0,71.2,70.8050224911992,64.6780586443919,67.9310663356065,32.873956155592694,36.1269638468073,30
875.0,71.09999999999998,70.66081880527784,64.44027306992271,67.74593796615068,32.914880839127164,36.22054573535513,30
900.0,70.9,70.53557028076196,64.1941814981943,67.52638203008483,33.00918825067713,36.34138878256766,30
925.0,70.8,70.3477770174574,63.92458334413526,67.26876214627788,33.079014871179524,36.423193673322146,30
950.0,70.6,70.21102731866117,63.6931328316269,67.02534272516537,33.18568459349579,36.51789448703427,30
975.0,70.5,70.0748451624858,63.476226589546215,66.79055956787133,33.284285594614474,36.598618572939586,30
1000.0,70.4,70.02990370405026,63.3191897290025,66.61297278296125,33.416930921089005,36.71071397504775,30
1030.0,70.4,70.01994335320005,63.22237680709618,66.48950287117731,33.53044048202274,36.797566546103866,30
1060.0,70.5,70.06261853828201,63.1715642596689,66.40456823964898,33.65805029863303,36.89105427861311,30
1090.0,70.6,70.15116162839514,63.15237934404239,66.36014447949418,33.79101714890096,36.99878228435276,30
1120.0,70.7,70.24215985549613,63.148489785523324,66.31586595367507,33.926293901821055,37.0936700699728,30
1150.0,70.8,70.32257661469221,63.146387302711204,66.28774074001144,34.034835874680766,37.176189311981005,30
1180.0,70.9,70.39068738976526,63.136663307574835,66.24596691849584,34.14472047126942,37.254024082190426,30
1220.0,70.9,70.39121822026006,63.07858163318204,66.1496609458854,34.24155727437466,37.31263658707802,30
1250.0,70.9,70.34189427367814,62.98177925947894,66.0170349562963,34.324859317381836,37.360115014199195,30
1280.0,70.8,70.22388420953872,62.83283343869013,65.8190402130317,34.404843996507026,37.391050770848594,30
1320.0,70.6,70.01160952522665,62.62274525796455,65.56182627968988,34.449783245536764,37.38886426726209,30
1360.0,70.4,69.7772552043282,62.399264120881185,65.27744683026405,34.499808374064145,37.377991083447014,30
1400.0,70.2,69.51412988441332,62.150331777456486,64.98503080626459,34.52909907814873,37.363798106956835,30
1450.0,69.99999999999999,69.2831125111107,61.94252851292835,64.73256024154442,34.55055226956628,37.34058399818235,30
1500.0,69.7,69.02873106042749,61.722784724888314,64.4797146515601,34.54901640886739,37.305946335539176,30
1550.0,69.60000000000001,68.81540477804144,61.550363557171835,64.2800831860017,34.535321592039736,37.265041220869605,30
1600.0,69.5,68.67028734247118,61.42756468369677,64.14991039152642,34.520376950944765,37.24272265877441,30
1650.0,69.4,68.60379247187633,61.38151809987508,64.08351443783647,34.52027803403986,37.22227437200125,30
1700.0,69.5,68.5985085620347,61.38432253128475,64.06880531808365,34.52970324395105,37.21418603074994,30
1750.0,69.60000000000001,68.651771448161,61.4278886474973,64.08970975843941,34.56206168972159,37.2238828006637,30
1800.0,69.7,68.7285885146915,61.53079529676998,64.1546869136372,34.57390160105429,37.197793217921514,30
1850.0,69.90000000000002,68.83203230347128,61.6630500129027,64.24845398555176,34.58357831791952,37.16898229056858,30
1900.0,69.99999999999999,68.93956651194775,61.77146584116572,64.33047732308451,34.60908918886324,37.168100670782025,30
1950.0,70.1,69.01291926229058,61.87347565588604,64.40783107422853,34.605088188062055,37.13944360640454,30
2000.0,70.2,69.07824929702579,61.93292176553645,64.4783752299801,34.59987406704569,37.14532753148934,30
2060.0,70.2,69.06269246889772,61.92545201585179,64.5034076294551,34.559284839442626,37.13724045304593,30
2120.0,70.2,69.02473384246413,61.87990975971745,64.51520657227566,34.50952727018847,37.14482408274668,30
2180.0,70.1,68.92616623169302,61.80557863162092,64.50468648369092,34.4214797480021,37.1205876000721,30
2240.0,69.99999999999999,68.79351806469795,61.696505224685,64.47286886804841,34.32064919664954,37.09701284001295,30
2300.0,69.90000000000002,68.66934059018769,61.60605171148033,64.47074438142046,34.19859620876723,37.063288878707354,30
2360.0,69.7,68.51184909869592,61.49828474575621,64.44647519220636,34.065373906489555,37.01356435293971,30
2400.0,69.5,68.34031443470157,61.41313647446232,64.44069985616092,33.89961457854065,36.92717796023925,30
2500.0,69.3,68.12923157274194,61.29915629355705,64.40767704268917,33.72155453005277,36.830075279184896,30
2580.0,69.1,67.96405877334062,61.202739356659805,64.40629156501313,33.55776720832749,36.76131941668082,30
2650.0,68.89999999999999,67.77740350668726,61.09570670069293,64.3896782218968,33.38772528479046,36.681696805994335,30
2720.0,68.59999999999998,67.6338093923185,61.00390261769175,64.3916889529177,33.24212043940079,36.62990677462675,30
2800.0,68.4,67.4620433815041,60.89616783944443,64.37846969894142,33.08357368256269,36.56587554205967,30
2900.0,68.2,67.34122462644673,60.812445419995,64.39036134241906,32.950863284027676,36.52877920645173,30
3000.0,68.1,67.23130872382784,60.733470636213,64.3915965963756,32.83971212745223,36.49783808761484,30
3070.0,68.0,67.16755292260845,60.65396848885719,64.38260653505158,32.78494638755687,36.51358443375126,30
3150.0,67.9,67.11977469908622,60.57460435139144,64.36126139786602,32.758513301220205,36.54517034769478,30
3250.0,67.8,67.11860102462875,60.49355769237083,64.2872116991024,32.831389325526345,36.62504333225792,30
3350.0,67.8,67.16907328010828,60.392672227218625,64.19363213196684,32.97544114814144,36.77640105288965,30
3450.0,67.9,67.2298467260232,60.288854989134805,64.07247620581053,33.157370520212666,36.94099173688839,30
3550.0,67.9,67.31081127660427,60.206241949283424,63.96365941286099,33.34715186374328,37.104569327320846,30
3650.0,68.0,67.41797650241672,60.12564288998773,63.86570272184508,33.55227378057164,37.29233361242899,30
3750.0,68.1,67.52094024183101,60.03360856845643,63.775037982393,33.74590225943801,37.487331673374584,30
3870.0,68.1,67.56671585157655,59.92060296642141,63.63921267031043,33.92750318126612,37.646112885155134,30
4000.0,68.2,67.58222337131507,59.792149383435614,63.530030418581674,34.05219295273339,37.79007398787945,30
4120.0,68.2,67.50153007633931,59.615045614684675,63.41569577181828,34.08583430452103,37.88648446165463,30
4250.0,68.2,67.36400928527821,59.399200276311575,63.28474208198001,34.0792672032982,37.96480900896664,30
