Freq,Floor Bounce,Ceiling Bounce,Front Wall Bounce,Side Wall Bounce,Rear Wall Bounce,Total Early Reflection
20.5078,58.72165179022167,57.22012284091335,58.103554488253764,57.63040344654905,63.29507976869982,59.66936048444907
23.4375,60.887127559129,60.369283099021004,60.40799945537364,60.62072105837345,67.03565747261057,62.84237295407766
26.3672,64.60118835754363,64.38676520309392,64.24267901572594,64.65786544962376,70.26226205992535,66.40125806059967
29.2969,68.20692483441614,68.11775131212704,67.9052447507541,68.41486326985682,73.3544698388418,69.8105122030881
32.2266,71.96994054907196,72.04039375349677,71.74371352432746,72.32152378189747,76.56849261757657,73.38944610783057
35.1563,75.75942489445534,75.74476692050912,75.53322419736612,76.07586838832569,79.62795833316562,76.8710084512224
38.0859,79.05152849934869,79.01992695560892,78.83921271273556,79.35826022194644,82.3933134037517,79.96949971885503
41.0156,81.78294142593673,81.736111856657,81.57599843586394,82.07957837241023,84.66312062711992,82.541619935212
43.9453,83.63844853856065,83.54158317724743,83.4277578506983,83.90258530856693,86.1335727516766,84.26018964271577
46.875,84.67963320261818,84.55676949297353,84.4644757617505,84.92800974330204,86.87014529545388,85.2016417211269
49.8047,85.1785287506006,85.02391851302218,84.95711778316425,85.4059540593376,87.1049948660293,85.6140124388145
52.7344,85.46183719646844,85.29204847178616,85.24018980400665,85.67435923385659,87.15809565117492,85.82803839686487
55.6641,85.65483459215983,85.46163300604253,85.43045947120655,85.8464605194973,87.1455163504196,85.95739640130648
58.5938,85.85031960848517,85.63266111527545,85.62021244361824,86.02302939673359,87.15953465572633,86.09674401920331
61.5234,85.99772273565806,85.74528815615399,85.7598194334726,86.14259433466503,87.12721471969938,86.1857043369784
64.4531,86.20053435953689,85.90642173070617,85.95458681942085,86.31166658743075,87.14053677201905,86.3264054033239
67.3828,86.48456817518554,86.1351295871545,86.22869696513453,86.5531705686574,87.22971504148441,86.54372494550746
70.3125,86.64505919827579,86.27501468344346,86.38026223951935,86.69873198341801,87.30547450218228,86.67608326318927
73.2422,86.93420938898315,86.56317493900731,86.67057602178619,86.98555955651275,87.52214422072844,86.9481522927974
76.1719,87.2006443741795,86.79647949346565,86.92956008844686,87.2218317180795,87.64827968485656,87.16933808167383
79.1016,87.33658361340882,86.92914867834081,87.06027305188806,87.36224741371976,87.77221761420947,87.30191776265069
82.0313,87.66499892810872,87.24158908070208,87.40106042974523,87.65110247694403,87.895446320439,87.57676749150954
84.9609,88.04115386886565,87.55330998308304,87.78937498053537,87.93402143551012,87.85368595627011,87.83737438007991
87.8906,87.99058103500344,87.53802243549146,87.70544956878169,87.97401433405645,88.19939960822619,87.88769897398475
90.8203,88.07751435688922,87.61292941038991,87.78003545770787,88.06668002369068,88.32076184507402,87.97864749017586
93.75,88.39520113107669,87.81721816927225,88.08651185248375,88.28182344071416,88.31547048977771,88.18414245967989
96.6797,88.67459744822293,88.12724757701844,88.3996720026265,88.53865225361429,88.36237378010412,88.4243711106545
102.539,88.93989524236498,88.34036118090424,88.6327663000155,88.77610040685516,88.62430463556876,88.66717819487381
105.469,89.05839599124832,88.40085785658745,88.73821987097213,88.85547637883316,88.64743884608951,88.74555311117112
108.398,89.1855075333354,88.55143711340068,88.88197881161994,88.97954841685394,88.72918700128461,88.87089457934567
111.328,89.40036177059712,88.74582701084572,89.09187225532372,89.17861208574286,88.89025557503945,89.06734223961087
117.188,89.72204159335186,89.02252253917882,89.39792715132972,89.45587066828506,89.1329480257157,89.35332946477294
120.117,89.88829994409423,89.13414124144512,89.54235624999887,89.58231967803196,89.25944182062318,89.48938038992043
125.977,89.99436198456584,89.22412285555703,89.66708284830761,89.65293725655741,89.17964201053952,89.55435304561533
128.906,89.97709134432101,89.19479343951996,89.648612220148,89.62388027204736,89.07223779467347,89.51577761732435
134.766,89.99741852230048,89.14115627089497,89.62130505982444,89.61589368622961,89.1882190171662,89.52437574719058
137.695,90.02903539898983,89.08865341554257,89.622786094925,89.60156250040721,89.20997737455306,89.52331469773749
143.555,90.08408757153506,89.00886255676345,89.64749153545601,89.55669748675804,89.09278053992448,89.495835036925
149.414,90.21980123873854,89.03695020277672,89.78394701801366,89.59583892198364,88.93215924765784,89.54015854936952
155.273,90.40588672219701,89.2068193568719,89.98933672129358,89.75747095916603,88.9104439216236,89.68705770458972
158.203,90.39732012545173,89.19691115922377,89.9796582468197,89.74246973829212,88.88883760232707,89.67452610308459
164.063,90.37903163886251,89.11860910115816,89.94275703480139,89.70383740801634,88.83373437616358,89.63126048447113
169.922,90.15999692448253,89.04320564304149,89.77608640368122,89.53472742729761,88.73938347373311,89.4802307586841
175.781,90.03064283944909,88.82367621411026,89.61260142724585,89.31528678586227,88.52053489556022,89.29409362577456
181.641,90.01108396638703,88.62657214100108,89.55512206635107,89.15520805428719,88.11211384384133,89.14317706608169
190.43,89.9581064215773,88.5178618617394,89.49467529235278,89.07858580585948,87.92968977941862,89.05372657333687
196.289,89.85341599863945,88.3357848082671,89.38097072328625,88.90302258839978,87.84124857899272,88.92177097649096
202.148,90.01895118395008,88.39189391512963,89.58681502249937,88.97136573679836,87.65865149602722,89.00534531890233
210.938,89.91844090065658,88.51262131335565,89.54308151230586,88.93115639413278,87.61245759802821,88.9767839903285
216.797,89.69361492463919,88.23146733980465,89.26950263163344,88.67405171601416,87.42110415576282,88.72933844917286
225.586,89.75391488965607,88.098368644566,89.32874881617238,88.58809364222789,87.10642011984264,88.67253847168155
234.375,89.70756280823893,88.01759811470174,89.2513471801354,88.5240643693192,86.91569571088597,88.58956594270762
240.234,89.60629687309878,87.75058299365028,89.09156000288515,88.27062523041198,86.41938354264741,88.3636496387609
249.023,89.75872714045921,87.55662278460221,89.18578157914737,88.2111875141965,85.57276913278312,88.28393344789181
257.813,89.68180706450448,87.98750294863305,89.26083719608033,88.57687738500866,86.40269820680595,88.52403251988818
266.602,89.19603551879652,87.28537929369783,88.5655213611525,87.90230820169393,85.9246180719114,87.91426579784125
278.32,88.91354813031148,86.78064171882886,88.36015972976016,87.533260029392,85.55953134845812,87.58467125357592
287.109,88.996519297156,86.98403131076768,88.48436807465092,87.5251519665173,85.48796463085742,87.66097553097235
295.898,89.1228827780598,86.889389405319,88.54597935412525,87.49773344284041,84.80879289519687,87.61302862946937
307.617,88.93907465071712,86.17485482788268,88.1151788025504,87.07068758442576,84.51745163766532,87.22308879242806
319.336,90.13375107934766,87.31382868974896,89.40689907040468,87.37476542197328,83.67720042293674,88.09144982934205
331.055,89.63803374892838,86.4426643032751,88.6739029798538,87.23314062231742,83.87911503693431,87.59040191858385
342.773,90.68767838885873,87.73118782304704,89.99355619640406,88.18950124063038,84.79483670750587,88.72028977282781
354.492,90.1932754371732,88.16611863068655,89.88127606962395,88.53794327476076,84.86491833702934,88.68621163906941
366.211,89.90515348374505,87.94267880218817,89.63416295372068,88.53034301546037,84.36225738758844,88.4587213971763
377.93,89.70145947687067,87.86739260221727,89.26429504497331,88.43043047944766,85.17380726924273,88.34491362789198
392.578,89.06576974643274,87.37188392299876,88.81096740652838,87.89037754920928,84.58757983458644,87.80425236507418
407.227,88.86754265715699,87.10569115356557,88.57348876081937,87.65087259052248,84.24381597818223,87.56170767577717
421.875,87.68565567361466,86.70790116149054,87.7214171514299,87.83479610416332,86.03553821567597,87.25262730184696
436.523,88.74051462491455,85.26301174465533,88.52351232190733,87.37791646538611,86.90778770220862,87.53342343030789
451.172,90.08717881186044,86.79566111561182,89.85526547768136,88.19691363996353,85.80836283902906,88.4594071840789
465.82,90.10948358667338,87.02631040895763,89.66509618216806,88.11830664155774,85.45010349234141,88.39438878476486
483.398,90.03957332949261,87.23507671073054,89.51683612212472,87.9958778962263,84.36343047388428,88.2430836600088
500.977,90.02679026254432,86.91834592047246,89.37974600888084,88.19839235771516,84.28564273162988,88.18709443902866
518.555,89.0312712564265,86.56264939113925,89.14541519952893,87.68780250906165,84.37697919348864,87.6875296978697
536.133,89.20963522953524,85.96425817143415,89.68786212541845,87.77684127930107,83.63852848837666,87.76641366154469
553.711,88.97713730372077,85.86225176892316,89.32736217466012,87.91004837089017,83.03124549160037,87.56079540951495
574.219,88.93986350008082,86.3102623249654,89.51545837295451,88.04037979279572,83.4449982327703,87.72809809460546
594.727,88.94968692094511,86.93489782502299,89.53165875424517,87.40145635685305,83.78689767944707,87.73137709434623
615.234,89.43570588764918,86.93495564207926,89.93319110470986,88.36528922230414,84.36568774551631,88.21671245193491
638.672,90.87800839154286,87.26133586670784,91.45498447054712,88.81410666447672,85.75266026355396,89.33630195089141
659.18,90.32352219111958,87.74965748767032,91.23421646027911,88.60083999950572,84.77363113118341,89.05944841166887
682.617,90.34667431447494,87.35978133500217,90.9794076023799,88.14853936186557,85.02776044849222,88.86683487182404
706.055,90.3238381843463,87.23458744775314,91.42124121952354,87.47623608949782,84.56388022999322,88.85232283125436
732.422,88.3495361220658,87.9154316014051,90.09315069382933,87.22854255207619,82.14884452672503,87.80546586945208
758.789,89.8972697228804,89.64108799836757,91.1523226400389,88.35046581525461,83.50717633467681,89.14807832103396
785.156,90.30327214161326,90.6145408011557,91.6915051909506,88.86595239398503,83.79444329606355,89.7407959152531
811.523,89.78850148624224,89.8941043407857,91.37236745073385,88.34786369767859,83.27470338481608,89.23879764580366
840.82,89.8064255402609,89.94430344371301,90.93440046536526,87.98786207059858,82.31464226876221,89.01274161776914
870.117,89.90951924766202,89.41268050470727,90.86252655007367,87.45137384701277,82.3787286861245,88.80996644857224
902.344,89.66026376762667,89.47634859609168,90.80312906824071,87.67333506959591,81.57607569224156,88.74282887564905
931.641,89.94423622259278,88.73059165917843,90.82244013228632,87.20109518974792,81.49976603990925,88.58353223618005
966.797,90.16088292006657,87.69740994718893,90.52509841360116,86.69777038845642,80.46822052033264,88.23947696361748
999.023,89.64063804058983,86.68640792257517,89.82136073439557,86.23800406318887,79.81613616478197,87.57843411662957
1034.18,89.87294606081142,86.2518744891229,88.94408562907003,85.62157291024273,79.20778717941934,87.20229748475997
1072.27,89.7725136847609,86.28590214299501,88.3632567613807,85.06732778392059,79.62661117727515,86.94271156622536
1110.35,89.77858000330032,86.32600599259987,87.87348166686581,83.920238549812,79.01266823462863,86.66248232909166
1148.44,89.80842875875197,86.02583367716241,88.18029287440928,83.77844463971253,80.60184159621514,86.75520261692687
1189.45,89.02334596459968,84.71245598735153,88.31409513054078,83.67946076311534,79.3665061878643,86.2171687141506
1230.47,88.29340405252006,83.01693901313315,87.74149305216,83.39945940627024,76.5558859134861,85.4004282666951
1274.41,87.31863786495633,82.16829008736764,87.36139786656115,83.05359208816989,75.21311999191572,84.72460291109181
1318.36,86.48716275400152,79.73799055321726,86.65361246826934,82.3038481293985,74.50084167477799,83.80370661985913
1365.23,85.17809419940708,79.21664398813805,86.01355371768842,81.44735259382432,73.89339287009571,82.90646165848247
1415.04,83.52657524580049,78.53310403752673,85.37017860540094,80.34307533659928,72.79697345471675,81.86508778391088
1464.84,82.19962328918997,76.8655742598476,85.43199973243725,80.31227738055823,71.97326688204129,81.38014254467593
1514.65,81.33693614324828,76.03704122854182,85.5640145483753,80.6638143636992,71.56657508755141,81.25247417453892
1570.31,80.28442618464808,76.22433609981621,85.2732538447487,80.19337242241187,70.98898605586481,80.81033101734508
1623.05,78.89076825969724,74.69895269632646,84.350664739591,79.260476897464,70.20576661770033,79.76904165747098
1681.64,77.48162526659524,74.33529978972749,84.2435204978384,78.75006952217888,69.77703779348494,79.37816421030406
1740.23,76.72395310619208,75.40840434398775,84.93011060466648,79.17956173645675,70.25620992813624,79.87975492151138
1801.76,76.69776354670276,75.28075987985548,85.01530268799333,79.00573666308792,70.3795791787137,79.89698231259378
1866.21,77.4987668910175,77.07716219378256,84.29909300521865,78.68714149026773,69.47587692418361,79.62944478756555
1930.66,77.46363871955198,78.71873009176815,83.5341461753776,78.20464512130135,68.68833536993645,79.33881116514755
2000.98,78.03448947032844,78.46326268939359,84.63265349472836,78.9763776472953,68.63670477688702,80.0918274923491
2071.29,79.3253021455586,79.20748826655756,85.30907208102408,79.482316284812,69.0651605103543,80.83007879589418
2144.53,80.97991666615162,80.05352203841976,84.9149448867465,79.55603531629409,69.16272251633359,81.03923783083934
2217.77,81.7543351551144,80.64318277409612,84.75917810639109,79.33919002524848,69.25553946337479,81.20057437864085
2296.88,82.67445470620666,81.25437118615541,86.33455874065793,80.43497078089388,69.81723102107804,82.39906222676682
2378.91,83.46276520273045,81.69845586819525,86.69151355801661,81.14743303425969,70.03510595546099,82.90907694679235
2460.94,84.69136293868698,81.74973558339576,86.8304887783073,81.17382461976564,70.7151712521477,83.29997424943792
2548.83,85.37581194196136,82.19286958377639,87.19643767085502,81.59536431700249,70.85430173845941,83.77101569569493
2639.65,85.90218267999629,83.04819164212736,87.9671367961671,82.14569614923927,71.0057988783976,84.45198289586114
2733.4,86.57462915718429,82.95492569028137,88.20553124403938,82.27317049912844,70.92469269397976,84.75548756184787
2827.15,87.04683187155533,82.9234775870628,88.60189516421205,82.5881970063766,71.19150162165074,85.11093575925723
2926.76,87.37043353819085,83.01048262543162,88.36841108195884,82.33125998718288,70.91245231192866,85.0947861737285
3032.23,87.30967076508028,83.14390256963105,88.29723814529214,81.91573477334143,70.57211344986601,85.01602067352162
3137.7,87.41266158724288,83.02426352563108,88.57456024214704,82.2139319516983,70.34086188533095,85.1833036162231
3249.02,87.48851367747623,83.12051469232125,88.39842463346233,81.84312730638132,70.301265705577,85.10856289253798
3363.28,87.30577660049391,83.05377738037444,88.13052367005699,81.33791795163043,70.11419092451928,84.875095803407
3483.4,86.76513372127371,83.1660556900109,88.56225263535202,81.53639959283956,70.40935540387954,84.92398181735234
3606.45,86.60600834464961,83.2320988133275,88.20007328503753,81.28176530995911,70.15779127786789,84.69411443830407
3732.42,86.84159455838814,83.39901070507628,88.10651377953755,81.65869644741423,70.74321526519768,84.79132625462015
3864.26,86.84107231842572,83.48814464139448,88.40208042396551,82.2657447462399,70.72575699847619,84.9938774761497
3999.02,86.36802927591783,83.69165810999814,88.60610180540748,82.87402719722584,70.94114650112573,85.04873948007425
4139.65,86.6685874307009,83.79114762470115,88.67861654549685,83.30440891890669,70.81950905235172,85.23100626171467
4286.13,87.34964326010973,84.13049618480999,89.57791179700773,83.82788341542664,70.68377942094926,85.93856096859261
4438.48,87.2056191375108,84.20435145635363,89.3753877559323,83.78143623699486,70.22381616075933,85.80744384559966
4593.75,87.73690792389755,84.35556848447051,90.05090834311704,83.56560145826778,69.04745048322297,86.26050675202767
4757.81,88.01820444690283,84.17827307704296,89.699641946961,83.35300453196454,68.53985628481193,86.13221219650303
4924.8,88.05000623435043,83.78113441683425,89.83159626943424,82.86651025825303,67.397729775053,86.10245447026155
5097.66,88.13401307239806,83.69805418407606,89.6244858017159,82.37353660856922,67.24008711389534,85.97747178883614
5279.3,88.05617610494045,83.17958623375088,89.12449341600694,81.9475275077663,66.53166490618631,85.62443902314502
5463.87,87.93671485448664,82.74530373353113,89.64214184249845,81.55515889672088,66.47261176708338,85.74816382896944
5657.23,87.6909810244623,82.59468589386506,89.2397355235948,81.23386985233253,66.67310850350177,85.43145059246231
5856.45,87.520901491795,82.41075067649538,89.30606435178699,81.22801050088997,66.42294246965737,85.38739416028024
6061.52,87.42757474299529,81.80246387768767,89.61976525215144,81.43321159348497,66.67137301191208,85.47626768897166
6275.39,87.41418002327366,81.51968521465885,89.87312117205828,81.41429099843607,66.2973977813214,85.58035711543839
6498.05,87.32012096836864,81.13596381180017,89.9383078640942,81.30748178042276,65.94308365407468,85.54943260444917
6726.56,87.46740897892917,80.64835012760223,89.92735350258145,80.87026190400779,64.83600068585022,85.52152579443575
6963.87,87.32693970161947,80.04328903221595,89.90814491572807,80.35068122292141,64.26748207514925,85.39459514228527
7209.96,87.19685289743144,79.88550874192089,89.71660806582379,79.83404561232936,64.15651514498808,85.20486266115712
7464.84,86.9526031837544,79.78874282588616,89.55750344272846,79.44764981063983,63.739846378573134,85.00936631275812
7728.52,86.71407515941993,79.44171612350915,89.46810674561974,79.36313839610304,63.95635231083452,84.85939181733215
8000.98,86.77412072940864,79.63658932361767,89.65058985706719,79.43785004905097,63.77640414730581,84.9987957915493
8282.23,86.6318933239703,79.36030491782938,89.86509042969972,79.50139753099587,63.43469354075509,85.07190088077095
8575.2,86.51654620311626,78.7536040313617,89.61863305760124,79.23936684809618,63.4710336429911,84.84450774581443
8876.95,86.41684462321021,77.86589512572634,89.18398391603162,78.83841800506326,62.3815988769216,84.49124532902997
9190.43,86.36223008715918,77.4589975360164,88.86605334980513,78.4185119190839,62.48748525045511,84.24847907350875
9512.7,86.21713773040834,77.17434806812922,88.80332331836745,78.29658826901452,62.11240163062732,84.1464892765687
9849.61,86.39510868998913,77.72314692158943,89.01006119731696,78.45843231870434,61.8067485878903,84.35535479857118
10195.3,86.63280366314648,77.45729259974888,89.52073331818468,79.04307890489284,62.29194349201563,84.75285633037
10555.7,86.94298846875999,77.56358018518773,89.97035435309758,79.27108949023587,62.405776301541465,85.13537391399566
10927.7,87.26695192156457,77.83870751321086,90.21421008728613,79.73595343294593,62.85671524114636,85.41666148167381
11314.5,87.62264315602536,78.57700136439713,90.1968491403753,79.78036082669419,62.81394839381616,85.54818069883697
11712.9,87.99768989837057,78.5192112536656,90.00911955536016,79.29111679651638,61.28266282824325,85.53911118392766
12126.0,88.23697993840551,78.13444223142773,90.36999602891254,79.7497393687306,61.35332920266475,85.834522209797
12553.7,88.50950619748485,78.27470168212405,90.48744612054378,80.32720735259613,62.20682243558281,86.03140041653765
12996.1,88.9757007170852,77.94123097999888,90.8202606574053,80.54665537019031,62.516508935865176,86.38534988419613
13453.1,89.15297626164548,76.81953173714165,90.98086325566258,80.69064922675625,62.24033689995326,86.51895573301171
13927.7,89.00515818290278,75.84553702893655,90.65534610460135,80.27814810995403,60.6481134321219,86.24147188543498
14419.9,87.985701716446,73.98528622957721,90.10050068536368,78.83398917433114,58.69843659068286,85.45189098996067
14929.7,86.47091653105034,70.91004574611634,89.70263723971789,76.67366239360031,55.992476970541844,84.58409017250361
15454.1,84.74143337138305,67.51823740403144,89.3215789710022,73.6789302422055,52.50196543651418,83.73824325062951
