Freq "Front Wall Bounce"
20.5078 57.06450066645368
23.4375 59.36894563357356
26.3672 63.20362519392586
29.2969 66.86619092895401
32.2266 70.70465970252738
35.1563 74.49417037556604
38.0859 77.80015889093548
41.0156 80.53694461406386
43.9453 82.38870402889822
46.875 83.42542193995043
49.8047 83.91806396136417
52.7344 84.20113598220657
55.6641 84.39140564940647
58.5938 84.58115862181816
61.5234 84.72076561167252
64.4531 84.91553299762077
67.3828 85.18964314333445
70.3125 85.34120841771927
73.2422 85.63152219998611
76.1719 85.89050626664678
79.1016 86.02121923008798
82.0313 86.36200660794515
84.9609 86.75032115873529
87.8906 86.6663957469816
90.8203 86.74098163590779
93.75 87.04745803068367
96.6797 87.36061818082642
102.539 87.59371247821542
105.469 87.69916604917205
108.398 87.84292498981986
111.328 88.05281843352364
117.188 88.35887332952964
120.117 88.5033024281988
125.977 88.62802902650753
128.906 88.60955839834791
134.766 88.58225123802436
137.695 88.58373227312492
143.555 88.60843771365593
149.414 88.74489319621358
155.273 88.9502828994935
158.203 88.94060442501961
164.063 88.90370321300131
169.922 88.73703258188114
175.781 88.57354760544577
181.641 88.516068244551
190.43 88.4556214705527
196.289 88.34191690148617
202.148 88.54776120069928
210.938 88.50402769050578
216.797 88.23044880983336
225.586 88.2896949943723
234.375 88.21229335833532
240.234 88.05250618108506
249.023 88.14672775734729
257.813 88.22178337428025
266.602 87.52646753935242
278.32 87.32110590796007
287.109 87.44531425285084
295.898 87.50692553232517
307.617 87.07612498075032
319.336 88.3678452486046
331.055 87.63484915805373
342.773 88.95450237460398
354.492 88.84222224782387
366.211 88.5951091319206
377.93 88.22524122317323
392.578 87.7719135847283
407.227 87.53443493901929
421.875 86.68236332962982
436.523 87.48445850010725
451.172 88.81621165588128
465.82 88.62604236036798
483.398 88.47778230032463
500.977 88.34069218708076
518.555 88.10636137772885
536.133 88.64880830361837
553.711 88.28830835286004
574.219 88.47640455115443
594.727 88.49260493244509
615.234 88.89413728290978
638.672 90.41593064874704
659.18 90.19516263847903
682.617 89.94035378057981
706.055 90.38218739772346
732.422 89.05409687202925
758.789 90.11326881823882
785.156 90.65245136915051
811.523 90.33331362893377
840.82 89.89534664356518
870.117 89.82347272827359
902.344 89.76407524644063
931.641 89.78338631048624
966.797 89.48604459180108
999.023 88.78230691259549
1034.18 87.90503180726995
1072.27 87.32420293958062
1110.35 86.83442784506573
1148.44 87.1412390526092
1189.45 87.2750413087407
1230.47 86.70243923035991
1274.41 86.32234404476107
1318.36 85.61455864646926
1365.23 84.97449989588834
1415.04 84.33112478360086
1464.84 84.39294591063717
1514.65 84.52496072657522
1570.31 84.23420002294861
1623.05 83.31161091779092
1681.64 83.20446667603832
1740.23 83.8910567828664
1801.76 83.97624886619325
1866.21 83.26003918341857
1930.66 82.49509235357752
2000.98 83.59359967292828
2071.29 84.270018259224
2144.53 83.87589106494642
2217.77 83.72012428459101
2296.88 85.29550491885784
2378.91 85.65245973621653
2460.94 85.79143495650722
2548.83 86.15738384905494
2639.65 86.92808297436702
2733.4 87.1664774222393
2827.15 87.56284134241197
2926.76 87.32935726015876
3032.23 87.25818432349206
3137.7 87.53550642034696
3249.02 87.35937081166225
3363.28 87.0914698482569
3483.4 87.52319881355194
3606.45 87.16101946323745
3732.42 87.06745995773747
3864.26 87.36302660216543
3999.02 87.5670479836074
4139.65 87.63956272369677
4286.13 88.53885797520765
4438.48 88.33633393413221
4593.75 89.01185452131696
4757.81 88.66058812516091
4924.8 88.79254244763416
5097.66 88.58543197991582
5279.3 88.08543959420686
5463.87 88.60308802069837
5657.23 88.20068170179472
5856.45 88.2670105299869
6061.52 88.58071143035136
6275.39 88.8340673502582
6498.05 88.89925404229412
6726.56 88.88829968078137
6963.87 88.86909109392799
7209.96 88.67755424402371
7464.84 88.51844962092838
7728.52 88.42905292381965
8000.98 88.61153603526711
8282.23 88.82603660789964
8575.2 88.57957923580116
8876.95 88.14493009423154
9190.43 87.82699952800505
9512.7 87.76426949656737
9849.61 87.97100737551688
10195.3 88.4816794963846
10555.7 88.9313005312975
10927.7 89.17515626548605
11314.5 89.15779531857522
11712.9 88.97006573356008
12126.0 89.33094220711246
12553.7 89.4483922987437
12996.1 89.78120683560522
13453.1 89.9418094338625
13927.7 89.61629228280127
14419.9 89.0614468635636
14929.7 88.6635834179178
15454.1 88.28252514920212
15999.0 87.9894124718011
16564.5 88.06322391937411
17147.5 88.23404475041214
17753.9 88.47745747957248
18377.9 87.79822822850196
19028.3 86.55959694045202
19699.2 84.7789712437388
19998.0 83.65419350702535
