Freq "Side Wall Bounce"
20.5078 57.63040344654905
23.4375 60.62072105837345
26.3672 64.65786544962376
29.2969 68.41486326985682
32.2266 72.32152378189747
35.1563 76.07586838832569
38.0859 79.35826022194644
41.0156 82.07957837241023
43.9453 83.90258530856693
46.875 84.92800974330204
49.8047 85.4059540593376
52.7344 85.67435923385659
55.6641 85.8464605194973
58.5938 86.02302939673359
61.5234 86.14259433466503
64.4531 86.31166658743075
67.3828 86.5531705686574
70.3125 86.69873198341801
73.2422 86.98555955651275
76.1719 87.2218317180795
79.1016 87.36224741371976
82.0313 87.65110247694403
84.9609 87.93402143551012
87.8906 87.97401433405645
90.8203 88.06668002369068
93.75 88.28182344071416
96.6797 88.53865225361429
102.539 88.77610040685516
105.469 88.85547637883316
108.398 88.97954841685394
111.328 89.17861208574286
117.188 89.45587066828506
120.117 89.58231967803196
125.977 89.65293725655741
128.906 89.62388027204736
134.766 89.61589368622961
137.695 89.60156250040721
143.555 89.55669748675804
149.414 89.59583892198364
155.273 89.75747095916603
158.203 89.74246973829212
164.063 89.70383740801634
169.922 89.53472742729761
175.781 89.31528678586227
181.641 89.15520805428719
190.43 89.07858580585948
196.289 88.90302258839978
202.148 88.97136573679836
210.938 88.93115639413278
216.797 88.67405171601416
225.586 88.58809364222789
234.375 88.5240643693192
240.234 88.27062523041198
249.023 88.2111875141965
257.813 88.57687738500866
266.602 87.90230820169393
278.32 87.533260029392
287.109 87.5251519665173
295.898 87.49773344284041
307.617 87.07068758442576
319.336 87.37476542197328
331.055 87.23314062231742
342.773 88.18950124063038
354.492 88.53794327476076
366.211 88.53034301546037
377.93 88.43043047944766
392.578 87.89037754920928
407.227 87.65087259052248
421.875 87.83479610416332
436.523 87.37791646538611
451.172 88.19691363996353
465.82 88.11830664155774
483.398 87.9958778962263
500.977 88.19839235771516
518.555 87.68780250906165
536.133 87.77684127930107
553.711 87.91004837089017
574.219 88.04037979279572
594.727 87.40145635685305
615.234 88.36528922230414
638.672 88.81410666447672
659.18 88.60083999950572
682.617 88.14853936186557
706.055 87.47623608949782
732.422 87.22854255207619
758.789 88.35046581525461
785.156 88.86595239398503
811.523 88.34786369767859
840.82 87.98786207059858
870.117 87.45137384701277
902.344 87.67333506959591
931.641 87.20109518974792
966.797 86.69777038845642
999.023 86.23800406318887
1034.18 85.62157291024273
1072.27 85.06732778392059
1110.35 83.920238549812
1148.44 83.77844463971253
1189.45 83.67946076311534
1230.47 83.39945940627024
1274.41 83.05359208816989
1318.36 82.3038481293985
1365.23 81.44735259382432
1415.04 80.34307533659928
1464.84 80.31227738055823
1514.65 80.6638143636992
1570.31 80.19337242241187
1623.05 79.260476897464
1681.64 78.75006952217888
1740.23 79.17956173645675
1801.76 79.00573666308792
1866.21 78.68714149026773
1930.66 78.20464512130135
2000.98 78.9763776472953
2071.29 79.482316284812
2144.53 79.55603531629409
2217.77 79.33919002524848
2296.88 80.43497078089388
2378.91 81.14743303425969
2460.94 81.17382461976564
2548.83 81.59536431700249
2639.65 82.14569614923927
2733.4 82.27317049912844
2827.15 82.5881970063766
2926.76 82.33125998718288
3032.23 81.91573477334143
3137.7 82.2139319516983
3249.02 81.84312730638132
3363.28 81.33791795163043
3483.4 81.53639959283956
3606.45 81.28176530995911
3732.42 81.65869644741423
3864.26 82.2657447462399
3999.02 82.87402719722584
4139.65 83.30440891890669
4286.13 83.82788341542664
4438.48 83.78143623699486
4593.75 83.56560145826778
4757.81 83.35300453196454
4924.8 82.86651025825303
5097.66 82.37353660856922
5279.3 81.9475275077663
5463.87 81.55515889672088
5657.23 81.23386985233253
5856.45 81.22801050088997
6061.52 81.43321159348497
6275.39 81.41429099843607
6498.05 81.30748178042276
6726.56 80.87026190400779
6963.87 80.35068122292141
7209.96 79.83404561232936
7464.84 79.44764981063983
7728.52 79.36313839610304
8000.98 79.43785004905097
8282.23 79.50139753099587
8575.2 79.23936684809618
8876.95 78.83841800506326
9190.43 78.4185119190839
9512.7 78.29658826901452
9849.61 78.45843231870434
10195.3 79.04307890489284
10555.7 79.27108949023587
10927.7 79.73595343294593
11314.5 79.78036082669419
11712.9 79.29111679651638
12126.0 79.7497393687306
12553.7 80.32720735259613
12996.1 80.54665537019031
13453.1 80.69064922675625
13927.7 80.27814810995403
14419.9 78.83398917433114
14929.7 76.67366239360031
15454.1 73.6789302422055
15999.0 69.8322118913861
16564.5 69.30973340882156
17147.5 72.66882975615269
17753.9 76.03406353711489
18377.9 77.52517192930473
19028.3 77.84419667721157
19699.2 77.39095170063835
19998.0 76.85958002195159
