Freq "Side Wall Bounce"
22.4 45.602302320640504
23.0 46.56258877740949
23.6 47.50139211624763
24.0 48.40139211624761
25.0 49.26168078673287
25.8 50.101392116247624
26.5 50.88158184074409
27.2 51.621112437655356
28.0 52.34260029820793
29.0 53.02157071745496
30.0 53.70139211624762
30.7 54.321570717454975
31.5 55.02157071745496
32.5 55.621570717454986
33.5 55.98203378418832
34.5 56.42157071745497
35.5 56.821570717454975
36.5 57.22157071745498
37.5 57.541655996371546
38.7 57.92157071745497
40.0 58.182033784188334
41.2 58.46119474234182
42.5 58.74165599637156
43.7 59.041655996371574
45.0 59.34165599637156
46.2 59.62157071745496
47.5 59.86119474234182
48.7 60.12157071745496
50.0 60.481560540145225
51.5 60.8815605401452
53.0 61.300920977072096
54.5 61.74119983124484
56.0 62.321570717454975
58.0 62.74119983124484
60.0 63.14119983124485
61.5 63.46165938830221
63.0 63.82157071745496
65.0 64.12157071745497
67.0 64.46213480580067
69.0 64.92157071745497
71.0 65.48249620606595
73.0 66.02342518384303
75.0 66.72342518384303
77.5 67.52342518384303
80.0 68.38526041028544
82.5 69.30460439722741
85.0 70.02523667270712
87.5 70.56670626616769
90.0 70.98751894170378
92.5 71.42757995317388
95.0 72.00920611180408
97.5 72.65226959352627
100.0 73.29448290397309
103.0 74.03820413572707
106.0 74.82070188121241
109.0 75.54817140149625
112.0 76.02988465408721
115.0 76.39147205224289
118.0 76.61313953999232
122.0 76.81313953999233
125.0 77.06813431484035
128.0 77.54817140149626
132.0 78.24222438693197
136.0 78.92070188121242
140.0 79.42070188121241
145.0 79.8254542095587
150.0 79.87161637108521
155.0 79.77323115455687
160.0 79.76562387026682
165.0 79.9817344881891
170.0 80.50524571781295
175.0 81.12494858827161
180.0 81.6249485882716
185.0 81.91108114487322
190.0 81.95448951060213
195.0 81.89131511707565
200.0 81.67604918841145
206.0 81.44340895570862
212.0 81.27592791832626
218.0 81.36420507912312
224.0 81.59037146704556
230.0 81.53558189513117
236.0 81.10524571781296
240.0 80.44340895570862
250.0 79.78918864511192
258.0 79.59612934779149
265.0 79.71033983344402
272.0 79.49153686776012
280.0 78.60214850675277
290.0 77.30852650963965
300.0 76.15100773976944
307.0 75.54164491548582
315.0 75.57394345772201
325.0 75.59425817254555
335.0 75.30171217257026
345.0 75.29240190627704
355.0 75.79617617844868
365.0 76.43802143401503
375.0 77.07782328268591
387.0 77.65545334623162
400.0 78.12349640506972
412.0 78.30893290202914
425.0 78.43296664249442
437.0 78.66955131770361
450.0 78.96131649590545
462.0 79.25851069358215
475.0 79.46761323152172
487.0 79.42832561213234
500.0 78.90435838383766
515.0 78.1068094508601
530.0 77.86198740852936
545.0 78.14833363648243
560.0 78.1852650467368
580.0 78.44975948905893
600.0 79.08706158663573
615.0 79.13864474510352
630.0 79.23327977716549
650.0 79.13880608747155
670.0 78.97805388344055
690.0 79.05171291438016
710.0 78.73784783595262
730.0 78.31596772135715
750.0 77.87894915185915
775.0 77.23229379481282
800.0 76.63956064836403
825.0 77.07780832057784
850.0 76.96325672615856
875.0 76.96713343927917
900.0 76.78744667200688
925.0 76.46462812195107
950.0 76.34655144130407
975.0 77.1196970834472
1000.0 78.48583810024171
1030.0 79.58388270452218
1060.0 80.46339169581283
1090.0 80.49179870243877
1120.0 79.20115074579518
1150.0 78.01739826824699
1180.0 77.66544887901935
1220.0 76.88084755181745
1250.0 74.70858310455323
1280.0 72.77312398598359
1320.0 71.7638859674292
1360.0 72.22650889389912
1400.0 73.95805832026262
1450.0 75.31801130680745
1500.0 76.06583766668818
1550.0 77.65806159752866
1600.0 78.24698513524352
1650.0 78.55997403556252
1700.0 78.44815381088968
1750.0 79.93316692187477
1800.0 80.97913641005375
1850.0 81.2968909298258
1900.0 81.7937035368736
1950.0 81.73013772982388
2000.0 81.8221533031227
2060.0 82.8371527982478
2120.0 83.68463660091233
2180.0 83.7867600322504
2240.0 83.68875179001503
2300.0 83.04705017215352
2360.0 81.97134734897097
2400.0 81.88937079068945
2500.0 82.17035645768742
2580.0 80.24214214279336
2650.0 79.64148120267112
2720.0 79.36119421259772
2800.0 79.44319723343962
2900.0 79.34028699201396
3000.0 79.31270172245569
3070.0 77.91761265048162
3150.0 77.3346187785648
3250.0 76.13585983529951
3350.0 75.8494064877464
3450.0 75.48559510014078
3550.0 75.36315020674712
3650.0 74.67183536344767
3750.0 73.2602971228914
3870.0 73.39773289043958
4000.0 74.41573417695992
4120.0 74.45671359552986
4250.0 72.88265038732212
4370.0 71.81014155076778
4500.0 73.70341680006335
4620.0 76.55692211564211
4750.0 77.07635960919316
4870.0 77.20715262103951
5000.0 75.72834145573752
5150.0 74.4177431976032
5300.0 73.82376071991465
5450.0 73.61306701053083
5600.0 72.5001406174928
5800.0 72.0474589916469
6000.0 74.0583536609131
6150.0 73.38287858058571
6300.0 70.4586402092944
6500.0 70.14755919694238
6700.0 68.95017068862535
6900.0 71.15664251683958
7100.0 73.93560129111232
7300.0 73.95144270740509
7500.0 76.0042338554225
7750.0 77.58205834322061
8000.0 74.56446741014638
8250.0 72.97914910516094
8500.0 72.38997968415917
8750.0 67.16689239577816
9000.0 70.41043285812451
9250.0 72.1490551891447
9500.0 71.41847468417039
9750.0 71.43105700398684
10000.0 70.37561888908404
10300.0 70.84524886557251
10600.0 69.77558260520554
10900.0 70.48595528795492
11200.0 71.40730011442847
11500.0 71.22660313308387
11800.0 74.29062520953896
12200.0 70.39874727518385
12500.0 71.10167850401507
12800.0 70.95838965780176
13200.0 67.54267722140362
13600.0 65.36095847048713
14000.0 65.86335010279198
14500.0 71.56531509909968
15000.0 69.65973419921728
15500.0 71.85554733655394
16000.0 74.53011053545113
16500.0 68.63341053968854
17000.0 61.969379383797374
17500.0 65.29225575845992
18000.0 64.60703101497393
18500.0 59.887345437672465
19000.0 60.5492358632721
19500.0 64.96601073672322
