Freq "Estimated In-Room Response"
22.4 32.40784486918511
23.0 32.111756517094676
23.6 32.773001566654955
24.0 34.418652123843145
25.0 36.42149690895084
25.8 38.60221420947266
26.5 40.96922682270636
27.2 44.019205107493036
28.0 45.983877138251955
29.0 47.71899371121455
30.0 49.35073306650898
30.7 50.698012119313006
31.5 52.0243434171156
32.5 53.456777309247315
33.5 55.06766298058062
34.5 56.77457176136912
35.5 57.99740191155922
36.5 59.19523960090686
37.5 60.157955833898754
38.7 61.194551397559195
40.0 62.55293667844819
41.2 63.701380929233835
42.5 64.68221677949762
43.7 65.60873362300067
45.0 66.33883754881685
46.2 67.42441715178992
47.5 68.29603817077957
48.7 69.07018396185127
50.0 69.79345557027268
51.5 70.49082512178289
53.0 71.20763481324047
54.5 71.85223172261142
56.0 72.45081436328884
58.0 73.090420161964
60.0 73.56967431395395
61.5 74.07316253790191
63.0 74.56600615276041
65.0 75.0451949180145
67.0 75.44360551653006
69.0 75.8650401679679
71.0 76.30087155836449
73.0 76.59846253802982
75.0 76.95159731415583
77.5 77.27832060237476
80.0 77.48528443029191
82.5 77.71233474709187
85.0 77.87225897417841
87.5 77.93369831785473
90.0 77.94235780518365
92.5 77.88342061059865
95.0 77.75295528037904
97.5 77.563077330857
100.0 77.3817844540858
103.0 77.19231897009773
106.0 77.12365682079034
109.0 77.11282734118345
112.0 77.26423748097048
115.0 77.49206601888125
118.0 77.78655251771043
122.0 78.10424181878845
125.0 78.46809177972446
128.0 78.83832196636662
132.0 79.24250125644382
136.0 79.64521926298933
140.0 79.96806550451
145.0 80.1781706276331
150.0 80.24603651309371
155.0 80.2194743289181
160.0 80.16530816400244
165.0 80.069437079196
170.0 79.92922276952515
175.0 79.73746053068089
180.0 79.39856597473793
185.0 79.0690765822511
190.0 78.77435786775283
195.0 78.57493850586104
200.0 78.47841946648283
206.0 78.45915029361697
212.0 78.46876085927767
218.0 78.52619979798165
224.0 78.64934244662376
230.0 78.74952007277334
236.0 78.76916762382444
240.0 78.64058777341087
250.0 78.34458177277799
258.0 78.0331510144891
265.0 77.87175512184504
272.0 77.80184064349694
280.0 77.5887856363239
290.0 77.15244224393552
300.0 76.76892208911002
307.0 76.56677310133192
315.0 76.44521405628154
325.0 76.30038164339396
335.0 76.04673426341908
345.0 75.61460785373046
355.0 75.2362064443499
365.0 75.03846781921841
375.0 74.86983261292617
387.0 74.65809746169177
400.0 74.56629205283647
412.0 74.581542985193
425.0 74.62260875053286
437.0 74.8128843995264
450.0 75.16050109671622
462.0 75.57066300916398
475.0 75.98225374467863
487.0 76.3102390910622
500.0 76.56144140149858
515.0 76.68671139600667
530.0 76.681220882506
545.0 76.4919226621393
560.0 76.27523704170036
580.0 76.08194859389702
600.0 75.84825280288067
615.0 75.62141882982073
630.0 75.38574183535582
650.0 75.20577905507659
670.0 75.12179847629172
690.0 75.1285035445589
710.0 75.1215499741557
730.0 75.1236345182729
750.0 75.17599641042491
775.0 75.26082125179155
800.0 75.39363270778387
825.0 75.54269717736327
850.0 75.69669806780966
875.0 75.66859008455071
900.0 75.62175067506129
925.0 75.50286933582599
950.0 75.23507988467824
975.0 75.05699343424713
1000.0 74.72728251216694
1030.0 74.27460167207538
1060.0 73.79428342036724
1090.0 73.55865460874244
1120.0 73.34572232467254
1150.0 73.30130420441944
1180.0 73.4485874170719
1220.0 73.57872893937164
1250.0 73.71695616445479
1280.0 73.89083563518409
1320.0 74.1351337107675
1360.0 74.39319731798606
1400.0 74.77303200609819
1450.0 75.08825583463661
1500.0 75.45979431815671
1550.0 75.70087913117463
1600.0 75.90760280232615
1650.0 75.96838260164608
1700.0 75.89367317535769
1750.0 75.76289110576393
1800.0 75.45452121018546
1850.0 75.03323168597231
1900.0 74.43309733545149
1950.0 73.8165227639003
2000.0 73.13615788911642
2060.0 72.66059042567781
2120.0 72.3298380157553
2180.0 72.13592052833039
2240.0 72.03780236764615
2300.0 71.9794113450781
2360.0 72.0885831538207
2400.0 72.34380568150303
2500.0 72.74290573788784
2580.0 73.15926206214715
2650.0 73.33399426888279
2720.0 73.30572712534762
2800.0 73.21151977573564
2900.0 73.16376095712599
3000.0 73.29877152331659
3070.0 73.57454910679553
3150.0 73.76185850238127
3250.0 73.83932157143353
3350.0 73.9606607494028
3450.0 74.21625954851044
3550.0 74.73880189002277
3650.0 75.2250518294016
3750.0 75.54371781609538
3870.0 75.64687030140927
4000.0 75.75356847704863
4120.0 75.86806772519574
4250.0 75.83129934376392
4370.0 75.63346418313121
4500.0 75.3183146648629
4620.0 75.03736958403313
4750.0 74.86227266109157
4870.0 74.67595294689886
5000.0 74.26806737492187
5150.0 73.78157529931177
5300.0 73.48258284758728
5450.0 73.52329346702075
5600.0 73.91224254243306
5800.0 74.58454373552127
6000.0 75.39309111672524
6150.0 76.10356187645793
6300.0 76.70943012989842
6500.0 76.87967527716734
6700.0 76.75394377027604
6900.0 76.5870327835019
7100.0 76.31958569644345
7300.0 75.67794841356682
7500.0 74.71253789783235
7750.0 73.88590895646645
8000.0 73.31727648524017
8250.0 72.9830583601734
8500.0 72.57392737047263
8750.0 71.94013942339913
9000.0 71.32664845509643
9250.0 70.9765270771122
9500.0 70.77544304663203
9750.0 70.63029682062061
10000.0 70.50328309391115
10300.0 69.78507883923915
10600.0 68.99189095138611
10900.0 68.66422035029105
11200.0 68.11144523154023
11500.0 68.12405181220521
11800.0 67.496365962653
12200.0 66.36028754293827
12500.0 65.38716891923077
12800.0 65.39522614205369
13200.0 65.05680810891245
13600.0 64.9856264479711
14000.0 65.42134834723086
14500.0 65.37416291530559
15000.0 66.12788861448033
15500.0 67.37956508515255
16000.0 67.47275280068793
16500.0 66.8612206925748
17000.0 66.90233352661383
17500.0 66.29801829427097
18000.0 65.54900485271655
18500.0 64.5867615178949
19000.0 63.45072371812067
19500.0 61.70932080466446
