Freq "Early Reflections"
22.4 53.46141446596506
23.0 54.18516210379347
23.6 54.922100777584504
24.0 55.72097988928964
25.0 56.52827851882121
25.8 57.27294528019736
26.5 57.99086452101464
27.2 58.79931502787484
28.0 59.60628239663528
29.0 60.38647427559887
30.0 61.16469233142003
30.7 61.3829205008761
31.5 62.1105007595702
32.5 62.83034661613742
33.5 63.65728837326448
34.5 64.47035581608229
35.5 65.27331178730411
36.5 66.15902888226006
37.5 66.99515928107377
38.7 67.8679463080749
40.0 68.7957672204534
41.2 69.6644392908991
42.5 70.57083273818782
43.7 71.49331930560037
45.0 72.39318881435817
46.2 73.32965600831172
47.5 74.32057638835595
48.7 75.21857967852169
50.0 76.05429949820062
51.5 76.87274924204458
53.0 77.6490965200633
54.5 78.39615524458563
56.0 79.07287113598962
58.0 79.72174889704316
60.0 80.25764890817221
61.5 80.77328011859612
63.0 81.21259491748195
65.0 81.59671175001878
67.0 81.93533878703765
69.0 82.22377750957801
71.0 82.49509618514824
73.0 82.711367977747
75.0 82.95631644461997
77.5 83.1556147957889
80.0 83.31791783977945
82.5 83.49654031617412
85.0 83.63407587423804
87.5 83.80173506096486
90.0 83.94328719588746
92.5 84.07597109445408
95.0 84.18197964069189
97.5 84.28769164157661
100.0 84.38372889241754
103.0 84.46400383656835
106.0 84.54162089556822
109.0 84.58725402484554
112.0 84.65521801670947
115.0 84.67244437963106
118.0 84.68394611465474
122.0 84.68047836597587
125.0 84.6192975251312
128.0 84.55932351246783
132.0 84.45412238959388
136.0 84.31372669483518
140.0 84.18970468624043
145.0 84.02622568897657
150.0 83.84183543402428
155.0 83.6774958829708
160.0 83.48302013026404
165.0 83.30410757611875
170.0 83.1720902543578
175.0 83.04483304581487
180.0 82.95161517367794
185.0 82.92102441972021
190.0 82.88649363496974
195.0 82.8985121394882
200.0 82.89389124647462
206.0 82.89480691846495
212.0 82.8424845580957
218.0 82.7969086856191
224.0 82.74575565124861
230.0 82.72359217321903
236.0 82.7772806552074
240.0 82.91433198849997
250.0 83.14353513370749
258.0 83.3842457397178
265.0 83.59802195269249
272.0 83.72850033805268
280.0 83.72018404237343
290.0 83.56337817784399
300.0 83.31370709393474
307.0 83.03309408841154
315.0 82.81122089588813
325.0 82.66966774359015
335.0 82.54274047105453
345.0 82.3638226649686
355.0 82.09505316445362
365.0 81.73589620727529
375.0 81.3384030892796
387.0 80.98334904686821
400.0 80.66011578913336
412.0 80.38483549232829
425.0 80.14097272723386
437.0 80.06455679056829
450.0 80.16019327751543
462.0 80.26943681647096
475.0 80.15957267823767
487.0 80.0171350961821
500.0 79.96958418871468
515.0 80.13970928129179
530.0 80.31526607415634
545.0 80.363643803728
560.0 80.35440329356909
580.0 80.7514383266816
600.0 81.32189467366305
615.0 81.78857178285594
630.0 81.89931066109018
650.0 81.80676571818768
670.0 81.49343437813518
690.0 81.2452266819475
710.0 81.10912392248115
730.0 80.89710983297769
750.0 80.46697892005035
775.0 80.09004434693486
800.0 79.7253562502726
825.0 79.24617336984964
850.0 79.04471115068665
875.0 78.75782191979191
900.0 78.33112444342
925.0 78.40466855223032
950.0 78.55456129163521
975.0 78.42928962690625
1000.0 78.3578428575517
1030.0 78.0968078710986
1060.0 77.80278776928373
1090.0 77.84928812849837
1120.0 78.05244338781327
1150.0 78.61460535603857
1180.0 79.18922800702364
1220.0 79.16461305760959
1250.0 79.02892030004315
1280.0 79.39992233718596
1320.0 79.83643719808835
1360.0 79.51205694736029
1400.0 78.95689030930978
1450.0 78.75228432824848
1500.0 78.78541807714032
1550.0 78.5235409126387
1600.0 77.97862550124992
1650.0 77.74863811845111
1700.0 78.3436038714564
1750.0 78.02265484092611
1800.0 77.79813353247503
1850.0 78.23969343221789
1900.0 78.14151037768835
1950.0 77.88878844742402
2000.0 78.04800612311949
2060.0 78.39430455461486
2120.0 78.3906213886144
2180.0 78.21744528934424
2240.0 78.52068833319034
2300.0 78.07321504683483
2360.0 77.8142305191581
2400.0 77.44013559213207
2500.0 77.16617550401307
2580.0 76.9135321635378
2650.0 76.79546559979129
2720.0 76.91944871787054
2800.0 77.14064916019072
2900.0 77.29661944825855
3000.0 77.21935656964226
3070.0 76.69709581728311
3150.0 76.16598354086527
3250.0 75.88888925954278
3350.0 75.7748405637136
3450.0 75.95813038176053
3550.0 76.09722652771704
3650.0 76.03706133758647
3750.0 76.18742684869835
3870.0 75.93510131998981
4000.0 75.35291737011086
4120.0 75.5751502298738
4250.0 76.31057685344143
4370.0 76.7600047106169
4500.0 76.8270435037582
4620.0 76.76547110391977
4750.0 77.02726162416603
4870.0 77.36052776613856
5000.0 77.31047903633898
5150.0 76.59829688251288
5300.0 75.55397346004902
5450.0 75.43376941807178
5600.0 75.22717832623194
5800.0 75.21045179951307
6000.0 75.65874659841559
6150.0 76.1775845812092
6300.0 77.13926603108025
6500.0 77.51539999742873
6700.0 76.84087840298555
6900.0 76.44724730761745
7100.0 76.34768375294924
7300.0 76.41959625053643
7500.0 76.13571949396236
7750.0 75.43158007389711
8000.0 76.53632815000766
8250.0 76.86738446168498
8500.0 77.76331332433148
8750.0 78.0247412529802
9000.0 78.44605671896662
9250.0 79.01251028767986
9500.0 78.68759442714858
9750.0 77.93545393927333
10000.0 77.89203350692229
10300.0 78.80867725655595
10600.0 78.00511522299406
10900.0 78.13242056617949
11200.0 78.35274491041504
11500.0 78.31208327821346
11800.0 79.5307375235336
12200.0 78.95014803487175
12500.0 79.30817247512897
12800.0 79.89642210448024
13200.0 79.22392507059836
13600.0 78.27961022351877
14000.0 77.95560980988297
14500.0 76.01638064266484
15000.0 77.02228757212318
15500.0 81.94695156096
16000.0 77.65760875809865
16500.0 72.96406024308203
17000.0 72.97037538484079
17500.0 71.6879595620284
18000.0 71.67119273451122
18500.0 69.78792393050844
19000.0 70.32300639283297
19500.0 71.50443175427186
