Freq "Listening Window"
22.4 53.400143374326134
23.0 54.133305717515
23.6 54.844559644024244
24.0 55.64455964402423
25.0 56.44455964402424
25.8 57.211225648628854
26.5 57.93330571751501
27.2 58.733305717514995
28.0 59.533305717515006
29.0 60.33330571751502
30.0 61.11122564862886
30.7 61.900654398724456
31.5 62.72304525889551
32.5 63.47840136039049
33.5 64.33406932017841
34.5 65.16748360626917
35.5 65.96748360626917
36.5 66.86748360626915
37.5 67.7455770573139
38.7 68.60141213385744
40.0 69.52379909777561
41.2 70.41249117515328
42.5 71.31249117515328
43.7 72.24607125318052
45.0 73.14607125318052
46.2 74.05654414431962
47.5 75.071029273723
48.7 75.95931595201385
50.0 76.78193235548483
51.5 77.61498179879497
53.0 78.38210579078526
54.5 79.11618424229785
56.0 79.79323412985002
58.0 80.43823321139509
60.0 80.97068864313276
61.5 81.47068864313275
63.0 81.93823321139509
65.0 82.32696285787098
67.0 82.67068864313276
69.0 82.98236532773198
71.0 83.23823321139507
73.0 83.48236532773197
75.0 83.69349300263174
77.5 83.89349300263174
80.0 84.08236532773199
82.5 84.2602789977014
85.0 84.39228425922259
87.5 84.57024844305056
90.0 84.70241083486914
92.5 84.8590609733149
95.0 84.97024844305055
97.5 85.08042647053519
100.0 85.18042647053518
103.0 85.28042647053518
106.0 85.38042647053518
109.0 85.42582668864752
112.0 85.50318590484487
115.0 85.54835005263831
118.0 85.55956511222708
122.0 85.55956511222708
125.0 85.51426042786092
128.0 85.49155910800184
132.0 85.4142604278609
136.0 85.3142604278609
140.0 85.1918121858787
145.0 85.04834409857672
150.0 84.90343830611528
155.0 84.73709998720021
160.0 84.60342066593232
165.0 84.44834409857674
170.0 84.37075128504215
175.0 84.29306034256244
180.0 84.23759514858342
185.0 84.23759514858342
190.0 84.27175706093271
195.0 84.31627488785448
200.0 84.37175706093274
206.0 84.39482064758306
212.0 84.4059164953357
218.0 84.39482064758306
224.0 84.39482064758306
230.0 84.39508545335188
236.0 84.48421538414505
240.0 84.62959415976574
250.0 84.88396186317688
258.0 85.16208626513195
265.0 85.38396186317688
272.0 85.52959415976575
280.0 85.5398677979144
290.0 85.37228341683873
300.0 85.09410784033935
307.0 84.82736876575869
315.0 84.6173002856934
325.0 84.49459680390515
335.0 84.39459680390515
345.0 84.26284021391629
355.0 84.00821256258679
365.0 83.68700056881839
375.0 83.32186687881527
387.0 82.98984878091402
400.0 82.71390891311432
412.0 82.50711127782354
425.0 82.32281714236201
437.0 82.3067210950754
450.0 82.44449089741414
462.0 82.53513218231932
475.0 82.42010417617499
487.0 82.23192359009413
500.0 82.18862831230317
515.0 82.40434400342873
530.0 82.57316178574145
545.0 82.53092114117665
560.0 82.35286172479128
580.0 82.54056494335525
600.0 82.92545373830502
615.0 83.20019470362031
630.0 83.12412546185354
650.0 82.8322877099017
670.0 82.40119800313583
690.0 82.22074354821949
710.0 82.31392532503696
730.0 82.22395092088246
750.0 81.95376144852843
775.0 81.77735370143284
800.0 81.49192250889264
825.0 81.19753072754068
850.0 81.30920733151717
875.0 81.2162648674166
900.0 80.7734045284917
925.0 81.01180490617236
950.0 81.3318886042882
975.0 81.4423438385661
1000.0 81.65688870424623
1030.0 81.33909218464471
1060.0 81.19768903279682
1090.0 81.59868080597502
1120.0 82.03889280433775
1150.0 82.7060558901199
1180.0 83.3841502324323
1220.0 83.47587029625471
1250.0 83.27499080700332
1280.0 83.81082644199522
1320.0 84.53156525899072
1360.0 84.29912141326813
1400.0 83.62293824887233
1450.0 83.32896162898268
1500.0 83.40327499214304
1550.0 83.33280885813164
1600.0 83.01774381163949
1650.0 82.96699124625198
1700.0 83.5347438309344
1750.0 83.1074990085847
1800.0 82.81946505297401
1850.0 83.14558090777724
1900.0 83.01596974478925
1950.0 82.72078286721892
2000.0 82.82144124768823
2060.0 83.07962494802868
2120.0 83.00503802380254
2180.0 82.82902168269158
2240.0 83.15795228235835
2300.0 82.72842494773592
2360.0 82.49877606699803
2400.0 82.20581538256128
2500.0 81.98019400879721
2580.0 81.81188150069238
2650.0 81.69134233492966
2720.0 81.798545839962
2800.0 81.95365659877274
2900.0 82.09586040428285
3000.0 82.00062653334219
3070.0 81.50648884311418
3150.0 81.08520588723435
3250.0 80.92820795607187
3350.0 80.89568413044036
3450.0 81.17594733146753
3550.0 81.36963507990042
3650.0 81.2560192288768
3750.0 81.35496516447421
3870.0 81.11909809131637
4000.0 80.61306833176538
4120.0 80.93590441773965
4250.0 81.76605162033748
4370.0 82.2364916281161
4500.0 82.32083475491591
4620.0 82.21295362389787
4750.0 82.41650542026694
4870.0 82.75512759287373
5000.0 82.76928963361787
5150.0 82.1294518601074
5300.0 81.02402563918069
5450.0 80.84154503454886
5600.0 80.61344740632568
5800.0 80.62155219194868
6000.0 81.14911149750874
6150.0 81.7261417713863
6300.0 82.66739706846782
6500.0 83.0928281387301
6700.0 82.4961567190703
6900.0 82.14831234625362
7100.0 82.07722489886997
7300.0 82.17449881375445
7500.0 81.7704514133424
7750.0 81.07162751182375
8000.0 82.25065074936578
8250.0 82.60690652210216
8500.0 83.48046003077492
8750.0 83.8095087277939
9000.0 84.28459447972908
9250.0 84.65907523480342
9500.0 83.9330957330147
9750.0 83.0459218199685
10000.0 82.91357782256732
10300.0 83.64751192560401
10600.0 82.67471195729097
10900.0 82.922572811226
11200.0 83.48871122780587
11500.0 83.6520352250168
11800.0 85.03445812881924
12200.0 85.08755750442477
12500.0 85.24531871074797
12800.0 85.83509124722626
13200.0 85.00370264312312
13600.0 83.75032305502432
14000.0 83.19595714747273
14500.0 80.86935373634817
15000.0 81.71139508858106
15500.0 86.8654786499703
16000.0 82.6756384318281
16500.0 79.65538697235068
17000.0 79.12492057703751
17500.0 78.62743000137773
18000.0 78.57078608123393
18500.0 76.37469063902024
19000.0 76.55950512560757
19500.0 76.35837826106824
