Freq "Side Wall Bounce"
22.4 -8.943078675524802
23.0 -6.615882406706035
23.6 -4.192516512750345
24.0 -1.8130552039827563
25.0 0.24767695350276142
25.8 2.1591419982106714
26.5 3.69426138688884
27.2 2.168892721291101
28.0 1.2495588493244867
29.0 0.4604453255087009
30.0 0.3504566361382757
30.7 3.4223045554966376
31.5 6.6849199596323245
32.5 10.592169315602277
33.5 12.664498570049957
34.5 13.522448541728195
35.5 13.946416265846224
36.5 14.285217977160798
37.5 14.796128400587563
38.7 15.403929678655786
40.0 16.74940559080038
41.2 17.913225663271973
42.5 19.603648019611697
43.7 21.584791320273
45.0 24.80575841592777
46.2 30.366197793138312
47.5 33.598632785565414
48.7 33.43611776233864
50.0 34.71096012829203
51.5 36.28166545569057
53.0 37.458375819288776
54.5 37.664836464863455
56.0 38.52808989805139
58.0 39.0689599562909
60.0 40.98664903010321
61.5 44.15429760265117
63.0 46.46392338406544
65.0 48.21293220980222
67.0 50.09609597562674
69.0 51.69227177460637
71.0 53.19233568017863
73.0 54.914954490197445
75.0 56.57784625215281
77.5 58.19319306109668
80.0 59.649931607958706
82.5 60.9825756194447
85.0 62.43149678271536
87.5 63.821920471265884
90.0 65.12457628009072
92.5 66.1863606964899
95.0 67.52716250485938
97.5 69.00660909626438
100.0 70.02299836313814
103.0 71.03578875859137
106.0 71.85509814013882
109.0 72.68271291005681
112.0 73.45970573251853
115.0 74.13725704434319
118.0 74.79285514438187
122.0 75.5220138557881
125.0 76.25969577964744
128.0 76.88202907802918
132.0 77.42446936146345
136.0 77.90227017129936
140.0 78.2841875890533
145.0 78.40691155538185
150.0 78.59187933934412
155.0 78.50909764670199
160.0 78.3841875890533
165.0 78.2841875890533
170.0 78.25173061676617
175.0 78.06910851874456
180.0 77.95173061676617
185.0 77.91431737681275
190.0 77.86910851874457
195.0 77.85173061676618
200.0 77.77940338926875
206.0 77.93688464551714
212.0 78.14454127010612
218.0 78.26910851874455
224.0 78.24454127010611
230.0 78.3018373182169
236.0 78.37745503330474
240.0 78.33725704434319
250.0 78.4372570443432
258.0 78.59285514438189
265.0 78.84657925221912
272.0 78.98060007782728
280.0 78.95153631355072
290.0 78.96385203250445
300.0 78.86385203250445
307.0 78.72851997340489
315.0 78.40087529089871
325.0 78.05509814013881
335.0 77.74454127010613
345.0 77.5841875890533
355.0 77.46910851874456
365.0 77.25432193465899
375.0 76.97050952978636
387.0 76.78204584418486
400.0 76.78748430179782
412.0 76.77436390364754
425.0 76.77436390364754
437.0 76.75778973918217
450.0 76.75778973918217
462.0 76.90111029491155
475.0 76.98748430179782
487.0 77.02745355433875
500.0 77.05101033092392
515.0 76.88463808338925
530.0 76.3746029580601
545.0 75.96420507912312
560.0 75.83510076453949
580.0 75.81373807212785
600.0 75.97853377720853
615.0 76.31420062979392
630.0 76.59997789777647
650.0 76.47501532576565
670.0 76.12147870644374
690.0 76.04264277929438
710.0 75.45825509018962
730.0 74.61212749231673
750.0 74.64344477805375
775.0 74.96363863269248
800.0 75.31940697193485
825.0 75.70515260167781
850.0 75.99868214170432
875.0 75.94282278198426
900.0 75.549793997015
925.0 75.05413565097157
950.0 74.51011362321718
975.0 74.49265702797922
1000.0 74.42710184492952
1030.0 75.06995250819807
1060.0 74.94446129141602
1090.0 74.36707349370243
1120.0 73.91544194725037
1150.0 73.78418833808169
1180.0 74.34684282705385
1220.0 74.5273286327623
1250.0 74.65282230803788
1280.0 73.92557367978887
1320.0 73.70606673141457
1360.0 74.62080598206477
1400.0 74.5274047458834
1450.0 74.52735308513482
1500.0 74.06437724164704
1550.0 73.8633082595983
1600.0 74.66733420997807
1650.0 74.76925507758489
1700.0 74.40472607510945
1750.0 74.00797717857112
1800.0 74.4105310099515
1850.0 74.59945949455351
1900.0 74.88545282205061
1950.0 75.67282937830807
2000.0 75.8879685960693
2060.0 75.01121656950482
2120.0 75.57565487269898
2180.0 76.3470843848456
2240.0 76.00588488068296
2300.0 75.93832759427278
2360.0 76.4792546786685
2400.0 75.82584858071556
2500.0 75.5405172696623
2580.0 75.33101580701974
2650.0 74.54428032819516
2720.0 74.80441500994759
2800.0 73.3641700850842
2900.0 73.45287074613623
3000.0 72.8346659449121
3070.0 72.50556579443067
3150.0 72.89467614475163
3250.0 73.25334950078414
3350.0 72.94793709439125
3450.0 72.67101965387602
3550.0 73.35199959308726
3650.0 72.60471767344677
3750.0 71.90895766930838
3870.0 71.79609887709866
4000.0 71.5870307718511
4120.0 72.83164668893755
4250.0 72.76608776324977
4370.0 72.39778988662299
4500.0 71.80063006760668
4620.0 71.96210697062776
4750.0 71.14279490440994
4870.0 71.78457352267074
5000.0 71.6187772544683
5150.0 71.56947237058763
5300.0 72.24172052750323
5450.0 73.66968255351533
5600.0 73.70494159127323
5800.0 74.0040760505002
6000.0 72.65556295699702
6150.0 72.77226177809483
6300.0 73.14789015994691
6500.0 72.56188533541426
6700.0 71.78307345213263
6900.0 72.29732177459148
7100.0 73.83375266497453
7300.0 73.24662129316444
7500.0 73.56126031985823
7750.0 73.59278974099213
8000.0 73.90470152595627
8250.0 74.10732771398041
8500.0 73.5330260969914
8750.0 72.36805062541487
9000.0 72.6367732293216
9250.0 71.89105201665917
9500.0 71.66839175540352
9750.0 71.72508586070941
10000.0 72.63731576277787
10300.0 73.65841809119307
10600.0 74.0174792928684
10900.0 73.21565885060096
11200.0 72.82985076688301
11500.0 72.76313874394005
11800.0 73.37284424708804
12200.0 73.28745479669816
12500.0 73.12291074989156
12800.0 72.20709724401337
13200.0 70.44058631931534
13600.0 71.01252339766765
14000.0 70.93188519971363
14500.0 72.52921479123022
15000.0 73.28929362779823
15500.0 72.76619681426946
16000.0 71.40610909835651
16500.0 70.55242884565985
17000.0 70.21134273148198
17500.0 70.13120161279004
18000.0 70.09662763826007
18500.0 69.82391536306987
19000.0 68.08882244211675
19500.0 65.82895891751708
