Freq,On Axis,Listening Window,Sound Power,Early Reflections,Early Reflections DI,Sound Power DI,DI offset
22.4,58.629113924050614,58.3336778259754,59.74616855153458,59.04129689787658,29.292380928098822,28.58750927444082,30
23.0,59.029113924050606,58.733677825975406,60.159845022062726,59.44688813435245,29.286789691622957,28.57383280391268,30
23.6,59.42911392405061,59.13367782597541,60.58860761658025,59.86410499747119,29.269572828504224,28.545070209395163,30
24.0,59.8291139240506,59.57497508821227,60.98245588798494,60.26124296148602,29.31373212672625,28.59251920022733,30
25.0,60.22911392405061,59.97497508821226,61.3827146944153,60.667791497021994,29.307183591190267,28.592260393796963,30
25.8,60.629113924050614,60.37497508821227,61.75111075667026,61.030662312906,29.344312775306264,28.62386433154201,30
26.5,61.02911392405059,60.73850861257907,62.10741977875544,61.40193355909358,29.33657505348549,28.631088833823625,30
27.2,61.42911392405061,61.162478091135796,62.53004203737201,61.81126302631009,29.35121506482571,28.632436053763783,30
28.0,61.8291139240506,61.56247809113577,62.91478242664205,62.2012531622761,29.36122492885967,28.647695664493725,30
29.0,62.22911392405061,61.98016191466672,63.30116961305373,62.59131477890655,29.388847135760173,28.678992301612993,30
30.0,62.629113924050614,62.38016191466673,63.68638981877507,62.97689384109343,29.4032680735733,28.69377209589166,30
30.7,63.029113924050606,62.78016191466672,64.08394357688462,63.388521662719626,29.391640251947095,28.6962183377821,30
31.5,63.52911392405059,63.19204879268628,64.49298839502706,63.79364753717144,29.39840125551484,28.699060397659224,30
32.5,63.8291139240506,63.58016191466672,64.88071693978434,64.18555325452029,29.39460866014643,28.699444974882383,30
33.5,64.3291139240506,63.99204879268629,65.29411841570295,64.5911815778098,29.400867214876484,28.697930376983336,30
34.5,64.72911392405061,64.4100211343615,65.69700978461915,64.9922501375661,29.417770996795397,28.713011349742345,30
35.5,65.12911392405061,64.8100211343615,66.0861652544904,65.38899802957665,29.42102310478485,28.72385587987111,30
36.5,65.5291139240506,65.2100211343615,66.38989789612619,65.73653664205972,29.47348449230178,28.82012323823531,30
37.5,65.8291139240506,65.58603646020572,66.6834786784271,66.06381266792526,29.522223792280457,28.902557781778626,30
38.7,66.22911392405061,65.95128249534646,66.98391847460042,66.3968464902177,29.554436005128764,28.967364020746047,30
40.0,66.62911392405061,66.32833543429945,67.29332524306662,66.71947396362299,29.60886147067646,29.03501019123283,30
41.2,66.92911392405061,66.71654759538987,67.62331583359362,67.08519555719427,29.6313520381956,29.093231761796247,30
42.5,67.3291139240506,67.11654759538985,67.96249671044829,67.43244871599552,29.684098879394327,29.154050884941555,30
43.7,67.72911392405061,67.46984564794994,68.3163985887682,67.80542223238231,29.664423415567626,29.153447059181744,30
45.0,68.12911392405061,67.86984564794994,68.65636120207495,68.16969952985309,29.700146118096853,29.213484445874997,30
46.2,68.52911392405059,68.24699671866998,69.02123365823694,68.5406597573182,29.70633696135178,29.22576306043304,30
47.5,68.92911392405061,68.64699671866997,69.35908693493063,68.90183800092673,29.745158717743237,29.287909783739337,30
48.7,69.3291139240506,69.06601003126214,69.65635683217799,69.24871032871982,29.817299702542314,29.409653199084147,30
50.0,69.72911392405061,69.48875940807119,69.96441882638476,69.6029020455042,29.885857362566995,29.52434058168643,30
51.5,70.12911392405061,69.908028830809,70.2924711803276,69.97756425049154,29.930464580317462,29.615557650481406,30
53.0,70.5291139240506,70.30802883080902,70.6223416020257,70.33801400499108,29.97001482581794,29.685687228783323,30
54.5,70.92911392405063,70.71880183508902,70.97282506462886,70.71768409586028,30.001117739228746,29.74597677046016,30
56.0,71.3291139240506,71.11880183508902,71.31416713520177,71.08807841500631,30.03072342008271,29.804634699887245,30
58.0,71.72911392405061,71.51880183508901,71.67492161973937,71.46820736740759,30.05059446768142,29.843880215349643,30
60.0,72.12911392405061,71.93838346507123,72.00463281249756,71.83524083095296,30.10314263411827,29.933750652573664,30
61.5,72.5291139240506,72.33838346507123,72.31319070563679,72.20173195935737,30.136651505713857,30.025192759434447,30
63.0,72.92911392405061,72.76127763567483,72.62629629024254,72.55983037657069,30.201447259104143,30.134981345432294,30
65.0,73.3291139240506,73.18111976267605,72.96819228985191,72.94277361377155,30.238346148904498,30.212927472824134,30
67.0,73.8291139240506,73.61536796619697,73.31950309205953,73.32952063078085,30.285847335416122,30.295864874137436,30
69.0,74.22911392405061,74.01536796619698,73.65791700712526,73.7009848198858,30.314383146311172,30.357450959071713,30
71.0,74.62911392405061,74.41536796619697,74.00114067471432,74.0811766287406,30.334191337456375,30.414227291482646,30
73.0,75.12911392405061,74.92365187469665,74.38522034115127,74.5214590918915,30.402192782805145,30.538431533545378,30
75.0,75.62911392405061,75.43542047265908,74.79471989549134,74.986886857322,30.44853361533707,30.640700577167735,30
77.5,76.12911392405061,75.92365187469663,75.19607469846032,75.43365179571896,30.490000078977673,30.72757717623631,30
80.0,76.62911392405061,76.42365187469662,75.61623320305688,75.89750103198841,30.526150842708205,30.807418671639738,30
82.5,77.02911392405062,76.88949325299605,76.03011917803349,76.34527613758604,30.544217115410007,30.85937407496256,30
85.0,77.62911392405061,77.42365187469665,76.47740813971527,76.83478838542666,30.588863489269983,30.94624373498138,30
87.5,78.12911392405061,77.98949325299606,76.92016235320722,77.33209311888494,30.657400134111114,31.069330899788838,30
90.0,78.72911392405061,78.50108501443671,77.36846441238401,77.82742226792949,30.67366274650722,31.132620602052697,30
92.5,79.22911392405061,79.00108501443671,77.79747243314574,78.29471052657162,30.70637448786509,31.20361258129097,30
95.0,79.72911392405061,79.50108501443673,78.22604410461675,78.75613817297592,30.744946841460802,31.275040909819978,30
97.5,80.12911392405061,79.97787046914469,78.60178998256312,79.19875332946471,30.779117139679983,31.37608048658157,30
100.0,80.62911392405061,80.42167093386738,78.95418939489224,79.59338982100888,30.82828111285849,31.467481538975136,30
103.0,81.02911392405059,80.83266002596584,79.29998119099618,79.97542136833914,30.857238657626695,31.53267883496966,30
106.0,81.42911392405061,81.23266002596586,79.6248182645843,80.33495404244815,30.89770598351771,31.60784176138155,30
109.0,81.72911392405061,81.55558430846962,79.86749897686106,80.62617870849598,30.929405599973634,31.688085331608562,30
112.0,82.02911392405062,81.85558430846962,80.07541725505936,80.87559725340675,30.979987055062864,31.780167053410253,30
115.0,82.3291139240506,82.12167093386736,80.26734565766817,81.10474702456011,31.016923909307252,31.85432527619919,30
118.0,82.5291139240506,82.32167093386737,80.39506659148061,81.27422129628287,31.047449637584492,31.926604342386753,30
122.0,82.62911392405061,82.39960897806966,80.42252175476834,81.33320268669792,31.06640629137175,31.977087223301325,30
125.0,82.62911392405061,82.45558430846962,80.4158085594832,81.35464141645136,31.100942892018267,32.03977574898643,30
128.0,82.72911392405061,82.47891796692159,80.36792718730865,81.33775289055052,31.141165076371067,32.11099077961293,30
132.0,82.5291139240506,82.34465314246157,80.17661445607663,81.18454818293493,31.160104959526635,32.16803868638493,30
136.0,82.3291139240506,82.15636504463217,79.9374978023073,80.97928653577172,31.177078508860447,32.21886724232486,30
140.0,82.12911392405061,81.88878819960372,79.6085363575587,80.68694852831405,31.201839671289676,32.28025184204502,30
145.0,81.8291139240506,81.58878819960373,79.25343485427312,80.36015735415683,31.2286308454469,32.3353533453306,30
150.0,81.42911392405061,81.22171788626417,78.85145335492732,79.98697147003351,31.234746416230664,32.37026453133686,30
155.0,81.02911392405059,80.82171788626417,78.36624834535151,79.54389975684843,31.277818129415735,32.45546954091266,30
160.0,80.5291139240506,80.32171788626417,77.80809869048073,79.02248606421988,31.29923182204429,32.513619195783434,30
165.0,79.9291139240506,79.77694036984069,77.19590414789994,78.45914154003638,31.317798829804303,32.58103622194075,30
170.0,79.3291139240506,79.23168985418634,76.59133970014364,77.89746783607698,31.334222018109358,32.64035015404271,30
175.0,78.8291139240506,78.73168985418633,76.00212813571419,77.37707144435255,31.354618409833776,32.72956171847214,30
180.0,78.42911392405063,78.29732477185462,75.47280878070458,76.92102395482722,31.3763008170274,32.82451599115004,30
185.0,78.12911392405061,78.00760412117972,75.09658175132685,76.60731171806728,31.400292403112445,32.91102236985287,30
190.0,78.0291139240506,77.89655136510743,74.89066174515479,76.47466655584236,31.421884809265066,33.00588961995264,30
195.0,78.12911392405061,77.9986139325599,75.01841248053661,76.59373640738225,31.404877525177653,32.980201452023294,30
200.0,78.42911392405063,78.24678397449608,75.30160312402546,76.85366526784146,31.39311870665462,32.94518085047062,30
206.0,79.0291139240506,78.83106071521829,75.96610604979527,77.46962160223305,31.361439112985238,32.864954665423014,30
212.0,79.72911392405061,79.51369327608322,76.75219392828683,78.18297857487167,31.330714701211548,32.76149934779639,30
218.0,80.8291139240506,80.61369327608321,78.05616126417273,79.36733892681275,31.24635434927046,32.55753201191048,30
224.0,81.72911392405061,81.52973568008275,79.17019343548561,80.38792356531297,31.141812114769778,32.35954224459714,30
230.0,81.92911392405061,81.6728199494444,79.50214252884501,80.62486867479026,31.04795127465414,32.17067742059939,30
236.0,81.72911392405061,81.50270525877008,79.49579679873534,80.52476494092495,30.977940317845125,32.00690846003474,30
240.0,81.12911392405061,80.94556518501446,79.07479880987898,80.02820816331138,30.917357021703083,31.870766375135474,30
250.0,80.5291139240506,80.36446559047208,78.59792624593987,79.48089868655501,30.88356690391707,31.766539344532205,30
258.0,80.0291139240506,79.8172060813534,78.07666823335578,78.91810087275562,30.89910520859779,31.74053784799763,30
265.0,79.52911392405062,79.29517741237122,77.40168191817483,78.28916879918,31.006008613191213,31.893495494196387,30
272.0,79.12911392405061,78.87212888927003,76.63564474424444,77.6010007799459,31.271128109324124,32.236484145025585,30
280.0,79.0291139240506,78.70567600438052,75.88058978018276,77.04577293264488,31.65990307173564,32.82508622419776,30
290.0,79.12911392405061,78.75304508231899,75.54160918509193,76.99758188657621,31.755463195742777,33.21143589722706,30
300.0,79.42911392405061,78.98168777388067,75.12404849712432,76.96839746542916,32.0132903084515,33.857639276756345,30
307.0,79.8291139240506,79.39441908053033,75.05187142415946,77.15733565313712,32.2370834273932,34.34254765637087,30
315.0,80.22911392405061,79.81843361069258,75.59465534519057,77.83341289244652,31.985020718246062,34.223778265502006,30
325.0,80.62911392405061,80.31259982389544,76.03723485436576,78.30378797607412,32.00881184782132,34.275364969529676,30
335.0,80.92911392405063,80.66367123976801,76.39375995571928,78.67664095811412,31.987030281653887,34.26991128404873,30
345.0,81.12911392405061,80.93190446349251,76.72579592288429,79.00080378681287,31.931100676679648,34.20610854060823,30
355.0,81.42911392405061,81.15563784380556,76.92532364879537,79.18590851891284,31.969729324892725,34.230314195010195,30
365.0,81.72911392405061,81.43163047835013,77.06979290531814,79.28337004018869,32.148260438161444,34.36183757303199,30
375.0,82.02911392405062,81.76128960471867,77.2288493687582,79.44432138573205,32.31696821898662,34.532440235960465,30
387.0,82.3291139240506,81.85368161305932,77.27662906226607,79.5811043935516,32.272577219507724,34.577052550793255,30
400.0,82.4291139240506,81.91565402979646,76.97555669322436,79.28369229399124,32.63196173580522,34.940097336572094,30
412.0,82.62911392405061,81.95600058936769,76.70441626368972,79.21012140298194,32.74587918638575,35.25158432567797,30
425.0,82.72911392405061,82.06579809342325,76.45796273250077,79.17614698503579,32.88965110838747,35.60783536092248,30
437.0,82.92911392405061,82.30997736734778,76.51374748370455,79.38728939037283,32.922687976974956,35.796229883643235,30
450.0,83.3291139240506,82.69963074815226,76.55544256022439,79.51235976863614,33.187270979516114,36.14418818792787,30
462.0,83.52911392405059,83.03364057753274,76.94615526592088,79.90939541870794,33.12424515882479,36.08748531161186,30
475.0,83.52911392405059,83.01707285903491,77.15074379406812,79.95365129481539,33.063421564219524,35.86632906496679,30
487.0,82.92911392405061,82.51898716666517,76.80749106021501,79.43937849685919,33.07960866980598,35.711496106450156,30
500.0,81.72911392405061,81.3662612772533,76.32619893431476,78.47008751586596,32.896173761387345,35.04006234293854,30
515.0,80.0291139240506,79.37422644935569,74.2788494661567,76.6067790411586,32.767447408197086,35.09537698319899,30
530.0,78.3291139240506,77.22817541057515,71.39768482131645,74.4061352848124,32.822040125762754,35.8304905892587,30
545.0,78.12911392405061,77.30745124244135,70.55276248736985,73.62364302809733,33.68380821434401,36.7546887550715,30
560.0,79.3291139240506,78.61139030500507,71.61534379116334,74.88597823320286,33.72541207180221,36.99604651384173,30
580.0,80.62911392405061,80.07868641855303,73.30401380413473,76.51535774652675,33.56332867202629,36.77467261441831,30
600.0,81.62911392405061,81.05480012765314,74.0842044228248,77.48830343184724,33.566496695805895,36.97059570482834,30
615.0,82.02911392405062,81.55449315031278,74.49078750493473,77.79688082696052,33.75761232335226,37.06370564537805,30
630.0,82.12911392405061,81.41581823506264,74.01062846475703,77.34268944607595,34.07312878898669,37.40518977030561,30
650.0,82.02911392405062,81.1564665944376,73.63431131541813,76.7392220961572,34.4172444982804,37.52215527901947,30
670.0,81.72911392405061,80.93386118264497,73.08038306026472,76.25562647297919,34.67823470966579,37.85347812238025,30
690.0,81.3291139240506,80.42739383052981,72.67060059669085,75.94004951910358,34.48734431142623,37.75679323383896,30
710.0,80.62911392405061,79.80926623406718,73.38618888246003,75.7876226305522,34.021643603514974,36.42307735160715,30
730.0,79.72911392405061,79.07382153239148,72.38643458649145,74.95845682198964,34.115364710401835,36.68738694590003,30
750.0,78.92911392405061,77.848379316074,71.26748556970577,73.75174186962391,34.09663744645009,36.58089374636823,30
775.0,78.12911392405061,77.15137897726362,70.17215944126443,72.4868486960836,34.66453028118002,36.97921953599919,30
800.0,77.62911392405061,76.92038249359197,69.91172631990182,72.03033060047396,34.89005189311801,37.008656173690156,30
825.0,77.62911392405061,76.71364125674074,70.59266816219053,72.53781334043988,34.17582791630086,36.12097309455021,30
850.0,77.72911392405061,77.09966210112448,71.07824708633666,72.6951189158253,34.404543185299175,36.02141501478782,30
875.0,77.62911392405061,76.64378694820955,69.73414254051593,71.80589635284095,34.837890595368606,36.90964440769362,30
900.0,77.12911392405061,76.14297318738964,69.44430045776538,71.48521127834694,34.657761909042705,36.69867272962426,30
925.0,76.72911392405061,75.73040902908403,69.81556452420783,71.781943790096,33.948465238988035,35.9148445048762,30
950.0,76.5291139240506,75.46463279143964,69.39788227789631,71.57588301663107,33.88874977480857,36.066750513543326,30
975.0,76.3291139240506,75.42939788422942,69.70731901727962,72.27491327951083,33.15448460471859,35.7220788669498,30
1000.0,75.8291139240506,75.15645198749422,68.98063345334195,71.68891762382083,33.467534363673394,36.17581853415227,30
1030.0,75.8291139240506,74.92668185724797,68.9389439856725,71.96587900764023,32.960802849607745,35.987737871575476,30
1060.0,76.3291139240506,75.21647558451755,68.65358457430371,71.90360943395073,33.31286615056682,36.562891010213846,30
1090.0,76.42911392405061,75.75044784236177,69.05452373433599,72.20270260058238,33.54774524177938,36.69592410802578,30
1120.0,76.02911392405059,75.4493736455803,68.89218837817688,72.03644312143771,33.41293052414258,36.55718526740341,30
1150.0,76.02911392405059,75.31575340722058,68.78837601074997,72.22834986346727,33.08740354375331,36.52737739647061,30
1180.0,76.5291139240506,75.5308232877781,68.98234384915678,72.35661925738238,33.17420403039573,36.54847943862133,30
1220.0,76.62911392405061,75.78795718346122,68.68678877127869,72.38439038602202,33.4035667974392,37.10116841218253,30
1250.0,76.22911392405061,75.33035026851823,68.00287412970187,71.74684306213157,33.583507206386656,37.327476138816365,30
1280.0,76.22911392405061,75.41854350284166,67.91733406900569,71.60486449093393,33.81367901190772,37.50120943383597,30
1320.0,76.3291139240506,76.03780647806676,67.92561065043208,71.8166668656454,34.221139612421354,38.11219582763468,30
1360.0,76.62911392405061,76.08450879105455,67.89089442573211,71.78369832118307,34.30081046987148,38.19361436532243,30
1400.0,77.22911392405061,76.68711700146287,68.01521154682008,71.84672383966785,34.84039316179502,38.67190545464278,30
1450.0,78.22911392405061,77.54128482898255,69.2214576654718,73.06520742744804,34.47607740153451,38.31982716351075,30
1500.0,79.12911392405061,78.46974156974468,69.99048081943394,73.8488857687719,34.62085580097279,38.47926075031074,30
1550.0,79.62911392405061,78.84288870670498,70.3386783765965,74.1045363121942,34.738352394510784,38.50421033010848,30
1600.0,79.9291139240506,78.94968202262913,69.87497879159059,73.71088507707918,35.23879694554995,39.07470323103854,30
1650.0,80.12911392405061,78.75212255406205,70.0001466952485,73.72548405367871,35.02663850038334,38.75197585881355,30
1700.0,80.42911392405061,79.00841668941266,70.02561571955798,73.73483701958351,35.27357966982915,38.98280096985468,30
1750.0,80.22911392405061,78.88612637437006,69.52118646801586,73.56038560780785,35.32574076656222,39.36493990635421,30
1800.0,79.9291139240506,78.35240713719557,68.50624698076325,72.83692085704317,35.5154862801524,39.84616015643232,30
1850.0,80.42911392405061,78.63911037109662,68.76287641783486,72.9772076680538,35.66190270304283,39.87623395326176,30
1900.0,80.92911392405063,79.11847883465074,69.77411484627834,73.68287389656616,35.43560493808458,39.34436398837241,30
1950.0,80.8291139240506,79.16991078506145,69.41284925730662,73.5792609941197,35.590649790941754,39.75706152775483,30
2000.0,80.72911392405061,79.15358926995121,68.91551451144309,73.30504713678907,35.84854213316214,40.23807475850812,30
2060.0,80.62911392405061,79.15425649192576,68.95924828749075,73.13724581697288,36.017010674952886,40.19500820443501,30
2120.0,80.62911392405061,78.87610132663418,69.04690284121114,72.99801850032514,35.87808282630904,39.82919848542305,30
2180.0,80.8291139240506,78.88034076939559,68.92877084792339,72.95139098254387,35.92894978685172,39.9515699214722,30
2240.0,80.92911392405063,78.62396341243705,68.44858668385466,72.81604509730235,35.8079183151347,40.17537672858239,30
2300.0,81.22911392405061,78.64657377295636,68.192600300372,72.83715135673866,35.8094224162177,40.45397347258435,30
2360.0,81.3291139240506,78.57532656682766,67.88693919494969,72.94005526117408,35.635271305653575,40.688387371877965,30
2400.0,80.22911392405061,77.44013590988602,66.81191668978222,71.79704049680174,35.64309541308428,40.6282192201038,30
2500.0,79.8291139240506,77.06445424668954,66.32247282196205,71.41955791160171,35.64489633508782,40.741981424727484,30
2580.0,80.5291139240506,77.7584121104428,66.93898414995758,72.10658141975084,35.651830690691966,40.81942796048523,30
2650.0,80.92911392405063,78.02923272425286,67.58706622009906,72.60768210035884,35.42155062389402,40.4421665041538,30
2720.0,81.5291139240506,78.39765150230521,68.46289176417237,73.16565865827184,35.23199284403337,39.93475973813284,30
2800.0,82.22911392405061,78.76381851506657,68.91813863850082,73.64419200963351,35.11962650543306,39.845679876565754,30
