Freq "Listening Window"
22.4 58.3336778259754
23.0 58.733677825975406
23.6 59.13367782597541
24.0 59.57497508821227
25.0 59.97497508821226
25.8 60.37497508821227
26.5 60.73850861257907
27.2 61.162478091135796
28.0 61.56247809113577
29.0 61.98016191466672
30.0 62.38016191466673
30.7 62.78016191466672
31.5 63.19204879268628
32.5 63.58016191466672
33.5 63.99204879268629
34.5 64.4100211343615
35.5 64.8100211343615
36.5 65.2100211343615
37.5 65.58603646020572
38.7 65.95128249534646
40.0 66.32833543429945
41.2 66.71654759538987
42.5 67.11654759538985
43.7 67.46984564794994
45.0 67.86984564794994
46.2 68.24699671866998
47.5 68.64699671866997
48.7 69.06601003126214
50.0 69.48875940807119
51.5 69.908028830809
53.0 70.30802883080902
54.5 70.71880183508902
56.0 71.11880183508902
58.0 71.51880183508901
60.0 71.93838346507123
61.5 72.33838346507123
63.0 72.76127763567483
65.0 73.18111976267605
67.0 73.61536796619697
69.0 74.01536796619698
71.0 74.41536796619697
73.0 74.92365187469665
75.0 75.43542047265908
77.5 75.92365187469663
80.0 76.42365187469662
82.5 76.88949325299605
85.0 77.42365187469665
87.5 77.98949325299606
90.0 78.50108501443671
92.5 79.00108501443671
95.0 79.50108501443673
97.5 79.97787046914469
100.0 80.42167093386738
103.0 80.83266002596584
106.0 81.23266002596586
109.0 81.55558430846962
112.0 81.85558430846962
115.0 82.12167093386736
118.0 82.32167093386737
122.0 82.39960897806966
125.0 82.45558430846962
128.0 82.47891796692159
132.0 82.34465314246157
136.0 82.15636504463217
140.0 81.88878819960372
145.0 81.58878819960373
150.0 81.22171788626417
155.0 80.82171788626417
160.0 80.32171788626417
165.0 79.77694036984069
170.0 79.23168985418634
175.0 78.73168985418633
180.0 78.29732477185462
185.0 78.00760412117972
190.0 77.89655136510743
195.0 77.9986139325599
200.0 78.24678397449608
206.0 78.83106071521829
212.0 79.51369327608322
218.0 80.61369327608321
224.0 81.52973568008275
230.0 81.6728199494444
236.0 81.50270525877008
240.0 80.94556518501446
250.0 80.36446559047208
258.0 79.8172060813534
265.0 79.29517741237122
272.0 78.87212888927003
280.0 78.70567600438052
290.0 78.75304508231899
300.0 78.98168777388067
307.0 79.39441908053033
315.0 79.81843361069258
325.0 80.31259982389544
335.0 80.66367123976801
345.0 80.93190446349251
355.0 81.15563784380556
365.0 81.43163047835013
375.0 81.76128960471867
387.0 81.85368161305932
400.0 81.91565402979646
412.0 81.95600058936769
425.0 82.06579809342325
437.0 82.30997736734778
450.0 82.69963074815226
462.0 83.03364057753274
475.0 83.01707285903491
487.0 82.51898716666517
500.0 81.3662612772533
515.0 79.37422644935569
530.0 77.22817541057515
545.0 77.30745124244135
560.0 78.61139030500507
580.0 80.07868641855303
600.0 81.05480012765314
615.0 81.55449315031278
630.0 81.41581823506264
650.0 81.1564665944376
670.0 80.93386118264497
690.0 80.42739383052981
710.0 79.80926623406718
730.0 79.07382153239148
750.0 77.848379316074
775.0 77.15137897726362
800.0 76.92038249359197
825.0 76.71364125674074
850.0 77.09966210112448
875.0 76.64378694820955
900.0 76.14297318738964
925.0 75.73040902908403
950.0 75.46463279143964
975.0 75.42939788422942
1000.0 75.15645198749422
1030.0 74.92668185724797
1060.0 75.21647558451755
1090.0 75.75044784236177
1120.0 75.4493736455803
1150.0 75.31575340722058
1180.0 75.5308232877781
1220.0 75.78795718346122
1250.0 75.33035026851823
1280.0 75.41854350284166
1320.0 76.03780647806676
1360.0 76.08450879105455
1400.0 76.68711700146287
1450.0 77.54128482898255
1500.0 78.46974156974468
1550.0 78.84288870670498
1600.0 78.94968202262913
1650.0 78.75212255406205
1700.0 79.00841668941266
1750.0 78.88612637437006
1800.0 78.35240713719557
1850.0 78.63911037109662
1900.0 79.11847883465074
1950.0 79.16991078506145
2000.0 79.15358926995121
2060.0 79.15425649192576
2120.0 78.87610132663418
2180.0 78.88034076939559
2240.0 78.62396341243705
2300.0 78.64657377295636
2360.0 78.57532656682766
2400.0 77.44013590988602
2500.0 77.06445424668954
2580.0 77.7584121104428
2650.0 78.02923272425286
2720.0 78.39765150230521
2800.0 78.76381851506657
2900.0 79.02246648210055
3000.0 79.13686157993023
3070.0 78.98873198660107
3150.0 78.94154600163131
3250.0 78.66239159167385
3350.0 81.23350794505576
3450.0 81.57326535325994
3550.0 80.95462865172536
3650.0 80.84355545530538
3750.0 80.00062271438958
3870.0 80.05771071526581
4000.0 79.57657140524779
4120.0 79.50617328211082
4250.0 79.13847005359294
4370.0 78.26737652776346
4500.0 77.90181411887299
4620.0 78.35421280162842
4750.0 78.71994115691928
4870.0 79.76262013246696
5000.0 80.7504324962459
5150.0 81.62122554047747
5300.0 81.51158521348516
5450.0 80.55957303359898
5600.0 80.02066216084265
5800.0 82.7615566121466
6000.0 82.69951478434257
6150.0 82.24459935830738
6300.0 83.12542333531881
6500.0 82.12400524511435
6700.0 81.0727254658315
6900.0 80.77611758118375
7100.0 79.74347366040087
7300.0 80.4509672350478
7500.0 80.72761768929456
7750.0 81.154635829873
8000.0 82.99690136391973
8250.0 81.97112541430752
8500.0 83.48343453420888
8750.0 80.72600348391205
9000.0 79.91982921150547
9250.0 80.38537218743595
9500.0 79.72889123128775
9750.0 78.42028094684687
10000.0 80.54606832087323
10300.0 81.29263934587343
10600.0 85.75513276438294
10900.0 86.25422600510424
11200.0 87.79027971633502
11500.0 83.34500494225753
11800.0 78.62528950535446
12200.0 80.24642971175739
12500.0 80.01034209448379
12800.0 79.0980214109903
13200.0 75.40195724225487
13600.0 72.93412766743674
14000.0 72.78231726952963
14500.0 74.20758626709213
15000.0 76.08576131422677
15500.0 78.60907832288589
16000.0 76.85541381206536
16500.0 74.78773161543347
17000.0 69.19049696130594
17500.0 67.09037174951597
18000.0 64.81417199886438
18500.0 64.3840960288336
19000.0 64.63095021079688
19500.0 58.678808532416525
