Freq "Sound Power"
22.4 59.01705462748397
23.0 59.43073109801212
23.6 59.85949369252964
24.0 60.25334196393433
25.0 60.65360077036469
25.8 61.02199683261965
26.5 61.378305854704834
27.2 61.800928113321405
28.0 62.18566850259144
29.0 62.57205568900312
30.0 62.95727589472446
30.7 63.35482965283401
31.5 63.76387447097645
32.5 64.15160301573373
33.5 64.56500449165235
34.5 64.96789586056855
35.5 65.35705133043979
36.5 65.66078397207558
37.5 65.95436475437648
38.7 66.2548045505498
40.0 66.56421131901601
41.2 66.89420190954301
42.5 67.23338278639768
43.7 67.58728466471759
45.0 67.92724727802434
46.2 68.29211973418633
47.5 68.62997301088002
48.7 68.92724290812738
50.0 69.23530490233415
51.5 69.56335725627699
53.0 69.89322767797509
54.5 70.24371114057826
56.0 70.58505321115116
58.0 70.94580769568876
60.0 71.27551888844695
61.5 71.58407678158618
63.0 71.89718236619193
65.0 72.2390783658013
67.0 72.59038916800893
69.0 72.92880308307465
71.0 73.27202675066371
73.0 73.65610641710066
75.0 74.06560597144073
77.5 74.46696077440971
80.0 74.88711927900627
82.5 75.30100525398288
85.0 75.74829421566466
87.5 76.19104842915661
90.0 76.6393504883334
92.5 77.06835850909513
95.0 77.49693018056614
97.5 77.87267605851251
100.0 78.22507547084163
103.0 78.57086726694557
106.0 78.8957043405337
109.0 79.13838505281045
112.0 79.34630333100876
115.0 79.53823173361756
118.0 79.66595266743
122.0 79.69340783071773
125.0 79.68669463543259
128.0 79.63881326325804
132.0 79.44750053202603
136.0 79.2083838782567
140.0 78.8794224335081
145.0 78.52432093022252
150.0 78.1223394308767
155.0 77.6371344213009
160.0 77.07898476643012
165.0 76.46679022384933
170.0 75.86222577609303
175.0 75.27301421166358
180.0 74.74369485665397
185.0 74.36746782727624
190.0 74.16154782110418
195.0 74.289298556486
200.0 74.57248919997485
206.0 75.23699212574466
212.0 76.02308000423622
218.0 77.32704734012212
224.0 78.441079511435
230.0 78.7730286047944
236.0 78.76668287468473
240.0 78.34568488582838
250.0 77.86881232188927
258.0 77.34755430930517
265.0 76.67256799412422
272.0 75.90653082019384
280.0 75.15147585613215
290.0 74.81249526104132
300.0 74.39493457307371
307.0 74.32275750010885
315.0 74.86554142113997
325.0 75.30812093031516
335.0 75.66464603166867
345.0 75.99668199883368
355.0 76.19620972474476
365.0 76.34067898126753
375.0 76.4997354447076
387.0 76.54751513821546
400.0 76.24644276917375
412.0 75.97530233963911
425.0 75.72884880845017
437.0 75.78463355965394
450.0 75.82632863617378
462.0 76.21704134187027
475.0 76.42162987001751
487.0 76.0783771361644
500.0 75.59708501026415
515.0 73.54973554210609
530.0 70.66857089726584
545.0 69.82364856331924
560.0 70.88622986711273
580.0 72.57489988008412
600.0 73.35509049877419
615.0 73.76167358088412
630.0 73.28151454070643
650.0 72.90519739136752
670.0 72.35126913621411
690.0 71.94148667264024
710.0 72.65707495840942
730.0 71.65732066244084
750.0 70.53837164565516
775.0 69.44304551721382
800.0 69.18261239585121
825.0 69.86355423813993
850.0 70.34913316228605
875.0 69.00502861646532
900.0 68.71518653371477
925.0 69.08645060015722
950.0 68.6687683538457
975.0 68.97820509322901
1000.0 68.25151952929134
1030.0 68.20983006162189
1060.0 67.9244706502531
1090.0 68.32540981028538
1120.0 68.16307445412627
1150.0 68.05926208669936
1180.0 68.25322992510617
1220.0 67.95767484722808
1250.0 67.27376020565126
1280.0 67.18822014495508
1320.0 67.19649672638147
1360.0 67.1617805016815
1400.0 67.28609762276947
1450.0 68.4923437414212
1500.0 69.26136689538333
1550.0 69.6095644525459
1600.0 69.14586486753998
1650.0 69.2710327711979
1700.0 69.29650179550737
1750.0 68.79207254396525
1800.0 67.77713305671264
1850.0 68.03376249378425
1900.0 69.04500092222773
1950.0 68.68373533325601
2000.0 68.18640058739248
2060.0 68.23013436344014
2120.0 68.31778891716053
2180.0 68.19965692387278
2240.0 67.71947275980405
2300.0 67.4634863763214
2360.0 67.15782527089908
2400.0 66.08280276573161
2500.0 65.59335889791144
2580.0 66.20987022590697
2650.0 66.85795229604845
2720.0 67.73377784012176
2800.0 68.18902471445021
2900.0 68.64352977174094
3000.0 68.70536498124378
3070.0 68.32681342605129
3150.0 67.94068825377886
3250.0 67.7010796395831
3350.0 69.83888389830149
3450.0 71.3725846062321
3550.0 71.12766090032133
3650.0 70.70875181288014
3750.0 69.48016516627999
3870.0 69.56903754206158
4000.0 69.06075428502355
4120.0 69.19611332523068
4250.0 68.9063588379053
4370.0 67.89401955486333
4500.0 67.70697218160703
4620.0 67.95270617679327
4750.0 67.8508986002084
4870.0 68.61467749761334
5000.0 69.42243433252871
5150.0 70.31477279181765
5300.0 70.26412103232163
5450.0 69.63764454235405
5600.0 69.49776776074246
5800.0 72.28109448862722
6000.0 72.23134892097838
6150.0 71.93952107980479
6300.0 72.5991167885774
6500.0 71.2134742851022
6700.0 70.42859867116043
6900.0 70.14102761082721
7100.0 69.00323084736846
7300.0 69.68766733017983
7500.0 69.92020849218781
7750.0 70.75213442059055
8000.0 72.52499571848472
8250.0 71.36316894333774
8500.0 73.04592855488528
8750.0 70.36374901402094
9000.0 69.71406569304884
9250.0 70.14481289859634
9500.0 69.31380890148867
9750.0 67.79763906594171
10000.0 69.95150210534244
10300.0 70.02628738205185
10600.0 74.14564611436064
10900.0 74.7968350934512
11200.0 76.35839477586212
11500.0 72.21151014826194
11800.0 66.37505264834454
12200.0 67.07655445305744
12500.0 66.25093550969093
12800.0 65.70667500329488
13200.0 63.531808243649124
13600.0 62.55390248255375
14000.0 63.64637976684017
14500.0 65.04177548334276
15000.0 66.3229617855169
15500.0 69.23363957706017
16000.0 67.85318874754213
16500.0 65.46773393251644
17000.0 59.36487711207663
17500.0 58.510719992146605
18000.0 56.25017204771184
18500.0 55.14084701028494
19000.0 55.47417422935223
19500.0 49.824995132581904
