Freq,Floor Bounce,Ceiling Bounce,Front Wall Bounce,Side Wall Bounce,Rear Wall Bounce,Total Early Reflection
20.5078,79.091902239174,78.6687489074365,79.01922834778733,78.90223542917057,78.33602441204741,78.81216320237732
21.9727,81.74630963011828,81.25999872572645,81.641015187659,81.5263361721843,80.98548969038575,81.44049050861244
23.4375,83.74962218489998,83.24699434224797,83.63206456589822,83.53930591334606,83.00658301542886,83.4432946417068
24.9023,85.36127910978976,84.88522564239668,85.2577575166256,85.16001037644261,84.59490648803371,85.06062303928861
26.3672,87.17738381976594,86.7104678013357,87.06982174325579,86.97740629048131,86.46244672216108,86.8871871678291
27.832,89.14965043145894,88.66876653810957,89.03643999252981,88.93597974286499,88.44707100680569,88.85504898497682
29.2969,90.54617230617495,90.09332968399903,90.45346046591665,90.35168315344134,89.81385510527645,90.25975931085114
30.7617,92.26631327254657,91.83195682558764,92.16858607040673,92.09034387345235,91.63535320403423,92.00464701326689
32.2266,93.48074142278816,93.04289488600591,93.38724786263563,93.29805762646454,92.81260990302174,93.21110935020998
33.6914,94.8515753620602,94.39803446954609,94.75454346743888,94.65975951868262,94.15615922303725,94.57135529322674
35.1562,95.89870635950173,95.43142699445548,95.8007589020946,95.68862906371596,95.157994593431,95.60372427508337
36.6211,96.60404085666963,96.13834623897108,96.50537972207235,96.3993749804771,95.88419194085631,96.31409015279877
38.0859,97.11664059434338,96.64609366312018,97.0178948273092,96.91229294306932,96.39383936267852,96.82527079216021
39.5508,97.3571058931343,96.8928882756237,97.26137441701925,97.15490448829969,96.6420727653709,97.06942653074725
41.0156,97.49247162204426,97.01417518209996,97.39522987027102,97.27664616403283,96.75103996504464,97.19421950730174
42.4805,97.58193962023329,97.10067097806672,97.4821726415954,97.36781473477708,96.84184744501327,97.28317719693555
43.9453,97.6243047427231,97.13906807774876,97.52583979525272,97.40125772145629,96.85939175318164,97.31875970879108
45.4102,97.55840409145165,97.08673974403953,97.46431727863116,97.346066295507,96.82074940510068,97.2634789389153
46.875,97.55203736213129,97.08263136362896,97.45886567022765,97.34421589211533,96.82480468974916,97.26054206420255
48.3398,97.54577265751101,97.05739427513458,97.44590028779976,97.33155168677823,96.81933531525264,97.24807709002444
51.2695,97.53393821363157,97.03158432320369,97.43264007541443,97.30681416443635,96.78554181371312,97.22666725957879
52.7344,97.52643618953984,97.03685098499437,97.43217450548599,97.30051474086665,96.77393875366734,97.22259027456646
54.1992,97.54370219789593,97.0657813513542,97.45576277601751,97.32293706239719,96.79772944452226,97.24564686343196
55.6641,97.57933558208212,97.09901172928458,97.49043698539091,97.3603082684293,96.85026124595603,97.28402538302373
58.5938,97.47166958832398,96.98654877818683,97.38919227000426,97.25185153037563,96.70928957590812,97.17061862712514
60.0586,97.51853585159695,97.02554800596457,97.43108063969345,97.29147621808156,96.74975715578978,97.21230433484446
62.9883,97.50880322157253,96.99509077777496,97.41904078117344,97.26724091577584,96.71359929070596,97.19042292832512
64.4531,97.47113676783476,96.93536195565565,97.37679745791131,97.2165715236929,96.64770848265442,97.1398807956416
67.3828,97.18830330746837,96.62546453094559,97.08212754396735,96.94020713657406,96.43549081994783,96.863429193107
68.8477,97.11096952567928,96.55420716919988,97.00823295303138,96.865094014511,96.36342592833688,96.78937675458779
71.7773,97.05023919131665,96.50898249539297,96.96233879892826,96.7977179392641,96.23814155500662,96.72174021069158
74.707,96.89928771511235,96.40819859426192,96.83369025299386,96.65138208345756,96.07531459575205,96.58392287689212
77.6367,96.72801459957664,96.22996448504699,96.65670371201037,96.48264922876056,95.95005651914992,96.41884550986217
79.1016,96.63217991598236,96.12501480771661,96.55785144411414,96.38253381570958,95.86673832750739,96.322011868452
82.0312,96.4817804358845,95.94744697850757,96.40320371718973,96.22042623414157,95.69472328847442,96.15926726341908
84.9609,96.3975817349627,95.85837495721415,96.32149377014505,96.1470312716806,95.64876130989059,96.08375481590232
87.8906,96.43337014300252,95.90376099136965,96.37262085450789,96.17481669170499,95.67502875404784,96.12127001053537
90.8203,96.49422189915776,95.92990176005196,96.43265710766156,96.19558407490844,95.61730153922844,96.14603321190518
95.2148,96.56435195717964,95.98475122217654,96.51173711486643,96.25949117567312,95.64634983129332,96.20666611437217
98.1445,96.6925660962973,96.12795567568216,96.64751769819281,96.3923261506309,95.78154908299824,96.34151853138373
101.074,96.67960521771599,96.14533371146537,96.65297192425044,96.40823825600913,95.82425024105865,96.35395108521773
105.469,96.78017084978204,96.28868232691318,96.780411793538,96.50632903341628,95.91963657428096,96.46705257766061
108.398,97.04011501943806,96.59092088114087,97.07368838231797,96.75790329399237,96.07205389839876,96.72193144463958
112.793,97.26804456208146,96.75820419194048,97.28233659566276,96.94109164757691,96.21358708363705,96.91011319071701
117.188,97.39233657251532,96.8532695242296,97.40814379345704,97.07340426120714,96.36383957827746,97.03516295737094
120.117,97.4487802116806,96.90279153677162,97.47342413180152,97.12865626813159,96.41400484688238,97.09089238657447
124.512,97.58351854206589,97.00053917769009,97.5877460204226,97.22670434746206,96.49643654626213,97.19776946340124
128.906,97.65356198269605,97.03041531725171,97.64960266776015,97.25702121331088,96.54526622515746,97.24676788315487
133.301,97.71440508344443,97.03998234206222,97.68962674488793,97.28865283019735,96.61165870940812,97.28842008012838
139.16,97.7543167167666,96.96951344060027,97.70479291097702,97.27559463655372,96.57410801757914,97.27837726393334
143.555,97.82152383759363,96.96919677250509,97.77559312239549,97.29356138957559,96.48808992398914,97.29825065385786
147.949,97.86213692602058,97.0083931844258,97.82923383479205,97.27394538725659,96.40546069122226,97.30929724273817
153.809,97.76397768946251,96.95394715042038,97.79543345825542,97.21460871768767,96.25097954809243,97.2325478073704
159.668,97.87768172949286,97.1053042811876,97.90845542677702,97.395575160091,96.4705753297606,97.38363170502947
165.527,97.9354420338622,97.23750817672584,97.99973531270203,97.44407402258626,96.61786630991838,97.47574112198842
171.387,98.07983333159518,97.17666321684565,98.0997406088576,97.4283936008736,96.38169356580354,97.47893050656005
177.246,98.04380066330513,97.13981285777517,98.06132448075597,97.34246173607679,96.26241326091314,97.41951554160015
183.105,97.94326042890428,96.98984361433557,97.95209426953463,97.21062684372764,96.22924585208783,97.31201701476073
188.965,97.81288783332221,96.95640353472598,97.92200211231692,97.15783017219987,96.07095161693849,97.23399699390512
196.289,97.91207074117162,97.14245374815644,98.04897894520253,97.24943310340873,96.05211987596462,97.33687116308938
203.613,97.93285789786765,97.04207605589492,98.12153159700033,97.23209819174298,95.85289642004572,97.30742954602417
210.938,97.94852991072109,97.182501675863,98.17130029426797,97.23996270081025,95.54403554520827,97.30887351557816
218.262,97.75857553133507,97.19258347525246,97.99098304399749,97.09276918731648,95.67028577799414,97.21218560625962
225.586,97.85088493409528,97.13096132858222,98.0890263256138,97.139393179394,95.79008233115307,97.27064956338958
232.91,98.12733783946076,97.20913787302787,98.31538312202771,97.27798130314179,95.50467917861062,97.39356795235584
241.699,98.00287880360865,96.93374282109968,98.05783394530721,97.11024679334156,95.27316374466236,97.18538265593284
250.488,98.49656264309716,96.79276732994633,98.34421293214325,97.07921701284181,94.96240090116348,97.31126840796037
259.277,98.14698570683495,96.75149322272162,98.14123775158659,97.08780082302252,95.07033729301847,97.17773541564564
268.066,97.73766552037787,96.27054118609367,97.74213526932454,96.67445660106114,95.02393148269834,96.8037545819232
276.855,97.82716121473254,96.70706131531159,97.99253762815812,96.55738590984288,94.62732291183802,96.89763095971006
287.109,97.20335685860094,96.6159829258946,97.67185963017019,96.34296589896859,94.46144332691344,96.5881151876594
297.363,97.70622605277805,96.60859794682183,98.08254306082154,96.73379605707945,95.08147054464436,96.96243079096358
307.617,98.21357452582629,96.52564808516652,98.23009929064693,96.52039251960917,94.79041368147233,97.03720260729287
319.336,98.26256064344679,96.58056614946082,98.31323594428876,96.39980113931685,94.23919846135117,96.99903791509865
329.59,97.72909520884991,96.06963534869664,97.78647027723298,96.17328709576276,93.78721603986006,96.5350588465188
341.309,97.91424308655716,96.48687749196353,97.9924465387478,96.08592601478415,93.822775205781,96.70435894399105
353.027,97.79751304923603,96.25998164267259,97.91950270590195,96.1532543253534,93.4620797269279,96.5869502709542
366.211,97.8888078605867,96.60963699639225,98.11116326704303,96.22298645638924,93.01253331359135,96.7017385976759
379.395,98.53520044096297,97.28162184682523,98.47869664487908,96.75487035004798,93.14867107771656,97.21498961765252
392.578,97.86758607261778,96.61365843092491,97.74825628488901,95.86654925283838,92.73075231640223,96.51191374415954
405.762,97.48245961242026,96.58606697398999,97.57101550408437,95.60547530572077,92.71898753180822,96.31011653406973
420.41,97.45574239430842,96.75814490012367,97.62974588835523,95.30818890474039,92.24062732507366,96.26766482183302
435.059,97.54174458998045,96.4084139653612,97.43283784757324,95.26778833915957,92.20861739478907,96.1520814353288
451.172,98.32398108962883,96.42434101260733,98.37173082089919,95.64231993662877,91.8967188698696,96.6792643306178
465.82,98.15228043085739,96.50203642644163,98.17716516242862,95.43994465022782,90.40944693881676,96.46878480491286
483.398,98.0921917008134,97.27847811068752,98.15993294726088,95.49969018092983,91.40861602497367,96.67751383093398
499.512,97.72403282284753,96.4390441101601,97.613759608949,94.6268253071274,91.60159950702695,96.11643104381596
517.09,98.05847007980167,96.68942218644924,97.92989811493864,93.962410989447,91.62537771649872,96.27647708165048
536.133,97.59756067117848,95.16722549794977,98.13599914089721,93.99847094441458,89.41521217983257,95.78246904339449
555.176,98.33081068435445,95.00996901921569,98.3003604592469,94.46725203407595,88.95938266160765,96.09040143790484
574.219,98.49458093184973,94.97340431124046,98.09784521445738,93.61555965866981,88.64493512536865,95.95452152829766
594.727,97.82134935794502,94.12338507110161,97.7826733659603,92.74665745559165,87.62855156223469,95.34092208258014
615.234,97.50934164838229,94.33188943431547,97.59772882923582,92.42264307826358,85.791222573844,95.1120374760535
637.207,97.6412537925327,94.58093597629522,97.21022988281698,91.7980224768716,85.8304441606244,95.00700379425047
659.18,96.42773779772574,93.86802172575864,96.42453832916195,91.05758366452478,84.89653080718274,94.08383509986793
682.617,97.03766997924811,93.48371761858817,97.46246617448658,91.56588771973964,86.12447697120155,94.68486551361079
707.52,97.44732261643094,94.31625053798675,97.38041527204538,92.18831726219156,84.91877269180713,94.96747619419882
732.422,96.42251824553279,94.2875264607006,96.85872982474166,91.55767161787455,85.56244296265442,94.3821009712301
757.324,97.2483276733097,94.79388054833379,97.43092818835552,92.50260321196758,86.37926519379198,95.07071984168962
785.156,96.56292170520184,95.24251587575665,97.005774353031,92.80428232674825,86.43490851797759,94.84067119079955
811.523,96.83192579532735,95.50028938917453,97.21212043313358,93.41776912285641,87.59463332312238,95.15984730961443
840.82,96.9122344953271,96.17307603063381,97.58256394175399,94.05076833275255,88.05015078021542,95.55471385899511
870.117,96.48520864583992,94.70932578577839,98.00406681007718,94.93516624230016,89.3298906589244,95.489326602707
900.879,97.34043162987821,95.57887775938335,98.35178624885218,95.69622406974749,89.82062193672863,96.13784839458364
933.105,96.93095464408175,95.4481752208876,98.34943661617525,96.05577359823101,90.40505213080567,96.1081722635305
965.332,97.55905446346185,95.42251882042778,98.51340400331193,96.18898161663662,90.32757287211032,96.33945148478328
1000.49,96.98929054525146,95.4292484565474,98.52633354268795,96.30520527545619,90.33961116645048,96.22526736827157
1035.64,97.58285108733818,95.18702959199648,98.51511426782307,96.17409303128446,89.92197055644985,96.2866251933607
1072.27,97.07042773997894,95.14018172910866,98.2168438729072,95.84428170454832,89.23447572639716,95.94871543485468
1108.89,97.24196242553737,94.85155677270755,98.19250608863962,95.39173216741929,88.52340666959748,95.82589063032236
1148.44,97.12162091452402,94.71572895021102,97.88544003269323,94.80463106611924,87.621110404241,95.5298092722111
1189.45,96.88784554899485,92.99956162255664,97.71440299513985,95.09007102634685,87.27318539117026,95.19813078064568
1230.47,96.67909220770427,93.91739144484471,97.90697702408669,95.19547436543829,87.01845050299654,95.34190992763034
1274.41,96.24106518026711,94.54205926149072,98.0418400515326,95.16563370085206,86.91569067529964,95.365969617287
1319.82,96.47094150981432,93.13489790947958,97.88985454418427,94.90821443583638,86.88060127141755,95.11363594358275
1366.7,96.29846008915493,93.3498443344206,97.35579844499402,94.54267800055914,86.11577033345989,94.80632426541874
1413.57,95.25393036497181,93.64738219714286,96.88728541049277,93.42743265225656,85.837042658968,94.19533674443632
1463.38,94.70346879746589,93.40910578805276,96.2538383407959,93.01964526284286,84.69398631684251,93.67938393686688
1516.11,94.03439873178621,93.0005168257808,95.60116969685095,92.77937162062788,84.46105448755941,93.1533514511219
1568.85,93.337959668367,92.68211685194615,95.43691847371856,92.66245199194647,84.08528718177007,92.83769806299946
1624.51,92.62304506595319,91.8091728741678,96.45381188872395,93.24871961394359,84.40279995965241,93.0767538234828
1681.64,92.5035976063345,90.84447726567963,97.65625531562553,94.01523651494955,84.80864764933689,93.6724882760242
1741.7,93.3563751196921,87.52585477938644,97.91490224741717,94.180149087717,84.41796645360128,93.73411382124732
1803.22,92.85365859249909,85.45911682734045,97.5297676439167,93.88741809782644,85.70498588206064,93.32935008737341
1866.21,93.13866897164297,85.41334571846295,96.91321664886605,92.73156270210735,83.77358221588429,92.75754241137254
1932.13,91.4816110617661,85.37665143329991,96.71329664414614,92.68665330379207,84.41453805974442,92.34307705854613
1999.51,92.05788630412562,88.5729721227341,97.93373567209666,93.51520646511378,84.16171528476329,93.44291093359988
2069.82,92.41648376316282,85.12812153774301,98.0656791028253,93.32093000313786,84.26182893148778,93.38094287782894
2143.07,92.48324967865504,81.4467888914696,98.54922238263609,93.39771561634494,84.23548489767313,93.62592369720787
2219.24,91.93922489060023,89.03463637495189,97.89787867429236,92.31340333884314,83.9730549928881,93.21375704048614
2296.88,90.29288694871684,92.57310365331566,97.25560152761716,91.49231836256612,83.15448570268383,92.92730912202411
2378.91,93.09063486557997,93.67349560032063,98.38383770910903,92.74604586688258,83.75767801521982,94.27466913688488
2462.4,92.46670540383822,91.095245783098,99.05856701171663,93.43849188939255,82.55760100507221,94.31045372234229
2548.83,93.22729149868212,92.24974804723325,99.07280216019379,93.0959427122992,82.4274669902311,94.49430505643016
2639.65,94.2874812165482,93.04163926232891,98.09835683684811,92.05109591691533,81.42222073303446,94.11443541411916
2731.93,93.64686433807762,92.47609346112814,97.22164467999956,91.39437081687817,80.49378912190978,93.36426623580128
2828.61,93.90203056324194,91.03099252704942,97.66105181517909,91.86919717663315,80.63464168283033,93.5076219527485
2928.22,94.60850432656781,90.41751608419862,98.39073770268745,92.71854439492213,81.14981729279435,94.11435547900122
3030.76,95.02706546174711,90.22698326421397,98.52376783879018,92.8378514857919,81.12053454362305,94.28315787710073
3137.7,95.04839522560364,90.70399146908063,98.31341926661581,92.80246144444575,81.11789922399853,94.21318958790978
3249.02,95.34075313838788,91.8120713379787,97.68840481990051,92.5226120050061,81.10311345264537,94.05768916654398
3363.28,94.84777382204999,92.01067773180773,97.15464142896295,92.52047828658594,80.58751607638521,93.70582226400475
3481.93,95.12251914524006,91.99739885832234,97.19538693186317,92.63843671667962,80.88903055614016,93.81577134005052
3604.98,94.82676457211862,92.26055192485177,97.4728137338579,93.42933919752953,81.47746825993227,94.0322157666164
3732.42,93.84696096610612,91.82218240998769,98.17833507870611,93.96859331478288,81.60957887690974,94.20250641597528
3864.26,95.00139813978322,91.74633869073182,97.67982871925385,93.24301474044029,81.26016826869642,94.06988831129044
4000.49,94.61891171735705,91.25970433234079,97.90676896346127,93.03619152932652,80.32434800804617,93.98925726831598
4141.11,94.69307537912937,91.70497347494444,98.91711886703047,93.35610533245615,80.56751543219062,94.62402813909365
4287.6,95.35386226906724,91.52256212098305,98.96176910115699,93.29318349649826,80.86237345151278,94.76566790838643
4438.48,95.47521253282247,91.69539880274509,98.9756167458346,93.19716994537882,80.34884120071177,94.80023959708235
4595.21,95.49107674326316,90.94427371139692,98.34899855616403,92.78042389236306,79.60243665813204,94.34869258224785
4756.35,95.45671590682173,91.48650261156305,99.26933145595487,93.03139795445671,79.21806241928584,94.90403825800244
4924.8,94.74709017107108,90.10029954575808,99.32204937517685,93.25451176492228,79.65824677908878,94.70397787202566
5097.66,95.51594945212366,90.03011448088455,98.40497932293061,92.87751472860373,79.42381150916755,94.32062692447494
5277.83,95.4322708216879,89.8909931215761,98.36667667351588,93.06460824739464,78.13692755696788,94.28916930872612
5463.87,95.03485563521873,90.04996401378523,98.20516849820996,93.10473074215875,78.74357644093976,94.12728416577758
5657.23,94.34900617494112,90.04440708722967,98.00785657920387,92.8605259191178,77.10203471051057,93.81543436696167
5856.45,93.86506556896674,89.60862767603624,97.25490049999595,92.16170243954411,76.28514166515795,93.16022119090744
6062.99,94.18718956477592,89.40910325810707,97.94715093269157,92.35845344681437,76.29223809604352,93.61441000394257
6276.86,95.50584152699813,89.82731227974769,97.48507299465354,91.7592774905917,75.81893001693658,93.67567076816093
6498.05,95.66148535901495,90.0879218765192,97.90888693904847,91.49032223041243,75.92700555949928,93.9199733139772
6726.56,94.0928772278128,89.27912632738708,98.03852411492943,91.68691418999818,77.18354342639198,93.54337929154417
6963.87,94.11464684864035,89.33291910622714,97.84082202277693,91.89503578774867,76.28575784896967,93.46695582092349
7209.96,94.6997039422858,89.24379441578833,98.28575259416777,92.40344993189647,77.2615985377244,93.91721796859224
7464.84,94.94343715522452,89.89524980266972,97.96737744963343,92.02982349274436,75.6936056995916,93.79950475473632
7727.05,95.11913952702412,89.87086691341551,98.50663586945257,92.51022491351358,75.70477755214142,94.19323875208211
7999.51,95.8216218730517,90.29215202528653,98.32602284769574,91.94759993971142,75.10760857200596,94.24562094216367
8282.23,96.51251789296305,90.07136558235048,98.33877255986957,92.18748465588514,74.44661814307312,94.47170665477094
8573.73,96.6186603617624,89.91267803281843,98.45698727483469,91.78807969212906,74.10845970542022,94.50726673106425
8876.95,95.7009742949565,89.78429203861666,98.35549985480279,91.43119036066503,73.7158697636354,94.12607537716835
9188.96,94.83786438442209,89.55143203258069,97.89725474771379,91.03135024163825,72.76496717596237,93.57830689671752
9514.16,95.71980801298778,89.36880298714547,98.15751722176427,90.79321852650699,71.64981859628745,93.92862067793318
9849.61,96.4019984465354,88.82950633008326,97.83670108841719,90.38099261841107,72.03212020327368,93.91475174060056
