Freq "Rear Wall Bounce"
20.5078 78.33602441204741
21.9727 80.98548969038573
23.4375 83.00658301542886
24.9023 84.59490648803371
26.3672 86.46244672216108
27.832 88.44707100680569
29.2969 89.81385510527643
30.7617 91.63535320403423
32.2266 92.81260990302174
33.6914 94.15615922303725
35.1562 95.15799459343098
36.6211 95.8841919408563
38.0859 96.39383936267852
39.5508 96.64207276537091
41.0156 96.75103996504464
42.4805 96.8418474450133
43.9453 96.85939175318164
45.4102 96.8207494051007
46.875 96.82480468974914
48.3398 96.81933531525264
51.2695 96.78554181371312
52.7344 96.77393875366734
54.1992 96.79772944452226
55.6641 96.85026124595603
58.5938 96.70928957590812
60.0586 96.74975715578978
62.9883 96.71359929070597
64.4531 96.64770848265444
67.3828 96.43549081994784
68.8477 96.36342592833688
71.7773 96.23814155500662
74.707 96.07531459575206
77.6367 95.95005651914992
79.1016 95.8667383275074
82.0312 95.69472328847442
84.9609 95.64876130989059
87.8906 95.67502875404783
90.8203 95.61730153922845
95.2148 95.64634983129332
98.1445 95.78154908299824
101.074 95.82425024105866
105.469 95.91963657428094
108.398 96.07205389839874
112.793 96.21358708363705
117.188 96.36383957827745
120.117 96.41400484688238
124.512 96.49643654626213
128.906 96.54526622515745
133.301 96.61165870940813
139.16 96.57410801757914
143.555 96.48808992398914
147.949 96.40546069122226
153.809 96.25097954809243
159.668 96.4705753297606
165.527 96.61786630991838
171.387 96.38169356580356
177.246 96.26241326091314
183.105 96.22924585208783
188.965 96.07095161693847
196.289 96.0521198759646
203.613 95.85289642004572
210.938 95.54403554520827
218.262 95.67028577799414
225.586 95.79008233115307
232.91 95.50467917861063
241.699 95.27316374466236
250.488 94.96240090116348
259.277 95.07033729301847
268.066 95.02393148269834
276.855 94.62732291183802
287.109 94.46144332691344
297.363 95.08147054464438
307.617 94.79041368147233
319.336 94.23919846135117
329.59 93.78721603986006
341.309 93.82277520578099
353.027 93.4620797269279
366.211 93.01253331359133
379.395 93.14867107771656
392.578 92.73075231640223
405.762 92.71898753180822
420.41 92.24062732507366
435.059 92.20861739478907
451.172 91.89671886986962
465.82 90.40944693881677
483.398 91.40861602497365
499.512 91.60159950702695
517.09 91.62537771649873
536.133 89.41521217983258
555.176 88.95938266160765
574.219 88.64493512536865
594.727 87.62855156223469
615.234 85.791222573844
637.207 85.8304441606244
659.18 84.89653080718274
682.617 86.12447697120155
707.52 84.91877269180713
732.422 85.56244296265442
757.324 86.379265193792
785.156 86.43490851797759
811.523 87.59463332312238
840.82 88.05015078021542
870.117 89.3298906589244
900.879 89.82062193672863
933.105 90.40505213080567
965.332 90.32757287211034
1000.49 90.33961116645048
1035.64 89.92197055644986
1072.27 89.23447572639715
1108.89 88.52340666959746
1148.44 87.621110404241
1189.45 87.27318539117026
1230.47 87.01845050299654
1274.41 86.91569067529964
1319.82 86.88060127141755
1366.7 86.11577033345989
1413.57 85.837042658968
1463.38 84.69398631684251
1516.11 84.46105448755941
1568.85 84.08528718177007
1624.51 84.4027999596524
1681.64 84.80864764933689
1741.7 84.41796645360127
1803.22 85.70498588206063
1866.21 83.7735822158843
1932.13 84.41453805974442
1999.51 84.16171528476329
2069.82 84.26182893148778
2143.07 84.23548489767312
2219.24 83.9730549928881
2296.88 83.15448570268384
2378.91 83.75767801521982
2462.4 82.55760100507221
2548.83 82.4274669902311
2639.65 81.42222073303446
2731.93 80.49378912190978
2828.61 80.63464168283032
2928.22 81.14981729279434
3030.76 81.12053454362305
3137.7 81.11789922399853
3249.02 81.10311345264537
3363.28 80.58751607638521
3481.93 80.88903055614016
3604.98 81.47746825993227
3732.42 81.60957887690974
3864.26 81.26016826869642
4000.49 80.32434800804617
4141.11 80.56751543219062
4287.6 80.86237345151278
4438.48 80.34884120071177
4595.21 79.60243665813204
4756.35 79.21806241928586
4924.8 79.65824677908878
5097.66 79.42381150916754
5277.83 78.13692755696788
5463.87 78.74357644093975
5657.23 77.10203471051057
5856.45 76.28514166515795
6062.99 76.2922380960435
6276.86 75.81893001693656
6498.05 75.92700555949928
6726.56 77.18354342639196
6963.87 76.28575784896965
7209.96 77.2615985377244
7464.84 75.6936056995916
7727.05 75.70477755214141
7999.51 75.10760857200596
8282.23 74.44661814307314
8573.73 74.10845970542023
8876.95 73.71586976363541
9188.96 72.76496717596238
9514.16 71.64981859628743
9849.61 72.03212020327369
10196.8 71.08841935513102
10555.7 69.73082038364406
10927.7 69.18147479039446
11313.0 69.31798331882682
11712.9 69.54395532170663
12126.0 68.81960088387139
12553.7 69.27790749037457
12996.1 70.01135651747073
13454.6 70.2564721775674
13929.2 70.15127217456627
14419.9 70.11308249825196
14928.2 70.88791351282056
15455.6 71.45330245778753
16000.5 71.03821573625446
16564.5 70.78855826220597
17148.9 70.7218167128183
17752.4 70.21032743994301
18379.4 69.50152497582907
19026.9 68.66156517679879
19697.8 67.40773029817102
19999.5 67.58845539510098
