Freq "Side Wall Bounce"
20.5078 78.90223542917057
21.9727 81.5263361721843
23.4375 83.53930591334606
24.9023 85.16001037644261
26.3672 86.97740629048131
27.832 88.93597974286499
29.2969 90.35168315344134
30.7617 92.09034387345235
32.2266 93.29805762646454
33.6914 94.65975951868262
35.1562 95.68862906371596
36.6211 96.3993749804771
38.0859 96.91229294306932
39.5508 97.15490448829969
41.0156 97.27664616403283
42.4805 97.36781473477708
43.9453 97.40125772145629
45.4102 97.346066295507
46.875 97.34421589211533
48.3398 97.33155168677823
51.2695 97.30681416443635
52.7344 97.30051474086665
54.1992 97.32293706239719
55.6641 97.3603082684293
58.5938 97.25185153037563
60.0586 97.29147621808156
62.9883 97.26724091577584
64.4531 97.2165715236929
67.3828 96.94020713657406
68.8477 96.865094014511
71.7773 96.7977179392641
74.707 96.65138208345756
77.6367 96.48264922876056
79.1016 96.38253381570958
82.0312 96.22042623414157
84.9609 96.1470312716806
87.8906 96.17481669170499
90.8203 96.19558407490844
95.2148 96.25949117567312
98.1445 96.3923261506309
101.074 96.40823825600913
105.469 96.50632903341628
108.398 96.75790329399237
112.793 96.94109164757691
117.188 97.07340426120714
120.117 97.12865626813159
124.512 97.22670434746206
128.906 97.25702121331088
133.301 97.28865283019735
139.16 97.27559463655372
143.555 97.29356138957559
147.949 97.27394538725659
153.809 97.21460871768767
159.668 97.395575160091
165.527 97.44407402258626
171.387 97.4283936008736
177.246 97.34246173607679
183.105 97.21062684372764
188.965 97.15783017219987
196.289 97.24943310340873
203.613 97.23209819174298
210.938 97.23996270081025
218.262 97.09276918731648
225.586 97.139393179394
232.91 97.27798130314179
241.699 97.11024679334156
250.488 97.07921701284181
259.277 97.08780082302252
268.066 96.67445660106114
276.855 96.55738590984288
287.109 96.34296589896859
297.363 96.73379605707945
307.617 96.52039251960917
319.336 96.39980113931685
329.59 96.17328709576276
341.309 96.08592601478415
353.027 96.1532543253534
366.211 96.22298645638924
379.395 96.75487035004798
392.578 95.86654925283838
405.762 95.60547530572077
420.41 95.30818890474039
435.059 95.26778833915957
451.172 95.64231993662877
465.82 95.43994465022782
483.398 95.49969018092983
499.512 94.6268253071274
517.09 93.962410989447
536.133 93.99847094441458
555.176 94.46725203407595
574.219 93.61555965866981
594.727 92.74665745559165
615.234 92.42264307826358
637.207 91.7980224768716
659.18 91.05758366452478
682.617 91.56588771973964
707.52 92.18831726219156
732.422 91.55767161787455
757.324 92.50260321196758
785.156 92.80428232674825
811.523 93.41776912285641
840.82 94.05076833275255
870.117 94.93516624230016
900.879 95.69622406974749
933.105 96.05577359823101
965.332 96.18898161663662
1000.49 96.30520527545619
1035.64 96.17409303128446
1072.27 95.84428170454832
1108.89 95.39173216741929
1148.44 94.80463106611924
1189.45 95.09007102634685
1230.47 95.19547436543829
1274.41 95.16563370085206
1319.82 94.90821443583638
1366.7 94.54267800055914
1413.57 93.42743265225656
1463.38 93.01964526284286
1516.11 92.77937162062788
1568.85 92.66245199194647
1624.51 93.24871961394359
1681.64 94.01523651494955
1741.7 94.180149087717
1803.22 93.88741809782644
1866.21 92.73156270210735
1932.13 92.68665330379207
1999.51 93.51520646511378
2069.82 93.32093000313786
2143.07 93.39771561634494
2219.24 92.31340333884314
2296.88 91.49231836256612
2378.91 92.74604586688258
2462.4 93.43849188939255
2548.83 93.0959427122992
2639.65 92.05109591691533
2731.93 91.39437081687817
2828.61 91.86919717663315
2928.22 92.71854439492213
3030.76 92.8378514857919
3137.7 92.80246144444575
3249.02 92.5226120050061
3363.28 92.52047828658594
3481.93 92.63843671667962
3604.98 93.42933919752953
3732.42 93.96859331478288
3864.26 93.24301474044029
4000.49 93.03619152932652
4141.11 93.35610533245615
4287.6 93.29318349649826
4438.48 93.19716994537882
4595.21 92.78042389236306
4756.35 93.03139795445671
4924.8 93.25451176492228
5097.66 92.87751472860373
5277.83 93.06460824739464
5463.87 93.10473074215875
5657.23 92.8605259191178
5856.45 92.16170243954411
6062.99 92.35845344681437
6276.86 91.7592774905917
6498.05 91.49032223041243
6726.56 91.68691418999818
6963.87 91.89503578774867
7209.96 92.40344993189647
7464.84 92.02982349274436
7727.05 92.51022491351358
7999.51 91.94759993971142
8282.23 92.18748465588514
8573.73 91.78807969212906
8876.95 91.43119036066503
9188.96 91.03135024163825
9514.16 90.79321852650699
9849.61 90.38099261841107
10196.8 90.27077640548274
10555.7 89.61161836187742
10927.7 89.19877042433485
11313.0 89.02875279084687
11712.9 89.11028598723507
12126.0 89.21476399720876
12553.7 89.31261545299202
12996.1 89.38244436676524
13454.6 89.42230506643273
13929.2 89.59640625480066
14419.9 89.72991215042089
14928.2 89.56294330256614
15455.6 90.35798170011915
16000.5 90.3153375971614
16564.5 90.11200090067064
17148.9 90.15186686138057
17752.4 89.92157906446369
18379.4 89.46759855704481
19026.9 89.00617916857095
19697.8 88.23247500172778
19999.5 87.58431310453656
