Freq,Floor Bounce,Ceiling Bounce,Front Wall Bounce,Side Wall Bounce,Rear Wall Bounce,Total Early Reflection
22.4,26.20123407755885,20.439976540078575,27.524810952799683,31.298473582877918,30.41665117674036,28.503265975911276
23.0,26.90123407755884,20.96960378207767,28.204883285825005,32.05307299094629,31.15282331420316,29.227009380132174
23.6,27.53049587637973,21.46960378207767,28.866117477230162,32.72649237335595,31.88589515868007,29.90699504626194
24.0,28.130495876379726,21.8304586289792,29.55668401582288,33.403053899261934,32.56100750662121,30.567769596218128
25.0,28.630495876379726,22.09542938949467,30.120947060604422,34.02085108280322,33.17506731156557,31.153510548152568
25.8,29.060236554670652,22.27158989436596,30.641746031700094,34.51835429428017,33.71474739851375,31.652980318956665
26.5,29.48910480561007,22.45174175299549,31.172289911615124,35.09250623897553,34.34519012284652,32.2140372276411
27.2,30.748271180208334,23.494157848607685,32.431578690766216,36.455656803961304,35.692358105694936,33.538148458901375
28.0,32.04827118020832,24.57520405134524,33.841051566377516,37.89565987831047,37.07836285225024,34.93427403165869
29.0,33.278578322151006,25.529841993012653,35.075642646054334,39.175551280340116,38.40100877218525,36.21039172277143
30.0,34.609374003214484,26.718929307684803,36.55321304566819,40.70526182895735,39.92526520634938,37.704772251824764
30.7,36.478578322150994,28.31294083213571,38.43888005898445,42.636170047898574,41.88547986555106,39.62739970374518
31.5,38.03858119222399,29.71198161579933,40.127015077288505,44.36685646177163,43.615736970562025,41.33048285304058
32.5,39.3093740032145,30.774140350131418,41.405992002180014,45.716497481488446,44.98839945783119,42.66613343027363
33.5,39.74066256291327,30.982086137643776,41.9451441591756,46.26844286422981,45.565483571003384,43.20950023168608
34.5,39.94066256291329,30.990836883233513,42.20519498928978,46.55725177195224,45.86563712468687,43.48675958840413
35.5,40.10123572626638,30.967992691797676,42.446439267373236,46.840176904453344,46.14425758846754,43.74797816089567
36.5,40.8012357262664,31.565644911857405,43.024985548591914,47.27201022628849,46.649546992163394,44.252710915722346
37.5,41.53331023801674,32.29260992008197,43.692778959612596,47.751307552193836,47.13739969263908,44.78989573516087
38.7,42.37244826645845,33.03225521365492,44.38343115205613,48.26336877519269,47.73087080135035,45.39228007492342
40.0,43.46588846059687,34.0943320029247,45.34674381989542,49.13665446278607,48.62746496166132,46.312516638382974
41.2,44.43752777300027,34.9784517593133,46.28362164262718,49.89640530896263,49.43816846016368,47.14218033251758
42.5,45.837527773000275,36.36757370216223,47.61489270294028,51.13285218061196,50.72118284164533,48.429717458416846
43.7,47.337527773000275,37.79237650736643,49.06569898536297,52.45488201363531,52.09443057522971,49.811760798435515
45.0,49.043148261094345,39.46466314161462,50.789499511164664,54.08138476418348,53.73354044563247,51.46861281764704
46.2,51.44314826109435,41.80512613244123,53.113720143340444,56.32976364991413,56.02809342686652,53.76428708970049
47.5,53.2501692307022,43.65954368393152,54.881619438281376,57.92826947241629,57.66091396363903,55.431976066921365
48.7,54.55016923070221,45.32776035838559,55.88362418723183,58.59118055971594,58.38836687938928,56.2731303781169
50.0,55.650169230702204,46.889883175113695,56.80677567355268,59.172180805867,59.02355702000078,57.02540704858684
51.5,56.811728464373786,48.3524019814282,57.84314802698765,59.95243520201164,59.83065320020066,57.934822013913816
53.0,57.984933415315,49.78928796039234,58.85336940756913,60.78881458347253,60.70762682690385,58.88530818210394
54.5,59.52022160616296,51.61330886278796,60.30536037494866,62.04736836662495,62.004817627440744,60.254834151780926
56.0,61.02022160616296,53.31709854678461,61.72189822988446,63.361960731432035,63.31331330507028,61.63115724589865
58.0,62.65858760124327,55.14284828345322,63.35602815786177,64.80019485450067,64.78033759183059,63.165296300064014
60.0,64.14680047887707,56.94027291475582,64.74014949442213,66.06097972239492,66.03939564372267,64.51046708293809
61.5,65.57383110211923,58.93353811062069,66.00500837401806,67.06412133859664,67.07614416056433,65.69697752886303
63.0,66.92926676879422,60.64091631318219,67.19953765058595,68.09897077206982,68.09718155715699,66.85648765543915
65.0,68.09238562216105,62.250030226460936,68.30529592214783,69.02498510211349,69.01075815571396,67.90217902586255
67.0,68.8501707521257,63.262822223396725,68.98099023875774,69.56948941077836,69.55301626115843,68.54676163744092
69.0,69.55017075212571,64.23149313701221,69.57760618513059,70.07500870048769,70.06860023935286,69.14576963543921
71.0,70.17977745790567,65.12774631127796,70.18880923608455,70.55403316058162,70.56432208821744,69.71942633807431
73.0,70.6098662867233,65.97296429705676,70.58813421139209,70.81803662304378,70.82259768318463,70.09215145458509
75.0,71.04044167945491,66.82432154763822,70.95905509047516,71.11582585968877,71.03449044229,70.46186743064656
77.5,71.37150800786938,67.45556502286216,71.20230990919569,71.27560446617812,71.20599907923744,70.72501249624223
80.0,71.43663575667186,67.80936525668059,71.2884942642923,71.26566120848739,71.18554541426312,70.78713957869275
82.5,71.86845083805433,68.46310810471056,71.69179303928229,71.5908623876454,71.5180012207873,71.19037089080908
85.0,71.96845083805432,68.8296230353127,71.76530278756358,71.62936642096986,71.51187592085411,71.27775835648768
87.5,71.80076749445563,68.98691806020398,71.59434024519469,71.39528742413653,71.24963944561114,71.11371619054346
90.0,71.73358982687998,69.2019023549985,71.50845818874693,71.25670432955522,71.12313764281289,71.05082486785298
92.5,71.80076749445563,69.46023655467064,71.56847000893637,71.26181385988035,71.09478006441141,71.10979829353225
95.0,71.8669218511605,69.74963978119757,71.66847000893637,71.29254869646832,71.13166871769373,71.20164744093185
97.5,71.8669218511605,69.9093740032145,71.61226549334766,71.26074770128238,71.03730352155996,71.18764063370014
100.0,71.9669218511605,70.24066256291327,71.7819804378957,71.37233893837266,71.11794572862321,71.33688634638982
103.0,71.80076749445563,70.2012357262664,71.58198043789571,71.14813545530848,70.88308265518906,71.1586357936346
106.0,71.93435140868503,70.46235742942079,71.6819804378957,71.24396845048443,70.97542904533572,71.29040473264082
109.0,71.8669218511605,70.52402487026022,71.6819804378957,71.2023023206405,70.89301886019068,71.26166485476637
112.0,72.0669218511605,70.82402487026023,71.87814647891834,71.4013709125901,71.06348764915093,71.47228825051903
115.0,71.9669218511605,70.78623512455239,71.79264660232009,71.28109801862509,70.93086571670105,71.37637406087994
118.0,71.9669218511605,70.8489851487955,71.79264660232009,71.28156054014522,70.89215251075001,71.38054082349142
122.0,71.7669218511605,70.6489851487955,71.51897109437687,71.00230232064051,70.60068971166534,71.13268303580274
125.0,71.36692185116051,70.27928732607432,71.16035311823195,70.6229455096677,70.21459991031956,70.75364385172169
128.0,72.03358982687998,70.91227178315619,71.84574459001024,71.28477650203509,70.84012558247882,71.41023319407783
132.0,72.33358982687996,71.24283030471975,72.18748929892041,71.60598456990743,71.10786813198705,71.72345004655303
136.0,72.23358982687996,71.14283030471974,72.08748929892042,71.48751894170378,70.97561357042132,71.61427576991004
140.0,72.6669218511605,71.54283030471974,72.4861845050195,71.88751894170379,71.33844897642409,72.0153133907242
145.0,72.96692185116049,71.8069050103546,72.85775667464532,72.22934852351544,71.64435684666446,72.33411501931043
150.0,73.23435140868501,71.94283030471972,73.0861845050195,72.44849756031407,71.83918111974488,72.54784899888743
155.0,73.53435140868503,72.24283030471973,73.41442746339747,72.77202580530268,72.10836904024329,72.85365558708256
160.0,73.70076749445562,72.34283030471974,73.61442746339746,72.91140111290818,72.19772807500676,72.99807800721052
165.0,73.73435140868501,72.34283030471974,73.62914153605898,72.89379028706917,72.15584171012597,72.9990227987151
170.0,73.76845083805433,72.34283030471974,73.68618450501948,72.91594938796183,72.13499523125937,73.0212640859873
175.0,73.7022846139602,72.24283030471973,73.62914153605898,72.83652796380879,72.00339884731396,72.93825436782613
180.0,73.3022846139602,71.77928732607432,73.22914153605899,72.39709610550811,71.50339884731396,72.50375703895587
185.0,73.23663575667186,71.67928732607432,73.15775667464531,72.27983005545124,71.30315664209495,72.39972655364096
190.0,73.26845083805433,71.6489851487955,73.20099441428073,72.27983005545124,71.24505433574964,72.40373289574278
195.0,72.63663575667186,71.01227178315618,72.60165212437174,71.66125264727026,70.53425690779935,71.76951566717821
200.0,73.00306957104252,71.3489851487955,72.97266367710968,71.94674014557197,70.81427317145769,72.10344088968273
206.0,72.66845083805433,70.98219967332305,72.62979499755905,71.62369830550884,70.38896116829645,71.75027760610331
212.0,73.60306957104252,71.91916705502754,73.57397253892371,72.48505351870533,71.22609567155452,72.65935429353799
218.0,74.20306957104252,72.45260953202218,74.1739725389237,73.04674014557196,71.74846311494137,73.22972160374624
224.0,73.97150800786937,72.1898285667347,74.00229476693693,72.7914720522429,71.49262425894544,72.99997019785386
230.0,73.70306957104252,71.98982856673473,73.73175513861906,72.57161637108523,71.19833520409023,72.74808924961792
236.0,73.87150800786938,72.06096514237181,73.87525122642457,72.63677387477598,71.289616382642,72.86350114332585
240.0,73.97150800786937,72.22758719283593,74.07525122642457,72.77688129728121,71.42887455978068,73.01305691206962
250.0,73.84044167945491,72.09897445130926,73.97525122642456,72.60071323297295,71.25097688995722,72.87539124599992
258.0,73.77609175449221,71.99897445130925,73.97525122642456,72.54696665749483,71.14015135779847,72.81743351616718
265.0,72.9760917544922,71.17082970284298,73.2336698070903,71.71309906233544,70.28078340798092,72.01378674826378
272.0,73.44576719438469,71.64898359150843,73.8336698070903,72.20468072914875,70.68023204777307,72.51454001191497
280.0,73.05260953202217,71.34898359150841,73.57525122642456,71.87426134793658,70.22844897717516,72.17766451895142
290.0,73.76096514237182,72.22179738688895,74.47525122642458,72.64207582704607,70.87484933528063,72.9702715807526
300.0,74.77082970284297,73.52179738688895,75.67525122642456,73.75929007237313,71.77801869779901,74.09132505473568
307.0,74.48219812790055,73.62179738688896,75.57525122642457,73.67145342892547,71.45853964446721,73.96108107466394
315.0,74.62179738688894,74.32179738688895,75.97525122642456,74.04102466843933,71.64154168894004,74.33197733176958
325.0,74.43546263134682,74.74898359150843,76.07525122642456,74.11108114487324,71.51570267073896,74.41121930524257
335.0,74.14293979360188,75.07662798253905,76.03175513861906,74.11108114487324,71.32714227445028,74.39622386562908
345.0,74.08382334167595,75.63752777300029,76.23175513861906,74.29772752574556,71.38607406322528,74.62053666148758
355.0,73.32526453928848,75.49897445130925,75.70489499373623,73.79772752574556,70.73379878802571,74.14937565048653
365.0,72.36726558859611,75.08982856673472,74.93175513861905,72.99772752574556,69.83683134281425,73.43347022171302
375.0,71.59237898809799,74.85260953202219,74.36035311823196,72.45560262836844,69.08559996477835,72.92220405630576
387.0,71.67641629732151,75.25260953202218,74.46035311823196,72.63558189513117,69.00310387462666,73.1154635833608
400.0,72.05647994661607,75.71592692226706,74.73108675663174,72.9718083654255,69.07285903503434,73.46242259112755
412.0,72.63331023801675,76.1457671943847,75.05840584504061,73.40111029491153,69.15595039549919,73.86229775690997
425.0,73.25380974359446,76.2797774579057,75.2584058450406,73.72449342995199,69.1859633711915,74.11755457622425
437.0,73.91007799780293,76.2797774579057,75.51508314243883,74.09849845836965,69.32772989060349,74.37527497988201
450.0,74.14283030471974,75.88219967332304,75.42979499755904,74.08034161238685,69.19832806090038,74.26572352706108
462.0,73.81227178315618,75.18219967332304,75.05840584504061,73.7690638072412,68.8087066532535,73.82030965831233
475.0,72.85667255930052,74.15260953202218,74.20229476693693,72.84614041559271,67.85094397701592,72.87772684563072
487.0,71.72758719283591,73.08982856673472,73.24675150375354,71.77803608195633,66.67487726361209,71.82321474001829
500.0,71.76588846059688,73.28982856673473,73.46528715999551,71.81043399012995,66.49141591467072,71.9415801170806
515.0,71.63752777300029,73.28982856673473,73.38336396340043,71.52503107496469,65.96290339987713,71.81029408519514
530.0,71.76588846059688,73.48982856673472,73.52940676691627,71.39768492470567,65.67142884877263,71.8965213171302
545.0,71.88623512455239,73.52758719283591,73.47602210108666,71.20012063113514,65.45575508780003,71.87114884414636
560.0,71.57928732607432,73.12758719283592,73.02940676691627,70.64110121276936,64.96652419095598,71.44574235749049
580.0,71.20542400732661,72.76588846059687,72.55802016372603,70.0115204886316,64.46033433231338,70.99997111664352
600.0,70.70231994589774,72.29897445130923,71.95802016372603,69.26989728786947,63.753589471173356,70.4341001975217
615.0,70.3669218511605,72.13752777300029,71.49924142396787,68.69758033034122,63.16820500859029,70.07289981471105
630.0,70.53513059177983,72.27662798253905,71.35802016372604,68.41664153031097,62.90501598585513,70.06642515933406
650.0,71.07609175449223,72.64898359150841,71.32940676691628,68.27883251401572,62.67354714223613,70.28369512506147
670.0,71.7797774579057,72.82179738688895,71.0136394060688,67.95089294245942,62.19534100857625,70.39343312245059
690.0,72.2744935103044,72.33546263134683,70.18539130564125,67.1035105107031,61.30993478513544,70.0796615048501
710.0,72.20542400732661,71.1687803399679,69.29867242696348,66.06330361863958,60.47181795307323,69.38197564376145
730.0,72.58493492460849,70.56283617001537,69.79942293182198,66.265526874414,60.922948266561605,69.49733518376858
750.0,73.77383110211925,71.1117284643738,71.59942293182199,67.83908648822644,62.67593819571211,70.72954634841848
775.0,74.81152326304966,71.69238562216104,73.38279645161536,69.45053199710085,64.27672629944026,71.94929117696331
800.0,75.22021956404322,71.67896989520115,74.57455785944566,70.44212414356143,65.15263381625343,72.6010083062438
825.0,74.92545123408709,71.1053180676647,75.10287628300401,70.85892582680411,65.29234250329624,72.64501552998365
850.0,74.2708338338135,70.27150800786939,75.31068966302631,70.97010935367273,64.87860829970818,72.40180989483056
875.0,73.33638088039145,69.48623512455238,75.31068966302631,71.00832000749779,64.13702334395116,72.020385021049
900.0,72.23308937677078,69.01192126753355,75.01941403242198,70.96025495039571,63.300702855811366,71.52687249299264
925.0,71.13510550729974,68.56226741403312,74.38847217927515,70.5891267588773,62.502138359311886,70.85433300575629
950.0,70.25865853259174,67.88759923684218,73.31941403242196,69.71493821587137,61.70284455048224,69.91954274148091
975.0,69.69317164073087,67.26620989389217,72.28242230727825,68.71113930468404,60.80923987138412,69.05227786457003
1000.0,69.75380974359446,67.18759923684219,71.80631904730495,68.14051509853554,60.32121422440731,68.74290184749053
1030.0,70.57001488257475,67.46620989389217,71.79942293182198,67.99262540520974,60.31002970498105,68.97504305443174
1060.0,71.50076749445562,67.24171952330975,71.62579638388722,67.65990136967112,60.18455068798714,69.12167222402604
1090.0,71.83964531976001,66.09689984743687,71.28147278830731,67.02983415542893,59.71855839842152,68.89427030074573
1120.0,71.86419800295964,65.08067853625086,71.10343598990848,66.66970393217366,59.34959240782588,68.69008926757984
1150.0,72.40722417372365,64.79533257014982,71.25378373474548,66.80181877115987,59.6000114913722,68.97305966649267
1180.0,72.60943953665229,65.02790007353128,71.44441901451354,67.19992048843102,60.12700512764374,69.20568529991596
1220.0,71.9605354372717,65.81323574403132,71.71637105372865,67.64910857898575,60.49572407846472,69.17051123617281
1250.0,71.02456002321573,66.56226370149552,72.31637105372866,68.2742900910669,60.990424239131826,69.26503352771353
1280.0,70.47163626839114,66.62618710391504,73.46761108534184,69.43618609129489,61.98465593642693,69.8523201957096
1320.0,70.01457825789491,66.3165581917717,74.57455785944566,70.63490304114853,63.03968303082999,70.53657077566908
1360.0,69.17477325204105,66.01152326304965,75.08242230727826,71.4180439149531,63.702667442590666,70.84195458612787
1400.0,69.02946788507585,65.09913536951436,74.97848478147017,71.95689089113652,64.16549540886963,70.86366957766214
1450.0,69.33124742103952,63.492570114136086,74.18585448910238,72.19117716703782,64.53141176863919,70.5250859089113
1500.0,69.12300557240916,62.10261155895364,72.55105825681372,71.3575571736066,63.83615683983261,69.4325544324764
1550.0,68.98561620017752,60.83788730291393,71.42239880304932,70.23543498650172,62.49783957693343,68.4929044491422
1600.0,68.0788903832347,59.954988570399635,71.2861845050195,69.20197989250151,61.00694772835173,67.84532860947917
1650.0,67.53307471484196,60.30994607707173,72.1351604799582,68.70563548368823,60.15390214462475,68.0001718505532
1700.0,67.12894116595774,61.19868001632912,73.32579638388721,68.50916821259116,59.58506771220988,68.5722451784751
1750.0,66.32130837134743,60.65651423294884,73.32833223333884,67.36954353657639,57.675751706293596,68.19703022504565
1800.0,65.4914839219782,59.262647895414815,72.7101832524099,65.73551069976565,55.305054147014815,67.34555202100152
1850.0,65.29472217650472,58.01125926819569,72.37967560724924,64.68046745661952,53.24107427856424,66.89533921239754
1900.0,65.34527306883602,57.87691451983919,71.798717831455,63.718011301072124,51.38700228428033,66.36688787877259
1950.0,66.44109432205927,59.241016016522934,71.56413532059088,63.09944387216132,50.226588800776014,66.3806314709873
2000.0,68.08382992528654,59.33610916285626,71.80066955620748,62.857406442177435,50.03242720399284,66.89491813025192
2060.0,68.39701892675755,59.872879377982315,71.80907432277041,61.94403324974998,50.13261103459605,66.94072966544918
2120.0,68.99749950966175,61.772964297056745,72.07630395629819,61.437042138805324,50.52775120443174,67.33644340817844
2180.0,69.76826674204793,63.18375466535768,72.21428288268604,61.14719962138557,50.7316511200181,67.72807233170471
2240.0,70.7796012143346,64.1004100917201,72.50105373653965,60.667513917434974,50.837003270996334,68.27517261351038
2300.0,71.81393096343395,64.58687453695434,72.45012928551357,59.303277258325465,50.66766342231311,68.6460277059638
2360.0,72.74142414074042,65.18418429607713,72.4860797840568,60.985931884103806,50.47303601923677,69.15830798303294
2400.0,72.6187509116431,65.57441027910367,72.92837387940803,64.98341105552429,53.35896718188157,69.5306724737434
2500.0,72.22324058002984,66.10721172860907,72.69026929804244,66.36039531856926,54.68347409490933,69.44129359622663
2580.0,71.98575332848853,66.27789079450554,72.6026041809904,67.09964494347925,54.844531280050546,69.41336343647005
2650.0,71.9304221401736,66.17082970284298,72.59160249640016,67.3036853186323,55.05870362228323,69.40467613381439
2720.0,71.81274087273613,64.52699787697726,72.22295739867847,66.79370084532239,56.19556298735212,69.01955820882024
2800.0,71.3497239234053,61.99727311966744,72.05787158034092,67.13018672737815,57.160864223774894,68.68936846175342
2900.0,70.03123448087673,59.199066089813,72.01647480001743,67.4146235835167,56.85989990968051,68.1706473780561
3000.0,69.2079332973991,56.274725478757375,71.65551465162895,66.57833812589338,56.35976421751086,67.5401071027322
3070.0,68.04938818866529,57.78366865039732,70.59867204621588,65.207071713388,54.51476730272431,66.4462694946572
3150.0,66.74762384248065,55.831092880996266,69.83027500059524,64.36027217770385,52.863265540032714,65.4780099142284
3250.0,65.87296667698641,56.92429736591518,69.15173591754895,64.26057043244866,51.90849187686257,64.8874650312694
