Freq,Floor Bounce,Ceiling Bounce,Front Wall Bounce,Side Wall Bounce,Rear Wall Bounce,Total Early Reflection
20.5078,52.09794982905052,51.65976207494333,51.71006027462079,51.89190424181456,52.485815732266474,51.97967383316444
21.9727,56.05241738898104,53.55172155641614,54.909151947978614,54.7299192780238,54.25264700571989,54.7786550001137
23.4375,59.757375749446624,57.35802878193894,58.69618797071206,58.65111694099559,58.64105362602294,58.68633916753353
24.9023,62.55449045971923,60.45591574899589,61.63866851751311,61.56803855050768,61.42741474554492,61.57985479224433
26.3672,64.67370657535906,62.650041950687495,63.794740580165865,63.7079504268651,63.51784616483803,63.71680205456116
27.832,66.93248557262558,64.9750804788153,66.07522872970128,66.0231964925724,65.89171369443028,66.02381395634337
29.2969,69.28000256879966,67.49170795581908,68.45591627130136,68.51052091887337,68.714636296169,68.52817569379239
30.7617,71.5075326934966,69.75808021507356,70.75541840962208,70.67800844734275,70.49058111608795,70.67394168486989
32.2266,73.53775604120368,71.95559398549135,72.87113141935313,72.7484671857206,72.45087857580239,72.74399381631723
33.6914,75.1795387058741,73.67014598126971,74.53553816314539,74.45107903478566,74.24457713524187,74.44346981797129
35.1563,76.92613085460647,75.4921942222819,76.30077541645576,76.2630169072335,76.19843945952367,76.25980566458298
36.6211,78.30990075249767,76.7265480204002,77.62516835687714,77.57722366287798,77.54894378609609,77.58633089026314
38.0859,80.40418449327017,79.09436228127907,79.89121298929271,79.70791395012829,79.23455538932838,79.69223692533444
39.5508,81.2762597387434,79.93415319204571,80.74246049926042,80.58325198166975,80.19606936744148,80.5712712603825
41.0156,82.23323595359616,80.95210030920737,81.72658800588603,81.5684928167138,81.18958945716932,81.55684312985612
42.4805,83.02653462343993,81.79067745345839,82.5422002328487,82.3813044862058,82.00247730917138,82.37019790654472
43.9453,83.78799472733883,82.58277609993786,83.32408911969503,83.1489272983454,82.73488458071071,83.13721204655832
45.4102,84.3862364503039,83.21324450373857,83.94039888513429,83.75753725785134,83.32141495716951,83.74486745097587
46.875,84.96953057160613,83.82366717134366,84.5361028423352,84.35541989610181,83.93398180539292,84.34380867949356
48.3398,85.52664007698051,84.38769149878566,85.10269653550043,84.90759493513963,84.4502767988034,84.89574581774708
51.2695,86.37756079215504,85.3086864362908,85.98446760145512,85.79599335492587,85.35427380269249,85.7827667715558
52.7344,86.77207746639417,85.7156747039051,86.38314489630739,86.19933861429163,85.77679419021959,86.1872475277824
54.1992,87.20146043022508,86.15317851239344,86.81585481095308,86.63470259926902,86.23262878672675,86.62480585035772
55.6641,87.6444196141426,86.603722861151,87.2648683120452,87.07996293422866,86.67985174426337,87.0716325300708
58.5938,88.41847168237818,87.39476087448398,88.05200499839941,87.85607756844479,87.42967327790785,87.84747817879823
60.0586,88.81134640277664,87.79092372445011,88.44452778371873,88.25500492386749,87.85325790661417,88.24767786874605
62.9883,89.4997888097551,88.49663134071771,89.14756665279566,88.9455552395361,88.53244292473764,88.94102527162671
64.4531,89.84920518902146,88.85367773287659,89.50526844439693,89.29241320403793,88.85198395751786,89.2876270067148
67.3828,90.58007510521557,89.62524841966345,90.25310325775439,90.03881089431374,89.58028867000887,90.03210124908937
68.8477,90.86712051214016,89.91228455059633,90.53847210261728,90.33093288083086,89.89283410798866,90.32441611918314
71.7773,91.42573623547652,90.47494486602622,91.10006239439329,90.8913153645961,90.47173731314398,90.88842591994435
74.707,92.00040792503117,91.05774670481341,91.68031067652018,91.46770883597142,91.05467403743717,91.46759465519949
77.6367,92.55674587546824,91.6203901975683,92.24210319571763,92.02425182996105,91.61207312584085,92.02646065218451
79.1016,92.75266827004917,91.81706703279073,92.43982107054228,92.21922975890341,91.8067625012549,92.22248502518232
82.0313,93.08907926643982,92.15867819906961,92.78071857642314,92.55565722409057,92.14393458618578,92.56092891472426
84.9609,93.45784893135114,92.51354265927617,93.14574014286418,92.91732873904485,92.5142863006023,92.92524788038318
87.8906,93.77544818761987,92.85139328807124,93.47329798582365,93.24137328856915,92.87613995976297,93.25799168654149
90.8203,93.9744022616186,93.06087973860343,93.68106616533908,93.43340141568784,93.05710824373492,93.45605413509577
95.2148,94.24259806670386,93.3149876243031,93.9535777000836,93.68275006603281,93.25153895584431,93.7054642849497
98.1445,94.37835967244615,93.4438169211013,94.08840141811764,93.8116297613206,93.38066986680776,93.83719747035555
101.074,94.34107603196152,93.39533672828507,94.05230837589248,93.76238373647129,93.32256952632844,93.79200210264483
105.469,94.34075569527052,93.40676685763052,94.06742679805362,93.74925364607631,93.23340832955209,93.7787682332326
108.398,94.37402590523146,93.45655539141806,94.10196475944863,93.79224805409974,93.30014890163586,93.8231941085213
112.793,94.17181605982674,93.22846510239037,93.88652121343563,93.58048922473958,93.16288070304381,93.62312988529823
117.188,94.01297418806332,93.0073611512202,93.71731903658966,93.38102002178327,92.94438415177706,93.43201338715818
120.117,94.00756010288673,93.01615128428536,93.73014300995769,93.37277691502828,92.89276871036361,93.42430847029233
124.512,93.94036925005436,92.98399923341928,93.67692558341022,93.31341198693494,92.85055359515472,93.37247936031395
128.906,93.82286495709,92.82873139391882,93.55105614969108,93.16036889064483,92.6779548972847,93.22953887572046
133.301,93.69628113909808,92.65592981631985,93.42634927518166,92.9961569475145,92.37299230654476,93.05656977272488
139.16,93.37133570537577,92.35844233158356,93.09626986802724,92.70075476572042,92.1355750647069,92.75641436335926
143.555,93.17649936511597,92.11066704078688,92.89053678724049,92.4636356555818,91.92999822039492,92.53939762695364
147.949,93.05982659528378,92.05008861823453,92.80881897571201,92.35716329898342,91.87399546556276,92.45308556352992
153.809,92.9017236883021,91.85715890224893,92.65035390688405,92.16670461038322,91.50585828313706,92.2461129153877
159.668,92.56806150003779,91.50332268071787,92.3007015765927,91.80709113563704,91.13118932776098,91.89325968913816
165.527,92.30129454248672,91.13991913465894,92.00988116456666,91.45297958189374,90.92795522307671,91.59743928179564
171.387,92.49411079187396,91.35308277141083,92.24975025572714,91.62636305954676,90.78615057427785,91.7451373440324
177.246,92.38419343040826,91.2002539283103,92.11307537903573,91.52398541214428,90.77286818809316,91.63856332435694
183.105,92.24569823132232,91.14075997817099,91.99900767843113,91.4196461354109,90.70988160075683,91.53893297330843
188.965,92.05778004408424,90.89675373659077,91.80592315668589,91.18155047363412,90.53377340774387,91.33190242661976
196.289,91.900631907891,90.74599969528553,91.65533469696365,91.00270749265613,90.44297804441345,91.18431249156012
203.613,91.64002294988411,90.4138395130143,91.4225303306172,90.62889308553733,89.88999967709707,90.84731456489345
210.938,91.77145868746634,90.52292688809388,91.57703432919061,90.70018302333096,89.56844676360811,90.89889327702024
218.262,91.74023694921728,90.60348427694754,91.52618752729003,90.80472809484806,89.6515430118128,90.92685916101725
225.586,91.27915306783179,90.0668660927829,91.04231596404607,90.2887264661111,89.60490587086132,90.50074419026552
232.91,91.27550175117909,89.78742003237147,91.0033890852543,90.0712774733499,89.17088222844265,90.3312341461326
241.699,91.3494957310174,89.9289445317899,91.110171439977,90.12742847754997,88.8571411827319,90.36458612556476
250.488,90.9015124476361,89.47699533398045,90.69758325755515,89.69945895914367,88.43105734308584,89.9312023602774
259.277,91.34723422945376,89.89332794748321,91.16973561038714,90.06690225681459,88.41314265062508,90.30033151296334
268.066,91.45213036206175,90.20284856614646,91.23343520064833,90.36672525170908,89.08139720393518,90.54672753113627
276.855,90.85164964427815,89.29690274889111,90.58239478359651,89.46068199261668,88.36431438037931,89.80464810363742
287.109,90.96929989451664,89.21407827503839,90.67487838215318,89.64024873324655,88.13597692104571,89.84452623739207
297.363,91.08585977500874,89.58794524812558,90.8874878280707,89.71962244759362,87.9925263094863,89.98923982922847
307.617,90.59889036334437,88.92307562710262,90.32289195435627,89.15438366220346,88.79490199116302,89.6248164069362
319.336,90.55101109960665,88.3758595027081,90.23354875952765,88.60095784150236,87.4035502413713,89.19403013434157
329.59,90.52779377932067,88.12295151827708,90.13967497982716,88.58839078332342,87.06641664600187,89.07668688071561
341.309,90.74438766728895,88.17422135817549,90.39629211651733,88.83607003546244,86.44315635818583,89.18562119384129
353.027,90.54869829043574,88.29550903003727,90.6012453936269,88.52995318407265,85.73657480471809,89.08062370990497
366.211,90.14504438786061,89.10203756096506,90.46629488364421,89.004136443681,86.5469947315968,89.25017625645405
379.395,90.2554740653918,89.87043551706971,90.84792320212847,89.02448001740342,86.4337488048295,89.52844830321935
392.578,90.3453806544203,89.51509658241079,90.34582200647725,88.26907495699211,86.74016708398923,89.24628726786669
405.762,91.7753909573967,89.66294998109291,91.26437559788447,89.0728546894282,86.62417574261514,90.0308845551614
420.41,91.11877099725773,89.05722955550519,90.66707570418369,88.9995289689978,85.83221671260428,89.48606691102759
435.059,91.08750856600405,89.02847852175319,90.66273833008506,89.14546964910305,85.57934586480377,89.4760081036379
451.172,90.6265662919166,88.4603919620526,90.27716220602886,88.75165129065073,85.2058400481082,89.0356448123654
465.82,90.5979148892089,88.48143632169646,90.27172291033561,88.73810273511351,85.09381700140685,89.01792763139358
483.398,90.69141856138825,88.22349302185808,90.3689430630362,88.86100991405907,85.09746145384426,89.05065266855739
499.512,90.67671200614822,88.9195955127549,90.54748337443063,89.1830700164088,85.11301408201801,89.27967238496433
517.09,90.34104295727326,88.40872271252721,90.15483541336519,88.76316052973932,84.62088571886889,88.86848667209127
536.133,90.3145423122908,88.17880559164828,90.00938750841061,88.58940191753503,84.85926637237743,88.76629886855184
555.176,90.31692292689694,88.11144912170485,90.0168808784124,88.7225896520996,84.6347878593394,88.76547441609696
574.219,90.52265252226495,87.6571544240849,90.27889852320033,88.74971855472555,83.82346920760487,88.7717586325906
594.727,90.09255261487843,87.76798798318526,89.99302754808409,89.53779748956781,84.6856566011158,88.82098496512316
615.234,89.63886057601476,87.12256915321115,89.6643298093311,88.81541969009893,84.87601379700777,88.36319728160437
637.207,90.34431266369413,87.46385912462674,90.10909608023026,89.58220798334142,84.78686990568403,88.89300990654195
659.18,89.78815938866258,86.73482126085048,89.59135795346353,89.28886422662336,85.488298420667,88.49653738125039
682.617,90.40171996638227,85.92283052579751,89.9704881269347,88.47603186027169,85.72866176620425,88.52392238847163
707.52,91.45567537895114,87.13215598076403,91.1282964787888,89.11457382717589,84.5299106480949,89.35596584382769
732.422,91.21048075250857,86.52586596078739,90.64169641434728,89.1631644568703,84.93204568146322,89.10206019133365
757.324,91.90606096031405,86.19728529618583,90.8311143975548,89.02363566264256,85.77441228206308,89.40029755101023
785.156,93.06781632916594,84.67750915564322,91.1385766181352,88.91879905864465,85.14533843064342,89.75579536635816
811.523,91.15187835208557,74.62128103670105,86.52433106887304,85.09544276329936,83.40749216431787,86.67324760926499
840.82,86.26373310456407,81.9909663700023,78.00984664639924,74.12701390761649,77.36104245688796,81.61223438271519
870.117,80.11320810998362,85.92646064670531,84.59686360321797,80.9155397845654,71.99119716510671,82.65545787755894
900.879,85.33230859020405,89.47965747991428,89.67155370196551,86.32619091838316,79.50467746180632,87.28191857641025
933.105,89.23606260502709,90.6134224040442,92.4637581238494,88.71805122235645,82.91127681153567,89.72554352205162
965.332,89.98567520570602,89.66876738232236,92.18797839359138,88.70436273839783,82.08945655663757,89.52513116132852
1000.49,89.43633239200483,89.52888600324295,91.52589636790725,87.83612090507062,82.2821268785145,89.00168624805072
1035.64,89.5799673543168,89.63831865293807,91.39083920874212,87.69109032479045,81.33970134812078,88.95329111836892
1072.27,89.24114381122142,89.41033603567415,91.62182456099349,87.96779166557991,81.3671670673571,88.95282834752248
1108.89,89.08488417789883,89.69345652953383,91.92682529307005,88.13025222548025,81.0450272069946,89.11438927274374
1148.44,89.87651586380079,89.95842230874592,91.79149302877039,88.34364031249169,81.39820861328046,89.33885054409583
1189.45,90.16342887266765,89.18784939629899,91.68037076818729,87.68312156980825,80.7483897092634,89.08012056766144
1230.47,89.69311692303118,88.68719362371857,90.74900727263132,86.8552886701483,79.78856261135424,88.37480467030421
1274.41,89.65653883428159,88.1876614930086,89.83452141399749,85.4887090579977,78.33868156007236,87.73420691980827
1319.82,89.11075062780479,87.74242249033227,89.82715877920575,85.18954980678235,77.58127571155228,87.41637479077941
1366.7,90.1449577115749,87.63927565234525,89.93867982138111,85.10279068511066,76.81328267143306,87.74137188744476
1413.57,90.5452165288481,86.34337501332378,88.79400480241652,82.58013165192351,76.28225016347434,87.06850398937812
1463.38,91.13425488614409,80.84692754646,87.68222709698813,82.27311920931318,76.98598531323418,86.48390441502524
1516.11,90.49149972636148,80.53580829182204,84.61859290332208,81.08771395383724,75.76079617829288,85.28591276058363
1568.85,89.17482058869983,84.64801795512987,79.81855317690369,79.06648696558042,75.78414443547601,84.25863943762641
1624.51,89.01645962322915,87.07906153533192,76.68938638227877,78.04689960575348,76.52328573015102,84.66300375694216
1681.64,89.18876734881042,89.08688098156692,80.85907225454758,80.23310446390715,78.10097647550481,85.87028366001474
1741.7,90.26123154889629,90.11830020984814,85.12474108523418,80.18494072412618,76.64868751111592,87.10223612994272
1803.22,91.51283734089475,89.14046000181057,85.635199606639,80.38946856946569,74.2723928634234,87.38672336188156
1866.21,92.23337124059387,87.63571493303823,85.51134533798555,81.29808640698073,73.60229730944523,87.42894598969917
1932.13,92.64663989182006,87.14437397921556,84.19244658633997,80.50380341674,74.91936437355794,87.42471814839743
1999.51,92.94636500170029,86.57531751774594,82.00060014156789,79.71414265974948,75.33303081157848,87.34248327719064
2069.82,92.54940177251814,86.87566206325556,82.56332371452305,80.27236477714507,75.44287922597424,87.17270087024166
2143.07,92.48405831578904,86.52148648650964,83.42049140470752,81.82579942535057,76.86287063742537,87.22846506047735
2219.24,92.80698920319996,88.13762365364369,83.77622619201102,81.24912056695548,74.7332093086642,87.72532805711789
2296.88,92.30799292865089,88.34739861923163,84.45872106935765,81.29853082111663,74.3432180599724,87.52214679269636
2378.91,91.7432363966837,88.68405731376721,85.77107693733262,82.49520181969342,75.76092092073822,87.52121767796727
2462.4,91.5965125200192,88.5349900870985,86.47219368942051,82.86151773684082,75.7330303631235,87.53197828912646
2548.83,91.35617581020037,88.82322978785356,86.66055251855961,83.17890176351254,75.91267059100753,87.54289016903394
2639.65,90.77538458921593,88.75511534006473,87.75011822989288,84.27336531190562,76.33147286963523,87.5624069767272
2731.93,90.3463241301825,88.18132177360332,88.06638814394984,84.85917704349768,76.69158558139883,87.37886597527577
2828.61,89.96139244004965,88.10390527241152,87.99750666561624,85.50359458721918,77.96995852970515,87.30095246197217
2928.22,90.10145688200751,88.83883416520146,88.12791349557023,86.11889095388212,78.32353547302986,87.65814044747839
3030.76,89.88183109210567,88.86965979263178,88.82643533673522,86.85016373876859,78.50361403317939,87.87071171282291
3137.7,89.66641316986743,88.50709626731381,89.02275497483524,86.98485922814669,78.47541797726056,87.78658675655971
3249.02,89.47751831229634,88.36931040205934,89.45081586682164,87.23775973112912,78.20356971944092,87.85377808341796
3363.28,88.88604994465756,87.52538179861047,89.75150921815994,87.43535311803106,78.47943477863168,87.64665753949416
3481.93,88.82998736201107,87.33388448926965,90.5537523961208,87.86731655845324,78.60567077539532,87.95959792395242
3604.98,89.17516554736535,87.98614893096722,89.97715947261828,88.27691837237651,79.25436927690829,88.07189530655714
3732.42,89.22043633216859,88.3107261835308,90.88225522257842,88.28677619074539,79.00402315549688,88.44132590104357
3864.26,89.05980534971766,88.5437366649179,90.74476753356109,87.929820764743,78.42060693341162,88.32238084343983
4000.49,88.92590173283438,88.62613773502508,90.96888198764375,88.20298197539186,78.65299249358776,88.44367447830506
4141.11,89.19182885837397,88.40555839828117,90.39634457120187,88.32194696158481,78.63471600209019,88.28789543425816
4287.6,89.43360614554473,88.56326450759752,90.41837143552574,88.37167503452625,78.62250106685786,88.39772475310444
4438.48,89.68801413786446,87.83583520048036,90.42315643797042,88.59542230700261,78.99071170064643,88.380313933239
4595.21,90.19637060930899,87.79846546055818,90.73842118681283,88.51636662452191,78.06826058305995,88.58375038849786
4756.35,90.04868044163514,87.28511002313125,90.66631648838535,89.05339614901706,79.14171129496191,88.57152523190042
4924.8,90.27773070072999,86.84936393310967,90.40811518977732,89.01838973480584,78.11644755504415,88.46482923664132
5097.66,90.20859588153077,86.59642131685823,90.59574527039825,88.60947981450839,77.56232014692841,88.37084424527896
5277.83,90.13945257736765,86.8184519580012,89.96238013504278,87.97272863219054,76.69600699243347,88.03240262317993
5463.87,90.07641822807,86.7380858900528,90.09452499932561,87.69868160802807,75.60161674615952,87.97488680163175
5657.23,90.22412882898453,86.88249889842193,90.26752884611983,87.21211924116855,75.45584613493081,88.01500530186927
5856.45,90.87487327752834,87.31076499005837,90.15475926329036,87.42960154970524,76.10429654663486,88.31471868710517
6062.99,90.99870036473068,87.83470032971191,90.08098074924546,88.15570213838271,76.41733518354536,88.55225692085384
6276.86,91.3743464471655,87.96365194164386,89.99108999285656,88.38381062431625,76.50011674757087,88.72719023997907
6498.05,91.651813835573,88.23525728073307,89.96730947175845,88.58738835670823,76.48517462349997,88.90780756079843
6726.56,91.82265259698993,88.65836765055028,90.89320599871013,88.64050905711588,76.20180453509707,89.30132534420551
6963.87,91.96924652931584,88.7645724069118,92.04392313637072,88.86512433657359,75.82077054383376,89.76383709801073
7209.96,92.04788508215341,88.79616882921715,92.68891108198939,89.08910174715348,75.80010829451518,90.05740224373511
7464.84,92.32231483770019,88.83368512953237,92.88104475207979,89.08782421130977,75.6793073790085,90.22045530319028
7727.05,92.40741817978392,88.88511644270476,92.81189344142612,88.83647494142886,75.41398523915053,90.1910051313869
7999.51,92.30844045466195,88.6916618974575,92.62371575801501,88.5217978976664,75.34209060866654,90.01458784959677
8282.23,92.04228481378132,88.64389345210695,92.55358431975625,88.41988728900952,74.94292139584043,89.87556064650546
8573.73,91.99000066510197,88.32192426698488,92.7156989734437,88.39972252443383,74.12133410928386,89.86520994172788
8876.95,92.06681315986526,88.08328232736056,93.29540328858681,88.43384838359486,73.95127195487343,90.09486666599318
9188.96,91.76415430163937,88.3971429325904,93.62013587444096,88.38671178267772,73.97169676709498,90.17757919946246
9514.16,91.71932834814942,88.82759891796798,93.72281285370836,88.1988103025213,73.90455081678378,90.24549687881878
9849.61,91.60769038130223,89.06644490071282,93.68746418883082,87.83283370098502,73.13853099559721,90.18682176030826
