Freq "Ceiling Bounce"
20.5078 51.65976207494333
21.9727 53.55172155641614
23.4375 57.35802878193894
24.9023 60.45591574899589
26.3672 62.650041950687495
27.832 64.9750804788153
29.2969 67.49170795581908
30.7617 69.75808021507356
32.2266 71.95559398549135
33.6914 73.67014598126971
35.1563 75.4921942222819
36.6211 76.7265480204002
38.0859 79.09436228127907
39.5508 79.93415319204571
41.0156 80.95210030920737
42.4805 81.79067745345839
43.9453 82.58277609993786
45.4102 83.21324450373857
46.875 83.82366717134366
48.3398 84.38769149878566
51.2695 85.3086864362908
52.7344 85.7156747039051
54.1992 86.15317851239344
55.6641 86.603722861151
58.5938 87.39476087448398
60.0586 87.79092372445011
62.9883 88.49663134071771
64.4531 88.85367773287659
67.3828 89.62524841966345
68.8477 89.91228455059633
71.7773 90.47494486602622
74.707 91.05774670481341
77.6367 91.6203901975683
79.1016 91.81706703279073
82.0313 92.15867819906961
84.9609 92.51354265927617
87.8906 92.85139328807124
90.8203 93.06087973860343
95.2148 93.3149876243031
98.1445 93.4438169211013
101.074 93.39533672828507
105.469 93.40676685763052
108.398 93.45655539141806
112.793 93.22846510239037
117.188 93.0073611512202
120.117 93.01615128428536
124.512 92.98399923341928
128.906 92.82873139391882
133.301 92.65592981631985
139.16 92.35844233158356
143.555 92.11066704078688
147.949 92.05008861823453
153.809 91.85715890224893
159.668 91.50332268071787
165.527 91.13991913465894
171.387 91.35308277141083
177.246 91.2002539283103
183.105 91.14075997817099
188.965 90.89675373659077
196.289 90.74599969528553
203.613 90.4138395130143
210.938 90.52292688809388
218.262 90.60348427694754
225.586 90.0668660927829
232.91 89.78742003237147
241.699 89.9289445317899
250.488 89.47699533398045
259.277 89.89332794748321
268.066 90.20284856614646
276.855 89.29690274889111
287.109 89.21407827503839
297.363 89.58794524812558
307.617 88.92307562710262
319.336 88.3758595027081
329.59 88.12295151827708
341.309 88.17422135817549
353.027 88.29550903003727
366.211 89.10203756096506
379.395 89.87043551706971
392.578 89.51509658241079
405.762 89.66294998109291
420.41 89.05722955550519
435.059 89.02847852175319
451.172 88.4603919620526
465.82 88.48143632169646
483.398 88.22349302185808
499.512 88.9195955127549
517.09 88.40872271252721
536.133 88.17880559164828
555.176 88.11144912170485
574.219 87.6571544240849
594.727 87.76798798318526
615.234 87.12256915321115
637.207 87.46385912462674
659.18 86.73482126085048
682.617 85.92283052579751
707.52 87.13215598076403
732.422 86.52586596078739
757.324 86.19728529618583
785.156 84.67750915564322
811.523 74.62128103670105
840.82 81.9909663700023
870.117 85.92646064670531
900.879 89.47965747991428
933.105 90.6134224040442
965.332 89.66876738232236
1000.49 89.52888600324295
1035.64 89.63831865293807
1072.27 89.41033603567415
1108.89 89.69345652953383
1148.44 89.95842230874592
1189.45 89.18784939629899
1230.47 88.68719362371857
1274.41 88.1876614930086
1319.82 87.74242249033227
1366.7 87.63927565234525
1413.57 86.34337501332378
1463.38 80.84692754646
1516.11 80.53580829182204
1568.85 84.64801795512987
1624.51 87.07906153533192
1681.64 89.08688098156692
1741.7 90.11830020984814
1803.22 89.14046000181057
1866.21 87.63571493303823
1932.13 87.14437397921556
1999.51 86.57531751774594
2069.82 86.87566206325556
2143.07 86.52148648650964
2219.24 88.13762365364369
2296.88 88.34739861923163
2378.91 88.68405731376721
2462.4 88.5349900870985
2548.83 88.82322978785356
2639.65 88.75511534006473
2731.93 88.18132177360332
2828.61 88.10390527241152
2928.22 88.83883416520146
3030.76 88.86965979263178
3137.7 88.50709626731381
3249.02 88.36931040205934
3363.28 87.52538179861047
3481.93 87.33388448926965
3604.98 87.98614893096722
3732.42 88.3107261835308
3864.26 88.5437366649179
4000.49 88.62613773502508
4141.11 88.40555839828117
4287.6 88.56326450759752
4438.48 87.83583520048036
4595.21 87.79846546055818
4756.35 87.28511002313125
4924.8 86.84936393310967
5097.66 86.59642131685823
5277.83 86.8184519580012
5463.87 86.7380858900528
5657.23 86.88249889842193
5856.45 87.31076499005837
6062.99 87.83470032971191
6276.86 87.96365194164386
6498.05 88.23525728073307
6726.56 88.65836765055028
6963.87 88.7645724069118
7209.96 88.79616882921715
7464.84 88.83368512953237
7727.05 88.88511644270476
7999.51 88.6916618974575
8282.23 88.64389345210695
8573.73 88.32192426698488
8876.95 88.08328232736056
9188.96 88.3971429325904
9514.16 88.82759891796798
9849.61 89.06644490071282
10196.8 89.0263198594163
10555.7 89.01571748196474
10927.7 88.93472676148511
11313.0 88.52290829494942
11712.9 88.05428783121053
12126.0 87.43949235709773
12553.7 86.57456560526808
12996.1 85.51674119605237
13454.6 84.4896216039698
13929.2 83.25056205634876
14419.9 81.67912802925767
14928.2 83.2442531132106
15455.6 80.58074817281177
16000.5 76.71239269936399
16564.5 74.06889926153474
17148.9 72.14150429944188
17752.4 69.68042498985145
18379.4 64.27080173154584
19026.9 37.83356163204871
19697.8 18.832483654573565
19999.5 38.223445277872116
