Freq "Estimated In-Room Response"
22.4 54.723206136854316
23.0 55.705295612398146
23.6 56.64921562783044
24.0 57.74214728291224
25.0 58.75776778102869
25.8 59.93684222715795
26.5 61.04258898961211
27.2 62.27913370659422
28.0 63.44158633537687
29.0 64.71068069291985
30.0 65.91832529351854
30.7 67.15777110999787
31.5 68.41136128794693
32.5 69.62545369440461
33.5 70.86279448344328
34.5 72.06509519705082
35.5 73.24818610757508
36.5 74.44265878682737
37.5 75.59295818567517
38.7 76.71620016626599
40.0 77.81966750944991
41.2 78.89086194429792
42.5 79.92723831799546
43.7 80.92591548412753
45.0 81.87395779434856
46.2 82.77642609063888
47.5 83.64702216077045
48.7 84.4341858202803
50.0 85.17369998056029
51.5 85.83744663885929
53.0 86.44026796397131
54.5 86.97336551600853
56.0 87.43915000191876
58.0 87.8228931573436
60.0 88.11302232434356
61.5 88.33367657366315
63.0 88.48023645580606
65.0 88.54517100100463
67.0 88.56833010863784
69.0 88.53687158649421
71.0 88.47746042368483
73.0 88.38968417532175
75.0 88.32238043099582
77.5 88.26517818022698
80.0 88.22648058278884
82.5 88.21703050814529
85.0 88.20821049043586
87.5 88.20670221156786
90.0 88.20809072808194
92.5 88.20826019381423
95.0 88.17942809191923
97.5 88.20162847738187
100.0 88.18457873210433
103.0 88.2169130866598
106.0 88.19185557902327
109.0 88.20560057736584
112.0 88.1591169085115
115.0 88.0762364101401
118.0 87.90750722593543
122.0 87.68832041214051
125.0 87.44031548011836
128.0 87.18662607989253
132.0 87.00757429956217
136.0 86.8197602582524
140.0 86.61356659717543
145.0 86.21173981006952
150.0 85.84196274384662
155.0 85.60008220592701
160.0 85.36846606052454
165.0 85.14490215839541
170.0 84.88143211980139
175.0 84.68106744873704
180.0 84.53948186574624
185.0 84.43461432887847
190.0 84.31037574341592
195.0 84.31010472992615
200.0 84.48571362583246
206.0 84.63163905970194
212.0 84.56519674957552
218.0 84.3599738647051
224.0 84.06748728697312
230.0 83.80253002717023
236.0 83.66795074679321
240.0 83.76130496512269
250.0 83.84679063174833
258.0 83.70890180179391
265.0 83.54816537074552
272.0 83.89656491835542
280.0 84.58758071999262
290.0 85.04497289679784
300.0 85.02637742453969
307.0 84.78567573743166
315.0 84.7820311054465
325.0 84.70312036044083
335.0 84.20868442122506
345.0 83.5148572759363
355.0 82.87412542599729
365.0 82.16943410091336
375.0 82.00618783486203
387.0 82.34127581256683
400.0 82.50374788713548
412.0 82.24883413428338
425.0 81.80885979824836
437.0 81.82503692328652
450.0 82.1067221059123
462.0 81.93823846343227
475.0 82.27503971128951
487.0 82.9496386033972
500.0 83.13111508964596
515.0 82.88088567556483
530.0 82.24794061780898
545.0 81.89926926925783
560.0 81.84457279920285
580.0 81.75404943129392
600.0 82.02304143599618
615.0 82.26847179034668
630.0 82.32427157646066
650.0 82.08501054092417
670.0 81.6722636890582
690.0 81.88131303706018
710.0 82.27091391707359
730.0 82.74620312075878
750.0 82.14178828345874
775.0 82.32923137291036
800.0 82.82953234897856
825.0 82.9860262490971
850.0 83.95607631795276
875.0 83.2649762571273
900.0 82.94196068903486
925.0 83.27927784184259
950.0 83.28223274564144
975.0 83.51087843817494
1000.0 83.51976167665828
1030.0 83.52805547148046
1060.0 84.16250555867497
1090.0 84.4112262971079
1120.0 84.52684641302031
1150.0 84.69511270325486
1180.0 85.30688367911493
1220.0 85.38213636235963
1250.0 85.36692428177753
1280.0 85.51794479304888
1320.0 85.59445835608993
1360.0 85.4012714473597
1400.0 85.45891294126241
1450.0 85.36808728694777
1500.0 84.909198833134
1550.0 85.21130466967546
1600.0 85.56594818152806
1650.0 85.3408063183758
1700.0 85.6750963621344
1750.0 85.4253063019932
1800.0 85.35037306730891
1850.0 84.8756621979499
1900.0 84.17755310987606
1950.0 84.73074865878392
2000.0 84.38508568086685
2060.0 84.1102638449325
2120.0 84.28090347780667
2180.0 84.10921667606256
2240.0 84.56314644742457
2300.0 85.36746048992421
2360.0 85.34377270872011
2400.0 84.83680699820023
2500.0 85.02918454727615
2580.0 85.64541806527106
2650.0 85.568957567118
2720.0 85.83186800603897
2800.0 86.51171294490149
2900.0 86.72039302997737
3000.0 86.12932460123314
3070.0 85.82441243099893
3150.0 85.43481279234156
3250.0 84.98574752789565
3350.0 84.29234633833346
3450.0 83.32739175953732
3550.0 83.12883817239549
3650.0 82.99949813045092
3750.0 82.93702884470582
3870.0 83.05845698634795
4000.0 83.27539950323579
4120.0 83.08194256079378
4250.0 83.68505155254203
4370.0 83.93963403560319
4500.0 83.70484237721006
4620.0 83.37166933460162
4750.0 83.57321891757375
4870.0 84.37678914782467
5000.0 84.54863321993633
5150.0 85.19493853805513
5300.0 86.41217883586287
5450.0 86.76412410790243
5600.0 86.8864962646787
5800.0 86.78866623791839
6000.0 86.39419968028804
6150.0 84.88829979917367
6300.0 84.82179134994942
6500.0 84.39240550791618
6700.0 84.66190527793079
6900.0 85.19984345219305
7100.0 84.77876225825118
7300.0 84.31629473211477
7500.0 83.58477489598816
7750.0 83.55715921176282
8000.0 84.24455295418323
8250.0 84.49482042753235
8500.0 83.51142799684528
8750.0 82.10712025615783
9000.0 81.23247137144598
9250.0 81.30028136459327
9500.0 81.18860259551718
9750.0 81.07657282413994
10000.0 80.36071018033024
10300.0 80.94070418416663
10600.0 82.10250177372298
10900.0 83.60549364335607
11200.0 84.82179262892424
11500.0 84.76305591670202
11800.0 84.66602258529558
12200.0 79.55426538764546
12500.0 79.57923526293919
12800.0 80.47134113044136
13200.0 81.20469045518558
13600.0 83.12131303382534
14000.0 82.37251070855072
14500.0 85.02557218288169
15000.0 85.67688458976846
15500.0 85.13587596389141
16000.0 84.59750456624637
16500.0 83.68425310679993
17000.0 86.54445476073764
17500.0 87.21975554218805
18000.0 79.6509664557083
18500.0 74.89023484115937
19000.0 69.44604654434733
19500.0 57.4790224987519
