Freq "Side Wall Bounce"
20.1416 64.92907271857307
20.5078 66.54050167370478
21.2402 68.76286567059203
21.9727 70.2911768352191
22.7051 71.27455184683518
23.8037 73.54292547685384
24.5361 74.88139668858184
25.2686 75.64985214776108
26.3672 76.57056241101814
27.0996 77.07701385162704
28.1982 77.96808910352829
29.2969 78.90050746623909
30.0293 79.63231564551877
31.1279 80.19372248901
32.2266 79.93466860934741
33.3252 80.36272812166739
34.79 81.14863323054301
35.8887 81.29862061713817
36.9873 81.69198450175602
38.4521 82.59064565327165
39.917 83.35775997241358
41.3818 83.61524370617389
42.8467 84.23368011860589
44.3115 84.86141528417119
45.7764 85.46568606411265
47.2412 85.94776781845421
49.0723 86.44936489801889
50.9033 86.8233443409289
52.7344 87.06874964295201
54.5654 87.2122539637464
56.3965 87.31628118814098
58.2275 87.61147278584896
60.4248 87.87356793719886
62.6221 87.8858495838604
64.8193 87.92675644876985
67.0166 87.98487452209365
69.2139 88.06850271932599
71.7773 88.12805372617103
74.3408 88.17257302610673
76.9043 88.16444981469905
79.834 88.12764838123508
82.3975 88.20863330934355
85.3271 88.27947728749817
88.2568 88.34565477350495
91.5527 88.41305400540739
94.8486 88.27794960586999
98.1445 88.1287789183306
101.44 87.8883539616026
105.103 87.77125094999455
108.765 87.61486510494358
112.793 87.4627236451446
116.455 87.37685177665323
120.85 87.18674180219688
124.878 87.06526679182585
129.272 86.94219244117942
134.033 86.83427042986585
138.794 86.93488516941382
143.555 87.1582964237349
148.682 87.21891955573511
153.809 87.38085445677234
159.302 87.64248494992444
164.795 87.9617621705265
170.654 88.20635220120391
176.88 88.41108501945294
183.105 88.41415442916123
189.331 88.15802177482918
196.289 87.75353076639627
202.881 87.39039035870334
210.205 86.82118086195081
217.529 86.3250693186708
225.22 86.07436616178964
233.276 85.7266644384226
241.333 85.39290339025922
250.122 85.18251588269254
258.911 85.02516030016062
268.066 83.74319093783188
277.222 83.40747075535192
287.109 83.31847002792558
297.363 83.90164344965153
307.617 83.5336002526605
318.604 83.27286097029443
329.956 83.4971421060955
341.675 84.16439848190997
353.394 84.26977709784123
365.845 83.95226398439505
379.028 83.53634842060455
392.212 82.66056537896675
406.128 83.30239839122197
420.41 82.66913831063398
435.425 82.55767679402128
450.806 81.58801162914237
466.553 81.85920539173509
483.032 82.20060113125763
499.878 82.17322714553131
517.456 81.55495630022692
535.767 81.74902374255475
554.81 82.16009580563457
574.219 82.21275252456132
594.727 82.06187976399178
615.601 83.22605167978604
637.207 82.60920583078527
659.912 82.04877567660876
682.983 83.31026456560653
707.153 81.62713381046503
732.056 82.31434037751855
757.69 82.473678884437
784.424 81.55457160632497
812.256 82.63203132909496
840.82 83.03150475210393
870.483 84.52171580464035
901.245 81.14165310100206
933.105 81.28853005866718
966.064 80.94076420550707
1000.12 82.38584413595285
1035.28 79.46710808865647
1071.9 80.97554978958337
1109.62 80.77037152329383
1148.8 83.28663917397265
1189.09 82.25741451420251
1231.2 82.65721509438089
1274.41 81.2496612458562
1319.46 81.50684796697828
1365.97 79.50515464964901
1414.31 79.87034446107964
1464.11 78.68537468412694
1515.75 78.590082878385
1569.21 80.02696358638119
1624.51 79.46069135451324
1681.64 79.14441659251949
1740.97 78.55220724726584
1802.49 77.26964142883395
1866.21 75.54453239464996
1931.76 75.24772374569005
1999.88 77.98002601840963
2070.56 80.15685675609747
2143.43 81.53552077077649
2219.24 82.10446920132603
2297.24 83.75095999636838
2378.54 84.1902906593598
2462.4 83.90656569024297
2549.19 82.91621622713569
2638.92 82.55503577804193
2731.93 82.728747854883
2828.25 83.32441013539568
2928.22 83.5360217627284
3031.49 83.41598556466832
3138.43 83.09205473176202
3249.02 82.77310532471353
3363.65 82.39602430263724
3482.3 82.20753670572513
3604.98 81.31053403732145
3732.06 80.65544349801351
3863.89 80.78015287979949
4000.12 81.25285490583774
4141.11 81.34368093541853
4287.23 79.71228695996476
4438.11 78.26804683077569
4594.85 79.45279489780134
4756.71 80.60438915420212
4924.44 79.8342342784158
5098.39 77.67087508141086
5278.2 76.47108734912338
5464.23 77.38330981291128
5656.86 78.63236236315402
5856.45 78.35462762828237
6062.99 77.05687260297746
6276.86 77.4213013603731
6498.05 77.60955397691367
6727.29 77.65618868992689
6964.23 78.00458274833717
7209.96 77.71813913303049
7464.11 78.55663781342446
7727.42 79.65671688033177
7999.88 79.70646405642636
8282.23 79.87206788167876
8574.1 80.1666152728621
8876.59 80.29402968219205
9189.7 80.82285340867813
9513.79 81.06313127648487
9849.24 80.2494577716008
10196.4 79.59962973396757
10556.0 79.904752092397
10928.5 79.37069905747927
11313.7 80.63958018233234
11712.5 81.74160960788208
12125.6 82.32507948715241
12553.3 84.15741129003311
12996.1 85.13718713961438
13454.2 84.36851379350749
13928.8 82.91483766484141
14419.9 82.29894013578291
14928.6 81.48482723634365
15454.8 79.40085655876085
16000.1 75.9231796080801
16564.1 70.53446889847812
17148.2 68.20950763837692
17753.2 66.82083254653122
18379.0 62.490627288306285
19027.2 64.68388483157415
19698.5 66.73727662898855
19999.9 67.08077167366037
