Freq "On Axis"
22.4 35.146835443038
23.0 35.646835443038
23.6 37.94683544303801
24.0 43.84683544303802
25.0 46.746835443037995
25.8 48.546835443038006
26.5 49.94683544303801
27.2 51.146835443038
28.0 54.746835443037995
29.0 57.546835443038006
30.0 59.34683544303802
30.7 60.646835443038
31.5 62.24683544303801
32.5 65.34683544303802
33.5 67.346835443038
34.5 68.74683544303801
35.5 69.94683544303801
36.5 71.546835443038
37.5 72.74683544303801
38.7 73.74683544303801
40.0 74.44683544303801
41.2 74.44683544303801
42.5 74.44683544303801
43.7 74.846835443038
45.0 76.84683544303799
46.2 78.44683544303801
47.5 79.74683544303801
48.7 81.14683544303801
50.0 82.346835443038
51.5 83.346835443038
53.0 84.34683544303799
54.5 85.24683544303801
56.0 86.24683544303801
58.0 87.146835443038
60.0 87.64683544303801
61.5 87.44683544303801
63.0 87.24683544303801
65.0 87.146835443038
67.0 87.046835443038
69.0 87.44683544303801
71.0 87.74683544303801
73.0 87.44683544303801
75.0 87.046835443038
77.5 87.44683544303801
80.0 87.546835443038
82.5 86.64683544303801
85.0 86.74683544303802
87.5 87.44683544303801
90.0 87.546835443038
92.5 87.64683544303801
95.0 87.94683544303801
97.5 86.94683544303801
100.0 85.846835443038
103.0 85.34683544303802
106.0 85.24683544303801
109.0 85.846835443038
112.0 86.14683544303801
115.0 85.94683544303801
118.0 85.846835443038
122.0 86.546835443038
125.0 86.44683544303801
128.0 86.74683544303802
132.0 85.44683544303801
136.0 85.94683544303801
140.0 87.44683544303801
145.0 88.546835443038
150.0 88.94683544303801
155.0 87.146835443038
160.0 86.24683544303801
165.0 85.546835443038
170.0 85.546835443038
175.0 87.44683544303801
180.0 88.046835443038
185.0 86.94683544303801
190.0 87.046835443038
195.0 87.94683544303801
200.0 85.546835443038
206.0 82.046835443038
212.0 83.346835443038
218.0 85.546835443038
224.0 82.74683544303801
230.0 84.24683544303802
236.0 86.14683544303801
240.0 86.24683544303801
250.0 85.94683544303801
258.0 86.64683544303801
265.0 87.24683544303801
272.0 86.046835443038
280.0 85.64683544303803
290.0 86.546835443038
300.0 85.24683544303801
307.0 83.546835443038
315.0 83.94683544303801
325.0 84.34683544303799
335.0 84.74683544303801
345.0 85.14683544303801
355.0 85.546835443038
365.0 86.046835443038
375.0 86.44683544303801
387.0 86.74683544303802
400.0 86.74683544303802
412.0 86.74683544303802
425.0 86.84683544303799
437.0 86.74683544303802
450.0 86.64683544303801
462.0 86.346835443038
475.0 86.046835443038
487.0 85.846835443038
500.0 85.746835443038
515.0 85.546835443038
530.0 85.44683544303801
545.0 85.546835443038
560.0 85.746835443038
580.0 85.746835443038
600.0 85.746835443038
615.0 85.846835443038
630.0 85.746835443038
650.0 85.44683544303801
670.0 85.24683544303801
690.0 85.046835443038
710.0 84.74683544303801
730.0 84.646835443038
750.0 84.846835443038
775.0 85.14683544303801
800.0 85.64683544303803
825.0 86.14683544303801
850.0 86.546835443038
875.0 86.84683544303799
900.0 86.84683544303799
925.0 86.84683544303799
950.0 86.546835443038
975.0 86.14683544303801
1000.0 85.546835443038
1030.0 84.74683544303801
1060.0 84.046835443038
1090.0 83.64683544303801
1120.0 83.94683544303801
1150.0 84.646835443038
1180.0 85.34683544303802
1220.0 85.64683544303803
1250.0 85.64683544303803
1280.0 85.746835443038
1320.0 85.846835443038
1360.0 85.746835443038
1400.0 85.34683544303802
1450.0 84.94683544303801
1500.0 85.14683544303801
1550.0 85.746835443038
1600.0 85.64683544303803
1650.0 84.94683544303801
1700.0 84.94683544303801
1750.0 85.64683544303803
1800.0 85.546835443038
1850.0 84.546835443038
1900.0 84.24683544303802
1950.0 84.24683544303802
2000.0 83.64683544303801
2060.0 83.14683544303803
2120.0 82.346835443038
2180.0 80.046835443038
2240.0 80.24683544303801
2300.0 82.146835443038
2360.0 83.14683544303803
2400.0 84.14683544303801
2500.0 84.44683544303801
2580.0 84.846835443038
2650.0 85.64683544303803
2720.0 86.346835443038
2800.0 86.24683544303801
2900.0 84.646835443038
3000.0 84.546835443038
3070.0 84.44683544303801
3150.0 85.24683544303801
3250.0 85.14683544303801
3350.0 84.846835443038
3450.0 85.046835443038
3550.0 85.846835443038
3650.0 84.846835443038
3750.0 83.14683544303803
3870.0 82.546835443038
4000.0 82.74683544303801
4120.0 82.94683544303801
4250.0 83.846835443038
4370.0 85.24683544303801
4500.0 86.14683544303801
4620.0 87.94683544303801
4750.0 86.94683544303801
4870.0 86.24683544303801
5000.0 86.74683544303802
5150.0 86.24683544303801
5300.0 84.44683544303801
5450.0 83.94683544303801
5600.0 86.546835443038
5800.0 86.346835443038
6000.0 86.94683544303801
6150.0 86.84683544303799
6300.0 84.546835443038
6500.0 82.84683544303802
6700.0 86.44683544303801
6900.0 87.84683544303802
7100.0 88.246835443038
7300.0 86.64683544303801
7500.0 86.546835443038
7750.0 86.546835443038
8000.0 85.546835443038
8250.0 88.14683544303803
8500.0 86.74683544303802
8750.0 85.34683544303802
9000.0 89.046835443038
9250.0 88.346835443038
9500.0 88.046835443038
9750.0 88.246835443038
10000.0 87.64683544303801
10300.0 89.94683544303801
10600.0 87.94683544303801
10900.0 86.546835443038
11200.0 91.346835443038
11500.0 88.44683544303801
11800.0 89.24683544303802
12200.0 91.346835443038
12500.0 87.346835443038
12800.0 87.346835443038
13200.0 85.44683544303801
13600.0 94.546835443038
14000.0 94.14683544303801
14500.0 93.046835443038
15000.0 91.74683544303802
15500.0 86.94683544303801
16000.0 84.74683544303801
16500.0 82.74683544303801
17000.0 86.546835443038
17500.0 82.046835443038
18000.0 86.046835443038
18500.0 84.94683544303801
19000.0 72.44683544303801
19500.0 81.24683544303801
