Freq,On Axis,Listening Window,Sound Power,Early Reflections,Early Reflections DI,Sound Power DI,DI offset
20.5078,75.452,75.48653248877662,76.12269395915807,75.82754282873971,39.65898966003691,39.36383852961855,40
21.9727,77.66290000000001,77.69589741691111,78.28543392868148,78.01161003401191,39.6842873828992,39.410463488229624,40
23.4375,79.3802,79.41318711962245,80.00553209923571,79.72997208552232,39.68321503410013,39.40765502038674,40
24.9023,80.9114,80.94460640149393,81.55153023987572,81.26828127148265,39.67632513001128,39.39307616161821,40
26.3672,82.2284,82.26185743334858,82.88920866360232,82.59556667472987,39.666290758618715,39.37264876974626,40
27.832,83.4799,83.51411248496453,84.16987385427923,83.86241866057806,39.65169382438647,39.3442386306853,40
29.2969,84.5405,84.57475286578897,85.24814677835897,84.9310863167148,39.64366654907417,39.326606087429994,40
30.7617,85.3405,85.37542028072329,86.07896753877205,85.7471396791629,39.62828060156039,39.29645274195124,40
32.2266,85.831,85.86617470167286,86.58687112239625,86.24633011361983,39.61984458805303,39.279303579276615,40
33.6914,86.02849999999998,86.06401183217791,86.80400435216873,86.45345676772897,39.610555064448945,39.26000748000918,40
35.1562,85.993,86.0287121861382,86.78591970767681,86.42701837612255,39.60169381001565,39.24279247846138,40
36.6211,85.8937,85.9293019314585,86.68903897734282,86.32884647997128,39.60045545148722,39.24026295411568,40
38.0859,85.8395,85.8749788385412,86.64347499954567,86.27906605631799,39.59591278222321,39.23150383899552,40
39.5508,85.6798,85.71546662787006,86.49779638600816,86.12648621975215,39.588980408117905,39.217670241861896,40
41.0156,85.5095,85.5445296450053,86.3121931461994,85.94740228679454,39.597127358210756,39.23233649880589,40
42.4805,85.4601,85.49528653073003,86.2791146092109,85.90601714562133,39.58926938510869,39.216171921519134,40
43.9453,85.3416,85.37641639002504,86.16281663835795,85.78791555876825,39.588500831256795,39.21359975166709,40
45.4102,85.2363,85.2705924038188,86.05051360332622,85.67811737522598,39.592475028592816,39.22007880049257,40
46.875,85.1498,85.18390212935093,85.96385354087282,85.59133490477628,39.59256722457465,39.22004858847811,40
48.3398,85.06310000000002,85.09675300534481,85.87198823406871,85.50110556571028,39.59564743963453,39.2247647712761,40
51.2695,85.0533,85.08595537143864,85.8492355410422,85.48290911992486,39.60304625151379,39.23671983039644,40
52.7344,85.09099999999998,85.122737020797,85.87262529996781,85.51235091871523,39.610386102081776,39.250111720829196,40
54.1992,85.0884,85.11881975229178,85.84985444994719,85.49781166331185,39.621008088979934,39.2689653023446,40
55.6641,85.1399,85.16933367185727,85.88668366490843,85.54059568456515,39.628737987292126,39.28265000694884,40
58.5938,85.3173,85.34643455121878,86.06999762564251,85.72049956815678,39.625934983061995,39.27643692557626,40
60.0586,85.3882,85.41717118680182,86.14511851515762,85.79336871617691,39.62380247062491,39.272052671644204,40
62.9883,85.5824,85.60928284138105,86.30590745530881,85.96686986357543,39.64241297780562,39.30337538607223,40
64.4531,85.6654,85.69136712983152,86.38187160936178,86.04419919279698,39.64716793703454,39.30949552046974,40
67.3828,85.7433,85.76863590109801,86.46380369443595,86.12141096230069,39.64722493879732,39.304832206662056,40
68.8477,85.7793,85.80368706202867,86.48916537589555,86.15037913183832,39.65330793019035,39.31452168613312,40
71.7773,85.79150000000001,85.81379039096895,86.47695127585783,86.1476730163081,39.66611737466084,39.33683911511112,40
74.707,85.9246,85.94522179400025,86.5985939531984,86.27274074430917,39.67248104969107,39.346627840801844,40
77.6367,86.0718,86.09159299595095,86.75495222850451,86.42220941547978,39.66938358047116,39.33664076744644,40
79.1016,86.0069,86.02613263473394,86.69191701023563,86.35684724444282,39.66928539029112,39.33421562449831,40
82.0312,85.8691,85.8870228449541,86.55497677595929,86.21603550716507,39.67098733778903,39.33204606899481,40
84.9609,85.9553,85.97252916016333,86.65785963070553,86.30766402221893,39.6648651379444,39.3146695294578,40
87.8906,86.155,86.17069356319402,86.85337840067803,86.50090348353196,39.669790079662064,39.317315162515996,40
90.8203,85.8692,85.88431449241588,86.59213976368977,86.22420992122738,39.6601045711885,39.29217472872611,40
95.2148,85.6659,85.68036095580413,86.41334080709503,86.02930214655959,39.651058809244546,39.26702014870911,40
98.1445,85.747,85.76002354206466,86.49648185382435,86.1068568827184,39.653166659346255,39.26354168824031,40
101.074,85.5024,85.51393364522698,86.24257540074075,85.85352424600897,39.66040939921801,39.27135824448624,40
105.469,85.23249999999999,85.24256643306825,85.96145609112742,85.57947040809003,39.663096024978216,39.28111034194083,40
108.398,85.465,85.47169020581967,86.14927933101036,85.78459520952156,39.687094996298114,39.32241087480931,40
112.793,85.45170000000002,85.45443897050241,86.08001231539004,85.73868077997643,39.715758190525975,39.37442665511237,40
117.188,85.5201,85.51911675586693,86.08466810071944,85.77546920112536,39.74364755474157,39.43444865514749,40
120.117,85.66989999999998,85.66691948208273,86.20325750481203,85.90995940349927,39.75696007858346,39.463661977270704,40
124.512,85.7713,85.76595147387107,86.30451252143423,86.00433541274603,39.76161606112504,39.461438952436836,40
128.906,85.8384,85.82953295203905,86.33163302887158,86.04489156001684,39.78464139202221,39.497899923167466,40
133.301,85.89599999999999,85.88302879092939,86.34879123342733,86.07468160580756,39.80834718512183,39.53423755750205,40
139.16,85.9165,85.89778420283848,86.30958949640473,86.05661854915238,39.841165653686105,39.588194706433754,40
143.555,85.8859,85.86302168767936,86.23978952217223,85.99875576882258,39.86426591885679,39.62323216550713,40
147.949,85.84030000000001,85.81152675040995,86.1194178356296,85.90763472519268,39.903892025217274,39.69210891478035,40
153.809,85.74959999999999,85.71300620090035,85.93081687725291,85.76475839873557,39.948247802164786,39.782189323647444,40
159.668,85.7282,85.68703072964519,85.85000953084302,85.71488526023148,39.972145469413704,39.83702119880216,40
165.527,85.6006,85.55135526499204,85.60651689948773,85.52010500025966,40.03125026473238,39.94483836550431,40
171.387,85.4824,85.42723274834799,85.39710296928905,85.34575880082957,40.08147394751842,40.03012977905894,40
177.246,85.2845,85.22362907524925,85.17035759182974,85.12439427913267,40.099234796116576,40.05327148341951,40
183.105,85.1104,85.04240894335445,84.9211724030516,84.90390217769928,40.138506765655166,40.121236540302846,40
188.965,85.1395,85.05908429999488,84.7101398888708,84.81229467045165,40.24678962954323,40.34894441112408,40
196.289,85.2451,85.15289688472103,84.56811597537693,84.79729350863529,40.35560337608574,40.584780909344104,40
203.613,85.28560000000002,85.17962277511704,84.3695374163427,84.715725023027,40.463897752090034,40.810085358774344,40
210.938,85.2501,85.13325282473139,84.19051558669591,84.60807335821886,40.525179466512526,40.94273723803548,40
218.262,85.0981,84.96915491294259,83.88983844526818,84.37251166013655,40.59664325280603,41.0793164676744,40
225.586,85.21099999999998,85.06447411754932,83.62707194687025,84.30861312973693,40.7558609878124,41.43740217067908,40
232.91,85.1569,84.99528490598237,83.32235391882463,84.13882937260479,40.856455533377584,41.67293098715774,40
241.699,85.1803,85.00565996905051,83.07746330772905,84.03381294304666,40.97184702600386,41.928196661321465,40
250.488,85.32320000000001,85.1320506459003,82.90568341002049,84.0248532466338,41.10719739926651,42.22636723587982,40
259.277,85.2498,85.04304572102247,82.63834516024549,83.85970467622309,41.18334104479938,42.40470056077697,40
268.066,85.30859999999998,85.08572645509457,82.28732296508582,83.73963080771566,41.34609564737892,42.79840349000875,40
276.855,85.08590000000001,84.85302188518179,81.93745513291407,83.45702296377715,41.39599892140464,42.91556675226772,40
287.109,85.2286,84.97327793156171,81.57997226363207,83.40370277110571,41.569575160456,43.39330566792964,40
297.363,85.3184,85.05675666470447,81.36018554835692,83.39689209643535,41.659864568269114,43.69657111634754,40
307.617,85.2492,84.96953465611529,81.03526309141854,83.22087800398413,41.74865665213116,43.93427156469674,40
319.336,85.3166,85.01886431802816,80.65281789133022,83.12125553662808,41.89760878140008,44.36604642669795,40
329.59,85.1354,84.82827681511816,80.3554777978203,82.88963785115274,41.93863896396542,44.47279901729786,40
341.309,85.1728,84.83796083595908,79.95815077830224,82.73573006745943,42.10223076849965,44.87981005765684,40
353.027,85.139,84.80753237236658,79.79925146152276,82.67416767332482,42.13336469904176,45.00828091084382,40
366.211,85.3983,85.05615042004737,79.73101660689602,82.8102941065494,42.24585631349797,45.32513381315135,40
379.395,85.2544,84.90780584136046,79.56918980434813,82.66877972793094,42.23902611342952,45.33861603701233,40
392.578,85.1444,84.77220671128879,79.22233392213725,82.42930413648195,42.34290257480684,45.549872789151536,40
405.762,85.0484,84.63955921399005,78.65920387679857,82.11730047270092,42.522258741289136,45.98035533719148,40
420.41,85.0747,84.72191998899689,79.10058431461238,82.3905652809464,42.33135470805048,45.62133567438451,40
435.059,85.38410000000002,85.01830872349267,79.29987139628187,82.60927321933195,42.40903550416071,45.71843732721079,40
451.172,85.834,85.45102575927808,79.7250270020131,83.02353810936063,42.42748764991745,45.725998757264975,40
465.82,85.7731,85.40790724947024,79.71233579927667,82.98472936259205,42.42317788687819,45.69557145019357,40
483.398,85.9803,85.59440431743714,79.8717479676191,83.14442461939228,42.44997969804486,45.72265634981804,40
499.512,86.11430000000001,85.72803079398193,80.09593466044541,83.31021006026181,42.41782073372012,45.63209613353652,40
517.09,85.785,85.38356016512856,79.8509203663697,82.94965619403288,42.433903971095674,45.53263979875885,40
536.133,86.12190000000001,85.69933355322723,79.84406490597911,83.0839674649067,42.61536608832053,45.855268647248124,40
555.176,86.14669999999998,85.7164961426246,79.83804342902287,83.10525778383597,42.61123835878864,45.87845271360173,40
574.219,86.23160000000001,85.81579337521852,80.03392139088945,83.22459437741605,42.591198997802465,45.78187198432907,40
594.727,86.0002,85.58226606677746,79.82736678214204,82.95132848743229,42.63093757934517,45.75489928463543,40
615.234,86.1918,85.72875016671502,79.82768543310407,83.03061671776044,42.69813344895458,45.90106473361095,40
637.207,86.5191,86.08662224955062,80.10090881252901,83.38339913349243,42.70322311605818,45.9857134370216,40
659.18,86.36519999999999,85.90033994273006,80.01068839743832,83.20020657510875,42.700133367621305,45.88965154529174,40
682.617,86.6137,86.1333283785209,80.08771106912786,83.34104209023636,42.792286288284544,46.04561730939304,40
707.52,86.6781,86.202118003159,80.13612426401849,83.43094282871934,42.77117517443966,46.06599373914051,40
732.422,86.4384,85.9507841744186,79.85933435268016,83.1742798634532,42.77650431096541,46.091449821738436,40
757.324,86.332,85.86533527635163,79.7403547960399,83.08982598883216,42.77550928751947,46.124980480311734,40
785.156,86.1675,85.66829726531691,79.57267796613526,82.95329303590088,42.715004229416024,46.09561929918165,40
811.523,85.7526,85.27939707774455,78.97817633920508,82.3795092487139,42.89988782903065,46.30122073853947,40
840.82,85.812,85.27640056700409,78.78607747931056,82.2107037327392,43.065696834264884,46.490323087693525,40
870.117,85.4332,84.90170412434769,78.26377884497636,81.84035317338,43.06135095096769,46.63792527937133,40
900.879,85.43709999999999,84.8571356494346,78.19915358483436,81.73813941465376,43.11899623478084,46.65798206460023,40
933.105,86.6139,86.04394259527949,79.07942465100325,82.70281177172852,43.34113082355097,46.96451794427624,40
965.332,86.8415,86.23066342019231,79.15456244535204,82.80956417887238,43.421099241319936,47.07610097484027,40
1000.49,86.107,85.5307394119851,78.66418607038553,82.30854687299637,43.22219253898872,46.86655334159957,40
1035.64,85.3826,84.76549228893792,77.94276803010897,81.75358589236835,43.01190639656957,46.822724258828956,40
1072.27,85.123,84.49023357137435,77.69558438674878,81.29353010362655,43.196703467747795,46.79464918462557,40
1108.89,84.92939999999999,84.18479492531975,77.12458574101154,80.81569075627179,43.36910416904796,47.060209184308206,40
1148.44,84.836,84.16169989387767,76.92190467995698,80.81387613954871,43.34782375432896,47.23979521392069,40
1189.45,85.0361,84.35057998599383,76.8195245677559,80.77026192861152,43.580318057382314,47.531055418237926,40
1230.47,84.8745,84.13625919733428,76.53255541751062,80.51049439098182,43.625764806352464,47.60370377982366,40
1274.41,84.6157,83.98647216764708,76.4375823835649,80.35096206244445,43.63551010520263,47.54888978408218,40
1319.82,84.7091,83.88646964465525,76.23118106668258,80.17956048639178,43.70690915826347,47.65528857797267,40
1366.7,84.4401,83.61260231070014,76.06438572351003,80.21475092221507,43.397851388485066,47.54821658719011,40
1413.57,84.698,83.7546864551586,76.04418447542783,80.27704836905195,43.47763808610665,47.71050197973078,40
1463.38,85.0648,84.09238772895007,76.14690734653159,80.36527065046627,43.7271170784838,47.94548038241848,40
1516.11,85.27769999999998,84.22682667257362,76.3925828323486,80.56190207549325,43.66492459708037,47.83424384022503,40
1568.85,84.9034,83.95310847728467,76.56240014899642,80.56537295760356,43.387735519681115,47.390708328288255,40
1624.51,84.1707,83.4241851936626,76.53089519026487,80.60801302321687,42.816172170445725,46.89329000339772,40
1681.64,84.0845,83.26730476445152,76.53107141475985,80.75530451820237,42.51200024624916,46.73623334969167,40
1741.7,84.8156,84.07360600869089,77.17115707825285,81.22240214835745,42.85120386033344,46.90244893043804,40
1803.22,85.5364,84.74596081355145,77.65752179574449,81.81116849015135,42.9347923234001,47.08843901780696,40
1866.21,85.311,84.59860300211938,77.77937789864295,81.7701436517797,42.82845935033967,46.81922510347643,40
1932.13,84.5143,83.97274939350532,77.63324475005906,81.46671655977887,42.50603283372645,46.33950464344626,40
1999.51,85.3407,84.68175003521313,77.71405276997993,81.74095259263575,42.94079744257738,46.9676972652332,40
2069.82,85.5265,84.87071000464698,77.6827658424939,81.77541594240986,43.095294062237116,47.18794416215309,40
2143.07,84.5996,84.04313506081442,77.341364689421,81.45836181733358,42.58477324348084,46.70177037139342,40
2219.24,84.5077,83.82580007356893,77.31682800906088,81.38412917550926,42.44167089805967,46.50897206450804,40
2296.88,85.2381,84.5564830005744,77.95808194719649,81.83733155668298,42.71915144389142,46.59840105337791,40
2378.91,85.1292,84.623682094326,78.06253442939959,82.01058815396834,42.61309394035766,46.56114766492641,40
2462.4,84.3776,83.98614471917642,77.91419844976132,81.94965279090746,42.03649192826896,46.07194626941511,40
2548.83,85.9981,85.3721570920472,78.90067175573995,82.75310115555644,42.61905593649077,46.47148533630725,40
2639.65,86.2623,85.68486824100097,79.19697956058677,82.851988416333,42.83287982466797,46.4878886804142,40
2731.93,84.93460000000002,84.60703292835227,78.53277584819489,82.38702710409704,42.220005824255225,46.07425708015738,40
2828.61,84.6246,84.42886922760877,78.10235512283214,82.03308211179574,42.395787115813036,46.326514104776635,40
2928.22,85.0016,84.68582294031683,78.20532926275881,82.11646614966277,42.569356790654055,46.480493677558016,40
3030.76,85.1893,84.67419739323847,78.29044550122119,82.1111622927477,42.56303510049078,46.38375189201729,40
3137.7,85.0676,84.62995393955764,78.53087376071082,82.35442710209986,42.275526837457775,46.09908017884682,40
3249.02,85.6512,85.15166377630402,78.91837264737794,82.62211154048293,42.529552235821086,46.23329112892608,40
3363.28,85.4769,85.04610512623478,79.09804855303035,82.58174011845334,42.46436500778144,45.948056573204425,40
3481.93,85.0351,84.7145909839761,78.93616510487897,82.3526289158621,42.361962068113996,45.77842587909713,40
3604.98,84.307,84.42482579066507,78.70038146257801,82.2095918341319,42.21523395653317,45.72444432808706,40
3732.42,84.7602,84.82215892728993,79.01515550141119,82.53406538804256,42.28809353924737,45.80700342587875,40
3864.26,83.7011,84.34061501927756,78.75400728524735,82.42392048015898,41.91669453911858,45.58660773403021,40
4000.49,84.75910000000002,85.14161945988978,79.12042242633643,82.8081222126801,42.33349724720968,46.02119703355335,40
4141.11,84.8451,85.06429814693331,79.30378637572909,83.02329416170079,42.04100398523252,45.76051177120422,40
4287.6,84.8365,85.3788401124936,79.47982484956773,83.25847839731475,42.12036171517886,45.89901526292587,40
4438.48,85.1462,85.53610832213514,79.44192901686066,83.19611093568047,42.33999738645467,46.09417930527448,40
4595.21,85.57390000000001,85.88683498294847,79.5296629655353,83.34610205638951,42.54073292655896,46.35717201741318,40
4756.35,84.5523,85.38078253886277,79.1002282472533,82.83428496597246,42.54649757289032,46.28055429160948,40
4924.8,83.5363,84.65520109801975,78.57809255912588,82.26773618060945,42.3874649174103,46.07710853889387,40
5097.66,85.38739999999999,85.37709267583415,78.86941628890455,82.62166345834628,42.75542921748787,46.5076763869296,40
5277.83,84.3126,84.66173463719208,78.57247411820289,82.35585387876162,42.30588075843046,46.08926051898919,40
5463.87,83.5363,83.9580245702083,77.9910962185471,81.78778873961069,42.170235830597605,45.966928351661196,40
5657.23,81.94989999999999,82.32991253230146,76.83665354607545,80.59529438794735,41.734618144354116,45.49325898622601,40
5856.45,81.2323,81.81577418230054,76.85387327656247,80.30139431166707,41.514379870633476,44.96190090573808,40
6062.99,81.8588,82.14765847229735,77.41954727723447,80.87836465605163,41.26929381624572,44.72811119506288,40
6276.86,83.2721,82.95798680396038,78.0826615905489,81.49502064461925,41.462966159341136,44.875325213411486,40
6498.05,83.4944,83.02658974836152,77.6648688387714,81.2769474381479,41.749642310213616,45.36172090959012,40
6726.56,83.1307,82.63198180101276,77.45119558297962,80.91808987318112,41.71389192783164,45.180786218033134,40
6963.87,83.7123,82.96284291877552,77.6446497960333,81.10489785043478,41.85794506834074,45.318193122742215,40
7209.96,83.4189,82.73830398720168,77.18411191028937,80.75012702653524,41.988176960666436,45.5541920769123,40
7464.84,83.0095,82.45889413060422,76.64228141360347,80.28542967664038,42.173464453963845,45.81661271700075,40
7727.05,83.9017,83.37944465101832,77.37466825221863,81.13615098831065,42.24329366270767,46.00477639879969,40
7999.51,84.8349,84.3619253809326,78.55102286343352,82.24830613855116,42.113619242381446,45.81090251749909,40
8282.23,85.0617,84.71413180592353,78.72749713822387,82.56550490623073,42.1486268996928,45.98663466769966,40
8573.73,85.09,84.4690225765388,78.50996482503608,82.1634453511875,42.3055772253513,45.959057751502726,40
8876.95,84.2415,84.10216450496944,78.1719731220317,81.83965912231204,42.262505382657395,45.930191382937736,40
9188.96,84.6729,84.1968040455277,78.04685019227799,81.8729436409595,42.323860404568194,46.14995385324971,40
9514.16,84.4447,84.44453810931769,77.97317492094514,81.9366677386019,42.50787037071579,46.47136318837255,40
9849.61,84.4576,84.64194995671556,77.84792623039846,81.70144751857009,42.94050243814547,46.79402372631711,40
10196.8,84.2253,84.59900113350707,77.4908851375373,81.40075158944852,43.198249544058555,47.10811599596977,40
10555.7,84.4083,84.55177326149581,77.0840587650474,81.12820761388309,43.42356564761272,47.46771449644841,40
10927.7,84.55419999999998,84.49118038350554,76.38198081166232,80.48675474071301,44.004425642792526,48.10919957184322,40
11313.0,84.4527,84.39448697215623,76.08092292807936,80.20307243417605,44.19141453798018,48.31356404407687,40
11712.9,84.18799999999999,84.31324954454031,76.24516964615503,80.30495768398714,44.00829186055317,48.06807989838528,40
12126.0,83.9302,84.21152346564772,76.30667496870969,80.20187633406705,44.009647131580664,47.90484849693803,40
