Freq "Early Reflections"
20.5078 75.82754282873971
21.9727 78.01161003401191
23.4375 79.72997208552232
24.9023 81.26828127148265
26.3672 82.59556667472987
27.832 83.86241866057806
29.2969 84.9310863167148
30.7617 85.7471396791629
32.2266 86.24633011361983
33.6914 86.45345676772897
35.1562 86.42701837612255
36.6211 86.32884647997128
38.0859 86.27906605631799
39.5508 86.12648621975215
41.0156 85.94740228679454
42.4805 85.90601714562133
43.9453 85.78791555876825
45.4102 85.67811737522598
46.875 85.59133490477628
48.3398 85.50110556571028
51.2695 85.48290911992486
52.7344 85.51235091871523
54.1992 85.49781166331185
55.6641 85.54059568456515
58.5938 85.72049956815678
60.0586 85.79336871617691
62.9883 85.96686986357543
64.4531 86.04419919279698
67.3828 86.12141096230069
68.8477 86.15037913183832
71.7773 86.1476730163081
74.707 86.27274074430917
77.6367 86.42220941547978
79.1016 86.35684724444282
82.0312 86.21603550716507
84.9609 86.30766402221893
87.8906 86.50090348353196
90.8203 86.22420992122738
95.2148 86.02930214655959
98.1445 86.1068568827184
101.074 85.85352424600897
105.469 85.57947040809003
108.398 85.78459520952156
112.793 85.73868077997643
117.188 85.77546920112536
120.117 85.90995940349927
124.512 86.00433541274603
128.906 86.04489156001684
133.301 86.07468160580756
139.16 86.05661854915238
143.555 85.99875576882258
147.949 85.90763472519268
153.809 85.76475839873557
159.668 85.71488526023148
165.527 85.52010500025966
171.387 85.34575880082957
177.246 85.12439427913267
183.105 84.90390217769928
188.965 84.81229467045165
196.289 84.79729350863529
203.613 84.715725023027
210.938 84.60807335821886
218.262 84.37251166013655
225.586 84.30861312973693
232.91 84.13882937260479
241.699 84.03381294304666
250.488 84.0248532466338
259.277 83.85970467622309
268.066 83.73963080771566
276.855 83.45702296377715
287.109 83.40370277110571
297.363 83.39689209643535
307.617 83.22087800398413
319.336 83.12125553662808
329.59 82.88963785115274
341.309 82.73573006745943
353.027 82.67416767332482
366.211 82.8102941065494
379.395 82.66877972793094
392.578 82.42930413648195
405.762 82.11730047270092
420.41 82.3905652809464
435.059 82.60927321933195
451.172 83.02353810936063
465.82 82.98472936259205
483.398 83.14442461939228
499.512 83.31021006026181
517.09 82.94965619403288
536.133 83.0839674649067
555.176 83.10525778383597
574.219 83.22459437741605
594.727 82.95132848743229
615.234 83.03061671776044
637.207 83.38339913349243
659.18 83.20020657510875
682.617 83.34104209023636
707.52 83.43094282871934
732.422 83.1742798634532
757.324 83.08982598883216
785.156 82.95329303590088
811.523 82.3795092487139
840.82 82.2107037327392
870.117 81.84035317338
900.879 81.73813941465376
933.105 82.70281177172852
965.332 82.80956417887238
1000.49 82.30854687299637
1035.64 81.75358589236835
1072.27 81.29353010362655
1108.89 80.81569075627179
1148.44 80.81387613954871
1189.45 80.77026192861152
1230.47 80.51049439098182
1274.41 80.35096206244445
1319.82 80.17956048639178
1366.7 80.21475092221507
1413.57 80.27704836905195
1463.38 80.36527065046627
1516.11 80.56190207549325
1568.85 80.56537295760356
1624.51 80.60801302321687
1681.64 80.75530451820237
1741.7 81.22240214835745
1803.22 81.81116849015135
1866.21 81.7701436517797
1932.13 81.46671655977887
1999.51 81.74095259263575
2069.82 81.77541594240986
2143.07 81.45836181733358
2219.24 81.38412917550926
2296.88 81.83733155668298
2378.91 82.01058815396834
2462.4 81.94965279090746
2548.83 82.75310115555644
2639.65 82.851988416333
2731.93 82.38702710409704
2828.61 82.03308211179574
2928.22 82.11646614966277
3030.76 82.1111622927477
3137.7 82.35442710209986
3249.02 82.62211154048293
3363.28 82.58174011845334
3481.93 82.3526289158621
3604.98 82.2095918341319
3732.42 82.53406538804256
3864.26 82.42392048015898
4000.49 82.8081222126801
4141.11 83.02329416170079
4287.6 83.25847839731475
4438.48 83.19611093568047
4595.21 83.34610205638951
4756.35 82.83428496597246
4924.8 82.26773618060945
5097.66 82.62166345834628
5277.83 82.35585387876162
5463.87 81.78778873961069
5657.23 80.59529438794735
5856.45 80.30139431166707
6062.99 80.87836465605163
6276.86 81.49502064461925
6498.05 81.2769474381479
6726.56 80.91808987318112
6963.87 81.10489785043478
7209.96 80.75012702653524
7464.84 80.28542967664038
7727.05 81.13615098831065
7999.51 82.24830613855116
8282.23 82.56550490623073
8573.73 82.1634453511875
8876.95 81.83965912231204
9188.96 81.8729436409595
9514.16 81.9366677386019
9849.61 81.70144751857009
10196.8 81.40075158944852
10555.7 81.12820761388309
10927.7 80.48675474071301
11313.0 80.20307243417605
11712.9 80.30495768398714
12126.0 80.20187633406705
12553.7 80.23967974170333
12996.1 80.61285899319181
13454.6 80.36388942419944
13929.2 79.67246983917187
14419.9 78.78138049942187
14928.2 78.72082006048122
15455.6 79.03889266713624
16000.5 79.66023519674232
16564.5 79.61202927760813
17148.9 79.69391840733252
17752.4 79.46683477794764
18379.4 78.36432282205634
19026.9 76.44912258240265
19697.8 74.0239267454087
19999.5 73.01808214817704
