Freq "Sound Power"
20.5078 44.5345726636408
21.9727 47.71420579300073
23.4375 52.75844643059247
24.9023 56.22868747466441
26.3672 60.2559185313456
27.832 62.32892926084844
29.2969 65.71532914327054
30.7617 68.64184849224213
32.2266 71.09171864642605
33.6914 73.29188489041078
35.1562 75.26811202151637
36.6211 77.59268009683797
38.0859 79.61285825940871
39.5508 81.16722681452708
41.0156 82.47063908016712
42.4805 83.38679147949874
43.9453 84.24633642036375
45.4102 84.92371790148161
46.875 85.46415796073715
48.3398 85.88552610703381
51.2695 86.35167549627016
52.7344 86.53689124080265
54.1992 86.68166582228048
55.6641 86.79241936241931
58.5938 86.8994422424113
60.0586 86.93462523038535
62.9883 87.01501959003559
64.4531 87.02135608587405
67.3828 87.03795626316251
68.8477 87.06644602352297
71.7773 87.12002060909563
74.707 87.15473842087383
77.6367 87.20679042862022
79.1016 87.2244372376892
82.0312 87.26629788829575
84.9609 87.27687182178785
87.8906 87.23266067208326
90.8203 87.30927394612856
95.2148 87.35264951932024
98.1445 87.29572838228941
101.074 87.25614759512621
105.469 87.24548159210714
108.398 87.34338641571276
112.793 87.41107644541904
117.188 87.47845102260266
120.117 87.43527227705707
124.512 87.5269137286057
128.906 87.33873598247288
133.301 87.52213386555093
139.16 87.5786222795891
143.555 87.46002204254175
147.949 87.2989871891432
153.809 86.86108982354627
159.668 86.97949036073523
165.527 87.18146050789672
171.387 86.71842486054167
177.246 86.82956506475759
183.105 86.38822061063892
188.965 86.11796889533524
196.289 86.31817044382458
203.613 85.9185527713251
210.938 85.7370200297001
218.262 85.57143439717449
225.586 85.84300618255378
232.91 85.52330542389316
241.699 85.09358746976689
250.488 85.09559018963427
259.277 85.14985679434957
268.066 84.81487601902599
276.855 84.83810303384415
287.109 85.01963860003615
297.363 85.13852816157916
307.617 85.06623244251465
319.336 84.6208781190046
329.59 84.39442407286583
341.309 84.3552585786563
353.027 84.14983450467824
366.211 84.20977644737845
379.395 84.50916486476332
392.578 83.96969632660696
405.762 83.72589103544652
420.41 83.66516070310144
435.059 83.51961165918559
451.172 83.37474746516727
465.82 83.15781706571494
483.398 83.4177117324532
499.512 83.74812986550864
517.09 83.66248862885654
536.133 83.35312743581991
555.176 83.15731567929184
574.219 83.09054417572884
594.727 82.63355051970306
615.234 82.37421783995784
637.207 82.49741138056163
659.18 81.99117979247691
682.617 83.15746754613231
707.52 83.70080978117663
732.422 82.93327485937901
757.324 83.1850115218095
785.156 82.60554114764473
811.523 82.83155119685526
840.82 82.9827915440962
870.117 82.95369673730177
900.879 82.99592970013988
933.105 82.66168128523452
965.332 82.54316856879643
1000.49 82.26279357497046
1035.64 81.79344711931105
1072.27 81.98532064929049
1108.89 81.73056803153861
1148.44 82.0152170234908
1189.45 81.16205252284385
1230.47 81.01515494633279
1274.41 80.52320830464268
1319.82 79.86433557504442
1366.7 79.17013528340962
1413.57 78.63567403039396
1463.38 78.15379039309309
1516.11 77.1049406541552
1568.85 76.76550064380817
1624.51 77.75180220050642
1681.64 78.64695331652737
1741.7 79.29499850663433
1803.22 79.80042411882458
1866.21 79.44859451577389
1932.13 79.33358179547852
1999.51 79.80117905173952
2069.82 80.04641713273392
2143.07 79.83668416899977
2219.24 79.23737277286953
2296.88 79.65058967682992
2378.91 79.58757981467036
2462.4 80.01830246554148
2548.83 80.02224318006515
2639.65 79.67477968119125
2731.93 78.95881220069617
2828.61 79.04573326083519
2928.22 79.60001509339675
3030.76 79.7887656933203
3137.7 79.85349499840615
3249.02 79.77911808504533
3363.28 79.73318947627034
3481.93 79.91044640371742
3604.98 80.19673993277496
3732.42 80.34694396517568
3864.26 79.96624784373367
4000.49 80.00928245431587
4141.11 80.47581838086806
4287.6 80.57048068353112
4438.48 80.73833779626595
4595.21 80.4387001044588
4756.35 80.53723047933168
4924.8 80.36104596844183
5097.66 79.82690643071629
5277.83 80.0686535914683
5463.87 79.84776653894093
5657.23 80.00211439269806
5856.45 79.8486913368845
6062.99 80.03179594037206
6276.86 79.6500351387784
6498.05 80.05396778640647
6726.56 79.81199560620425
6963.87 79.75990303737653
7209.96 79.95688175873107
7464.84 79.47404939272889
7727.05 79.868768671044
7999.51 79.51194209989916
8282.23 79.78461103907775
8573.73 79.52841261078572
8876.95 79.45066834188837
9188.96 79.12994388413998
9514.16 79.24590322447901
9849.61 79.06100592793794
10196.8 78.9098349259838
10555.7 78.89465176088571
10927.7 78.94802196471987
11313.0 78.96164983742722
11712.9 78.8924432332773
12126.0 78.75638591073741
12553.7 78.71673194686895
12996.1 78.65582774588066
13454.6 78.59678295124526
13929.2 78.59676113639082
14419.9 78.49458456791021
14928.2 78.26054236661707
15455.6 77.7441475530692
16000.5 77.05049507460512
16564.5 76.35002664348536
17148.9 75.6033585758329
17752.4 74.70264038861393
18379.4 73.77584252618485
19026.9 73.14728256815046
19697.8 72.8717091335043
19999.5 72.71302105032535
