Freq,On Axis,Listening Window,Sound Power,Early Reflections,Early Reflections DI,Sound Power DI,DI offset
20.5078,63.59479999999999,63.591827581460436,63.33074046473985,63.448298558558264,40.14352902290217,40.26108711672059,40
21.9727,63.68000000000001,63.677554408550264,63.441985998126,63.55051783467883,40.127036573871436,40.235568410424264,40
23.4375,65.1864,65.1782355145352,64.82354901392662,64.99688046889011,40.18135504564509,40.35468650060858,40
24.9023,66.4443,66.43548130535231,66.10547413030383,66.2632883079348,40.17219299741751,40.33000717504848,40
26.3672,67.5203,67.51035607872859,67.13606866862462,67.31700319745555,40.19335288127304,40.374287410103975,40
27.832,68.5522,68.5414913580658,68.18645090500786,68.35481994820717,40.18667140985863,40.35504045305794,40
29.2969,69.0195,69.00674494539717,68.59434710759325,68.79460181522731,40.21214313016986,40.41239783780392,40
30.7617,70.0548,70.04106622658313,69.63701845818036,69.83135070280983,40.2097155237733,40.40404776840276,40
32.2266,70.79490000000001,70.78057007493679,70.37606296394003,70.56991117019675,40.21065890474004,40.40450711099676,40
33.6914,71.5257,71.5106758911611,71.10223237023543,71.29833290412631,40.21234298703479,40.40844352092567,40
35.1562,72.1387,72.12310038522972,71.71561421814941,71.91030439198865,40.21279599324107,40.40748616708031,40
36.6211,72.7651,72.74780156936399,72.31978560210683,72.5246561465678,40.22314542279618,40.42801596725715,40
38.0859,73.45089999999999,73.43269197014588,72.99693018629809,73.20549024949929,40.22720172064659,40.435761783847795,40
39.5508,74.06289999999998,74.0438742244009,73.60548029075079,73.81469774857375,40.229176475827146,40.438393933650104,40
41.0156,74.6532,74.63294642421123,74.18352307629598,74.39794459631254,40.235001827898685,40.44942334791524,40
42.4805,75.20589999999999,75.18472553236175,74.73242209631077,74.94769976418935,40.2370257681724,40.45230343605098,40
43.9453,75.7672,75.74505403573936,75.28533546968616,75.50373479594687,40.24131923979249,40.4597185660532,40
45.4102,76.2997,76.27642708774103,75.80661592043892,76.02966957798007,40.246757509760954,40.46981116730211,40
46.875,76.8714,76.84765431488276,76.3811119622314,76.60188903013093,40.245765284751826,40.46654235265136,40
48.3398,77.31980000000001,77.29370315643564,76.79803067724848,77.03245625397895,40.26124690245669,40.495672479187164,40
51.2695,78.2204,78.19348405690509,77.71734491527212,77.94005681891434,40.25342723799075,40.47613914163297,40
52.7344,78.6839,78.65670286988004,78.19744985320747,78.41095605647524,40.24574681340479,40.45925301667256,40
54.1992,79.1447,79.11589531657674,78.65080885457947,78.86701657431442,40.24887874226232,40.465086461997274,40
55.6641,79.6397,79.6084363955148,79.11235122690704,79.34371632951795,40.264720065996855,40.49608516860776,40
58.5938,80.4898,80.45450922903511,79.91882310376562,80.16934321782647,40.285166011208645,40.53568612526949,40
60.0586,80.9629,80.92576765421809,80.36420994644969,80.62838453150603,40.29738312271206,40.5615577077684,40
62.9883,81.6613,81.62138032670151,81.02696048250209,81.307034015292,40.31434631140951,40.59441984419942,40
64.4531,81.98310000000001,81.94410658955329,81.39251476213497,81.64958913041406,40.29451745913923,40.55159182741832,40
67.3828,82.7158,82.67431169192828,82.13867752338498,82.38364438489563,40.29066730703265,40.5356341685433,40
68.8477,83.0264,82.98275253293193,82.4295419437404,82.68238615372121,40.300366379210715,40.55321058919152,40
71.7773,83.6192,83.57291387104807,83.0125968003191,83.2664669389095,40.30644693213857,40.56031707072897,40
74.707,84.21720000000002,84.16740821728274,83.58519948074401,83.84741542133,40.31999279595274,40.58220873653873,40
77.6367,84.7248,84.67263813182265,84.10130188049361,84.35535818109437,40.31727995072828,40.57133625132904,40
79.1016,84.9537,84.89931228923633,84.31156184801058,84.57339077243488,40.32592151680146,40.58775044122575,40
82.0312,85.4305,85.37162037847754,84.74866300647778,85.027766981958,40.34385339651955,40.62295737199976,40
84.9609,85.8301,85.7668752313121,85.10791873978424,85.40439875581558,40.36247647549652,40.65895649152786,40
87.8906,86.1778,86.11104709731974,85.44229545518826,85.74180374378145,40.369243353538295,40.66875164213148,40
90.8203,86.5563,86.4862178460468,85.82819284292228,86.1179926145795,40.36822523146729,40.65802500312452,40
95.2148,87.0155,86.93807890753621,86.23697693770563,86.54432238697467,40.39375652056154,40.701101969830574,40
98.1445,87.1642,87.08221527813626,86.3564287204157,86.67407166222705,40.40814361590921,40.725786557720554,40
101.074,87.26669999999999,87.17973768443134,86.4249240709039,86.75510458993239,40.42463309449896,40.754813613527446,40
105.469,87.4257,87.32994376882192,86.50903031069697,86.86903751062832,40.4609062581936,40.82091345812495,40
108.398,87.4831,87.38130673246344,86.52137687357268,86.89586858000324,40.485438152460205,40.859929858890766,40
112.793,87.4661,87.35408440333495,86.39353819553843,86.81548626067608,40.53859814265887,40.960546207796526,40
117.188,87.2885,87.16196120232922,86.00618809720649,86.52778257801984,40.634178624309385,41.155773105122734,40
120.117,87.3295,87.19750408269927,85.91456029863498,86.50682376252448,40.69068032017479,41.28294378406429,40
124.512,87.6002,87.47121902585211,86.33060935932728,86.84840986206646,40.62280916378565,41.140609666524824,40
128.906,87.3811,87.24089543806896,86.06852320022132,86.59908601839788,40.64180941967108,41.17237223784764,40
133.301,87.1612,87.01006233513296,85.7145256898824,86.31322894286285,40.69683339227011,41.295536645250564,40
139.16,87.1119,86.9468742844254,85.50125200943245,86.17380197631655,40.77307230810885,41.44562227499296,40
143.555,87.2013,87.02325062853583,85.33969389889971,86.14357394328844,40.87967668524739,41.68355672963612,40
147.949,87.488,87.31145320362629,85.64015418152792,86.445093147872,40.866360055754285,41.67129902209837,40
153.809,87.7578,87.58312717896717,86.06640876464394,86.7859248628846,40.797202316082576,41.516718414323236,40
159.668,87.3244,87.13633959273193,85.6738578500897,86.34240375485182,40.79393583788011,41.462481742642225,40
165.527,87.2012,86.98650490630666,85.14797008429636,86.03223609474502,40.95426881156165,41.8385348220103,40
171.387,87.2416,87.0221498132276,85.08715724309975,86.03289563080371,40.98925418242389,41.93499257012785,40
177.246,86.8559,86.63725973329406,84.9495806522671,85.74468411946086,40.8925756138332,41.68767908102696,40
183.105,86.6892,86.4437723425774,84.52222358977114,85.4436948561175,41.0000774864599,41.92154875280626,40
188.965,86.40020000000001,86.14339540485982,84.16702473372519,85.1097046148046,41.03369079005522,41.97637067113463,40
196.289,86.1813,85.90479192062648,83.90252408973694,84.83590020233962,41.068891718286864,42.00226783088954,40
203.613,85.82220000000001,85.52523022245836,83.49337457338149,84.43027741939096,41.0949528030674,42.031855649076874,40
210.938,85.6849,85.35931197304123,83.0752559976494,84.14806720003867,41.21124477300256,42.28405597539182,40
218.262,85.661,85.32896822538567,82.92464834029437,84.09068671966635,41.238281505719314,42.4043198850913,40
225.586,85.17679999999999,84.80943989221682,82.39080203107085,83.52270666586757,41.28673322634924,42.41863786114597,40
232.91,85.1713,84.76662721984161,81.67791117798954,83.23417559231584,41.532451627525774,43.08871604185207,40
241.699,85.3801,84.9581458694791,80.87553997520234,83.14332041664012,41.814825452838974,44.08260589427675,40
250.488,87.2484,86.88279111511179,82.92494224142774,85.20898327265462,41.673807842457165,43.95784887368404,40
259.277,86.4249,86.05829768859375,83.294077872422,84.71146819754696,41.34682949104679,42.76421981617176,40
268.066,86.4023,85.99416437915286,82.91658294357057,84.53098004238483,41.46318433676804,43.07758143558229,40
276.855,86.0486,85.62060479178844,82.9467642469133,84.25874539284052,41.361859398947914,42.673840544875134,40
287.109,85.8707,85.40544179440695,82.24753563870047,83.87241368580247,41.53302810860448,43.157906155706485,40
297.363,85.6916,85.21497286301847,81.97974493068008,83.7012974761134,41.51367538690508,43.23522793233839,40
307.617,85.3459,84.82666008688965,81.77873109393124,83.30664869466759,41.52001139222206,43.047928992958404,40
319.336,85.4818,84.8884807549467,80.6585463649387,83.03220375176585,41.85627700318085,44.229934390008,40
329.59,85.2484,84.71829077844026,81.22237125592122,83.10938361568104,41.60890716275922,43.495919522519046,40
341.309,85.1017,84.51673699834795,81.29274523292968,82.92861404509378,41.58812295325417,43.223991765418276,40
353.027,84.6259,83.99014995146187,80.86272824752638,82.3736857175021,41.616464233959775,43.1274217039355,40
366.211,86.00819999999999,85.31837020085203,80.61593174956616,83.30607376916612,42.01229643168591,44.70243845128587,40
379.395,85.98740000000001,85.32414047192138,81.31531899942641,83.56621113599309,41.757929335928296,44.00882147249497,40
392.578,85.8851,85.18310368750885,81.51644904113476,83.55357796082909,41.62952572667976,43.666654646374084,40
405.762,85.7137,84.96216391740066,80.94543088653325,83.10358154221558,41.85858237518508,44.016733030867414,40
420.41,85.1456,84.44182498286324,80.96324658813974,82.80400386717001,41.63782111569323,43.4785783947235,40
435.059,84.7046,83.83312637395034,80.1805486795652,81.95650113720495,41.87662523674538,43.65257769438513,40
451.172,84.5716,83.68236758167362,79.99057493514319,81.8573860463106,41.82498153536302,43.69179264653043,40
465.82,85.4683,84.4580885819263,80.21621912975202,82.47260862144597,41.98547996048033,44.241869452174285,40
483.398,86.274,85.34770116995509,80.43179021570327,83.24546771081177,42.10223345914332,44.915910954251814,40
499.512,85.5322,84.53522702903354,80.54445547651102,82.58617787083088,41.949049158202655,43.99077155252252,40
517.09,85.0861,84.02462136183019,79.55627477835853,81.85768860882992,42.16693275300027,44.46834658347166,40
536.133,85.4992,84.27634693325871,79.63300100652701,82.15141991782599,42.12492701543272,44.6433459267317,40
555.176,84.96350000000001,83.6456246139032,79.75360022039936,81.57851297603922,42.067111637863974,43.89202439350383,40
574.219,86.6732,85.29446617067093,80.12023319568303,82.62021320671631,42.674252963954615,45.1742329749879,40
594.727,87.9257,86.6205173457905,80.4544334240605,83.9470196421814,42.6734977036091,46.16608392173001,40
615.234,87.5345,86.20967961138011,80.69554440950145,83.79028848027832,42.41939113110179,45.51413520187866,40
637.207,86.97299999999998,85.57361616610879,80.07824547187536,83.11135155578276,42.46226461032603,45.49537069423343,40
659.18,86.5129,85.02438070296921,79.8408942213499,82.8223559895503,42.20202471341891,45.18348648161931,40
682.617,87.0205,85.36612119645936,80.08790191015584,83.08239778026396,42.2837234161954,45.278219286303525,40
707.52,87.7971,86.01981079850877,80.51446745418515,83.72152711081544,42.29828368769333,45.50534334432362,40
732.422,87.1771,85.47299648665874,81.20809463707384,83.91156989133974,41.561426595319006,44.2649018495849,40
757.324,87.4155,85.41180618696798,81.46749082389012,84.00033138381795,41.41147480315003,43.94431536307786,40
785.156,87.2583,85.18236778008557,81.4005705226411,83.50202489960861,41.68034288047696,43.78179725744447,40
811.523,87.6711,85.45808873035404,81.85607042503477,83.56872664235144,41.8893620880026,43.60201830531926,40
840.82,88.6829,86.43259696487095,81.44235026766108,84.24223962158752,42.19035734328344,44.99024669720987,40
870.117,86.5182,84.32142823255478,79.84618329205406,82.59403050604368,41.7273977265111,44.475244940500716,40
900.879,87.03659999999999,84.74592909457573,79.69052412414722,82.89271084628186,41.85321824829387,45.05540497042851,40
933.105,86.6188,84.40176302607654,79.42932409018495,82.38621570762017,42.01554731845637,44.97243893589159,40
965.332,86.58960000000002,84.4307444020535,78.87866838511206,82.26855727060031,42.162187131453194,45.55207601694144,40
1000.49,86.613,84.27747340086364,78.290327145708,81.71542193094018,42.56205146992346,45.987146255155636,40
1035.64,87.2476,84.93240045077441,78.19900515794448,81.96890201091364,42.96349843986077,46.733395292829925,40
1072.27,86.7801,84.4282245918474,77.36228688983229,81.50061350526795,42.92761108657945,47.065937702015106,40
1108.89,86.8565,84.4509902504765,77.86503859948809,81.81585730537711,42.635132945099386,46.585951650988406,40
1148.44,86.7265,84.23326620185476,77.70131038730828,81.64829218485275,42.58497401700201,46.53195581454648,40
1189.45,86.4399,83.97213109279707,77.70191934327191,81.4121041561285,42.560026936668564,46.27021174952516,40
1230.47,86.83779999999999,84.2471967866876,78.18491388533293,81.64993543606441,42.597261350623185,46.06228290135466,40
1274.41,86.7219,84.14984430142921,78.18979457875864,81.64527729927173,42.504567002157486,45.960049722670576,40
1319.82,87.5035,84.76926854601444,79.06936520416045,82.25573079348966,42.51353775252478,45.699903341854,40
1366.7,88.1398,85.25381878776064,79.31171677594732,82.51809890474752,42.73571988301312,45.94210201181332,40
1413.57,88.9031,85.86806620573228,79.90554697241103,83.14035891509558,42.7277072906367,45.962519233321245,40
1463.38,89.4356,86.261329726687,80.29887882700186,83.40435555299786,42.85697417368914,45.96245089968514,40
1516.11,89.0191,85.78025956940994,80.36557045100592,83.40755427478862,42.37270529462131,45.41468911840401,40
1568.85,88.5548,85.40659081375193,80.1593040644488,83.28785790745795,42.118732906293985,45.24728674930313,40
1624.51,88.4043,85.41924458430533,80.13726018535816,83.19430729904772,42.22493728525761,45.28198439894717,40
1681.64,88.4401,85.64649274929022,79.98109473505875,82.88809454203579,42.75839820725443,45.66539801423147,40
1741.7,88.1047,85.63677957935067,79.85467377974837,82.68809577392179,42.948683805428885,45.782105799602306,40
1803.22,86.28560000000002,84.43098047478533,79.1240049039732,81.61257100584739,42.81840946893794,45.30697557081213,40
1866.21,84.6671,83.55500984707906,78.33117209493511,80.52826541124543,43.026744435833635,45.22383775214395,40
1932.13,83.2684,83.07285643995311,78.04509675005764,80.07489280714134,42.997963632811775,45.027759689895476,40
1999.51,83.4847,83.50686494126984,78.02447136502929,80.10401948239948,43.40284545887036,45.482393576240554,40
2069.82,83.82649999999998,83.62289574917189,77.8201350560612,79.87206780767994,43.75082794149195,45.802760693110685,40
2143.07,83.73230000000001,83.44223053269663,77.96094502308098,80.04367236989528,43.39855816280135,45.481285509615645,40
2219.24,85.6435,84.75523019237696,78.64626187581197,81.01145042259294,43.74377976978401,46.10896831656498,40
2296.88,87.4737,86.03260322022847,79.37131644031335,81.79095868447692,44.24164453575155,46.661286779915116,40
2378.91,87.81559999999999,86.18539899044828,79.48854469534729,81.80249844100311,44.38290054944517,46.69685429510099,40
2462.4,87.316,85.4604154677528,78.78988907386596,80.99878930747096,44.46162616028184,46.67052639388683,40
2548.83,87.5806,86.03631930492794,79.20182920969562,81.51063264205189,44.525686662876055,46.834490095232326,40
2639.65,88.6059,87.24870059316066,79.89812109538273,82.4569510664422,44.79174952671846,47.35057949777793,40
2731.93,87.6224,86.98786158464259,79.69433113776564,82.22980182707838,44.75805975756421,47.29353044687694,40
2828.61,87.4121,86.91149895316967,79.74078106627714,82.29954416226445,44.611954790905216,47.17071788689253,40
2928.22,86.6755,86.69532084244811,79.83107167959184,82.43781775633161,44.2575030861165,46.86424916285627,40
3030.76,86.6852,86.667107237028,79.90896695830804,82.5265865383143,44.1405206987137,46.758140278719964,40
3137.7,86.3486,86.62128186539877,80.01838266171927,82.53628181206861,44.08500005333016,46.6028992036795,40
3249.02,87.32939999999999,87.04365987177786,80.33499145447091,82.92198769336233,44.12167217841554,46.70866841730695,40
3363.28,88.9479,88.07353544901767,81.0981489759608,83.80883523188236,44.264700217135314,46.97538647305687,40
3481.93,88.3323,87.72579509837097,81.25543599594148,83.75076235920854,43.97503273916243,46.470359102429484,40
3604.98,88.8399,87.82209921864154,81.45650904690879,83.8225807838003,43.999518434841235,46.36559017173275,40
3732.42,88.3278,87.34846790499877,81.03618438260963,83.39071989767115,43.95774800732762,46.31228352238914,40
3864.26,87.4247,86.719636568603,80.73885673289236,83.2330170184544,43.48661955014859,45.980779835710635,40
4000.49,86.8751,86.68175057657845,80.90138569317492,83.4643989916222,43.21735158495625,45.780364883403536,40
4141.11,85.03380000000001,85.56495434517615,80.59316054640281,83.116675520639,42.44827882453714,44.971793798773334,40
4287.6,86.3469,85.97450682559997,80.39935765026482,83.04613282353006,42.928374002069916,45.575149175335156,40
4438.48,87.1741,86.23301584420392,80.38225337650714,83.10702034605157,43.12599549815235,45.85076246769678,40
4595.21,87.1791,86.12873970626035,80.29977165751104,83.25142675838879,42.87731294787156,45.8289680487493,40
4756.35,87.2252,86.0692153876027,79.92959802362807,83.16003398879371,42.90918139880898,46.13961736397462,40
4924.8,87.7764,86.58841114877288,79.95548487821364,83.44305553824304,43.14535561052983,46.63292627055924,40
5097.66,87.29250000000002,86.25413724277547,79.79937042814038,83.46124896846017,42.7928882743153,46.45476681463509,40
5277.83,86.4761,86.49063238520522,80.29133898635392,83.91964393366563,42.57098845153959,46.199293398851296,40
5463.87,86.2015,86.55544577421301,80.32593801327009,83.93392162506817,42.62152414914485,46.22950776094292,40
5657.23,86.0021,86.04599490326623,79.97445395361274,83.44417961107652,42.60181529218971,46.071540949653496,40
5856.45,85.9974,85.89754688618672,79.77192638005963,83.30968962631522,42.5878572598715,46.12562050612709,40
6062.99,85.9469,85.5916906590321,79.29153055925008,83.1048170210245,42.486873638007594,46.30016009978202,40
6276.86,85.7312,85.17193184642163,78.54546857137476,82.49781842680844,42.67411341961319,46.62646327504687,40
6498.05,86.7577,85.38326659866986,78.20494742046208,82.38841652670102,42.99485007196884,47.178319178207786,40
6726.56,86.85929999999999,86.20193844415988,78.26868792151284,82.64208169559757,43.55985674856231,47.93325052264704,40
6963.87,87.3204,86.47461293545786,78.17751663595784,82.84434457077583,43.630268364682024,48.29709629950001,40
7209.96,87.987,86.79847498145358,78.16636122119726,82.9062307890278,43.89224419242578,48.63211376025632,40
7464.84,87.67260000000002,86.8391366734652,78.02333580285867,82.92725480274805,43.91188187071715,48.81580087060654,40
7727.05,86.94389999999999,86.3788510401321,77.66578017480654,82.6087110531498,43.7701399869823,48.71307086532556,40
7999.51,87.2285,86.80334674966772,77.62787431656454,82.5096756249087,44.29367112475903,49.17547243310318,40
8282.23,87.8484,87.14086990564155,77.63299550065581,82.62095019303912,44.51991971260243,49.50787440498574,40
8573.73,88.0532,87.24722940068276,77.58556078984252,82.56071125203245,44.68651814865031,49.66166861084024,40
8876.95,88.531,87.54516946137369,77.70154466047269,82.62607587312075,44.919093588252935,49.843624800901,40
9188.96,88.7236,87.80155752384371,77.72415629327585,82.70681640833386,45.09474111550985,50.07740123056786,40
9514.16,89.0496,87.97528764999394,77.56038026554518,82.65268918217131,45.32259846782263,50.41490738444877,40
9849.61,88.91810000000001,87.79365183534915,77.04065444389795,82.23656796610109,45.55708386924806,50.7529973914512,40
10196.8,88.6149,87.48899683938413,76.75383802257389,81.92324077690063,45.5657560624835,50.73515881681024,40
10555.7,88.6981,87.52026079381147,76.65385191501794,81.82172458312526,45.698536210686214,50.866408878793536,40
10927.7,89.1231,87.82870715373252,76.86872999100683,82.13631411703359,45.69239303669893,50.95997716272569,40
11313.0,89.655,88.22278870809721,77.0078521977941,82.43853668988456,45.784252018212655,51.21493651030312,40
11712.9,90.0883,88.47656905996746,76.90477862203001,82.55167263130645,45.924896428661015,51.57179043793745,40
12126.0,90.4594,88.43096042849139,76.63042497745441,82.43507992413964,45.995880504351746,51.80053545103698,40
12553.7,90.2759,88.06687588095328,76.2372629785938,82.10655479278299,45.96032108817029,51.82961290235947,40
