Freq,On Axis,Listening Window,Sound Power,Early Reflections,Early Reflections DI,Sound Power DI,DI offset
20.5078,63.478125757575754,63.4751533390362,63.21406622231561,63.331624316134025,40.14352902290217,40.26108711672059,40
21.9727,63.56332575757577,63.560880166126026,63.32531175570176,63.43384359225459,40.127036573871436,40.235568410424264,40
23.4375,65.06972575757577,65.06156127211096,64.70687477150238,64.88020622646587,40.18135504564509,40.35468650060858,40
24.9023,66.32762575757576,66.31880706292807,65.9887998878796,66.14661406551056,40.17219299741751,40.33000717504848,40
26.3672,67.40362575757577,67.39368183630435,67.01939442620038,67.20032895503131,40.19335288127304,40.374287410103975,40
27.832,68.43552575757576,68.42481711564156,68.06977666258362,68.23814570578293,40.18667140985863,40.35504045305794,40
29.2969,68.90282575757576,68.89007070297293,68.47767286516901,68.67792757280307,40.21214313016986,40.41239783780392,40
30.7617,69.93812575757576,69.92439198415889,69.52034421575613,69.71467646038559,40.2097155237733,40.40404776840276,40
32.2266,70.67822575757577,70.66389583251255,70.25938872151579,70.45323692777251,40.21065890474004,40.40450711099676,40
33.6914,71.40902575757576,71.39400164873686,70.98555812781119,71.18165866170207,40.21234298703479,40.40844352092567,40
35.1562,72.02202575757576,72.00642614280548,71.59893997572517,71.79363014956441,40.21279599324107,40.40748616708031,40
36.6211,72.64842575757577,72.63112732693975,72.2031113596826,72.40798190414357,40.22314542279618,40.42801596725715,40
38.0859,73.33422575757575,73.31601772772164,72.88025594387385,73.08881600707505,40.22720172064659,40.435761783847795,40
39.5508,73.94622575757575,73.92719998197666,73.48880604832655,73.69802350614951,40.229176475827146,40.438393933650104,40
41.0156,74.53652575757576,74.51627218178699,74.06684883387175,74.2812703538883,40.235001827898685,40.44942334791524,40
42.4805,75.08922575757575,75.06805128993751,74.61574785388653,74.83102552176511,40.2370257681724,40.45230343605098,40
43.9453,75.65052575757576,75.62837979331512,75.16866122726192,75.38706055352263,40.24131923979249,40.4597185660532,40
45.4102,76.18302575757576,76.15975284531679,75.68994167801468,75.91299533555583,40.246757509760954,40.46981116730211,40
46.875,76.75472575757576,76.73098007245852,76.26443771980716,76.4852147877067,40.245765284751826,40.46654235265136,40
48.3398,77.20312575757578,77.1770289140114,76.68135643482424,76.91578201155471,40.26124690245669,40.495672479187164,40
51.2695,78.10372575757576,78.07680981448085,77.60067067284788,77.8233825764901,40.25342723799075,40.47613914163297,40
52.7344,78.56722575757576,78.5400286274558,78.08077561078323,78.294281814051,40.24574681340479,40.45925301667256,40
54.1992,79.02802575757576,78.9992210741525,78.53413461215523,78.75034233189018,40.24887874226232,40.465086461997274,40
55.6641,79.52302575757577,79.49176215309056,78.9956769844828,79.22704208709371,40.264720065996855,40.49608516860776,40
58.5938,80.37312575757576,80.33783498661087,79.80214886134138,80.05266897540223,40.285166011208645,40.53568612526949,40
60.0586,80.84622575757577,80.80909341179385,80.24753570402545,80.51171028908179,40.29738312271206,40.5615577077684,40
62.9883,81.54462575757576,81.50470608427727,80.91028624007785,81.19035977286777,40.31434631140951,40.59441984419942,40
64.4531,81.86642575757577,81.82743234712905,81.27584051971073,81.53291488798982,40.29451745913923,40.55159182741832,40
67.3828,82.59912575757576,82.55763744950404,82.02200328096075,82.2669701424714,40.29066730703265,40.5356341685433,40
68.8477,82.90972575757576,82.86607829050769,82.31286770131616,82.56571191129697,40.300366379210715,40.55321058919152,40
71.7773,83.50252575757577,83.45623962862383,82.89592255789486,83.14979269648526,40.30644693213857,40.56031707072897,40
74.707,84.10052575757578,84.0507339748585,83.46852523831977,83.73074117890576,40.31999279595274,40.58220873653873,40
77.6367,84.60812575757576,84.55596388939841,83.98462763806937,84.23868393867014,40.31727995072828,40.57133625132904,40
79.1016,84.83702575757576,84.7826380468121,84.19488760558635,84.45671653001064,40.32592151680146,40.58775044122575,40
82.0312,85.31382575757576,85.2549461360533,84.63198876405355,84.91109273953376,40.34385339651955,40.62295737199976,40
84.9609,85.71342575757576,85.65020098888786,84.99124449736,85.28772451339134,40.36247647549652,40.65895649152786,40
87.8906,86.06112575757577,85.9943728548955,85.32562121276402,85.62512950135721,40.369243353538295,40.66875164213148,40
90.8203,86.43962575757575,86.36954360362256,85.71151860049804,86.00131837215527,40.36822523146729,40.65802500312452,40
95.2148,86.89882575757576,86.82140466511197,86.1203026952814,86.42764814455043,40.39375652056154,40.701101969830574,40
98.1445,87.04752575757576,86.96554103571202,86.23975447799147,86.55739741980281,40.40814361590921,40.725786557720554,40
101.074,87.15002575757575,87.0630634420071,86.30824982847966,86.63843034750815,40.42463309449896,40.754813613527446,40
105.469,87.30902575757577,87.21326952639768,86.39235606827273,86.75236326820408,40.4609062581936,40.82091345812495,40
108.398,87.36642575757575,87.2646324900392,86.40470263114844,86.779194337579,40.485438152460205,40.859929858890766,40
112.793,87.34942575757576,87.23741016091071,86.27686395311419,86.69881201825184,40.53859814265887,40.960546207796526,40
117.188,87.17182575757576,87.04528695990498,85.88951385478225,86.4111083355956,40.634178624309385,41.155773105122734,40
120.117,87.21282575757576,87.08082984027503,85.79788605621074,86.39014952010024,40.69068032017479,41.28294378406429,40
124.512,87.48352575757576,87.35454478342787,86.21393511690304,86.73173561964222,40.62280916378565,41.140609666524824,40
128.906,87.26442575757576,87.12422119564472,85.95184895779708,86.48241177597365,40.64180941967108,41.17237223784764,40
133.301,87.04452575757576,86.89338809270872,85.59785144745815,86.19655470043861,40.69683339227011,41.295536645250564,40
139.16,86.99522575757577,86.83020004200117,85.38457776700821,86.05712773389232,40.77307230810885,41.44562227499296,40
143.555,87.08462575757576,86.9065763861116,85.22301965647547,86.0268997008642,40.87967668524739,41.68355672963612,40
147.949,87.37132575757576,87.19477896120205,85.52347993910368,86.32841890544776,40.866360055754285,41.67129902209837,40
153.809,87.64112575757576,87.46645293654294,85.9497345222197,86.66925062046036,40.797202316082576,41.516718414323236,40
159.668,87.20772575757576,87.01966535030769,85.55718360766546,86.22572951242758,40.79393583788011,41.462481742642225,40
165.527,87.08452575757576,86.86983066388242,85.03129584187212,85.91556185232078,40.95426881156165,41.8385348220103,40
171.387,87.12492575757577,86.90547557080336,84.97048300067551,85.91622138837947,40.98925418242389,41.93499257012785,40
177.246,86.73922575757577,86.52058549086982,84.83290640984286,85.62800987703662,40.8925756138332,41.68767908102696,40
183.105,86.57252575757576,86.32709810015317,84.4055493473469,85.32702061369326,41.0000774864599,41.92154875280626,40
188.965,86.28352575757577,86.02672116243558,84.05035049130095,84.99303037238036,41.03369079005522,41.97637067113463,40
196.289,86.06462575757575,85.78811767820224,83.7858498473127,84.71922595991538,41.068891718286864,42.00226783088954,40
203.613,85.70552575757577,85.40855598003412,83.37670033095725,84.31360317696672,41.0949528030674,42.031855649076874,40
210.938,85.56822575757576,85.24263773061699,82.95858175522517,84.03139295761443,41.21124477300256,42.28405597539182,40
218.262,85.54432575757576,85.21229398296143,82.80797409787013,83.97401247724211,41.238281505719314,42.4043198850913,40
225.586,85.06012575757575,84.69276564979258,82.27412778864661,83.40603242344334,41.28673322634924,42.41863786114597,40
232.91,85.05462575757576,84.64995297741737,81.5612369355653,83.1175013498916,41.532451627525774,43.08871604185207,40
241.699,85.26342575757576,84.84147162705486,80.7588657327781,83.02664617421588,41.814825452838974,44.08260589427675,40
250.488,87.13172575757577,86.76611687268755,82.8082679990035,85.09230903023038,41.673807842457165,43.95784887368404,40
259.277,86.30822575757576,85.94162344616952,83.17740362999776,84.59479395512273,41.34682949104679,42.76421981617176,40
268.066,86.28562575757576,85.87749013672862,82.79990870114634,84.41430579996059,41.46318433676804,43.07758143558229,40
276.855,85.93192575757575,85.5039305493642,82.83009000448907,84.14207115041629,41.361859398947914,42.673840544875134,40
287.109,85.75402575757576,85.28876755198272,82.13086139627623,83.75573944337823,41.53302810860448,43.157906155706485,40
297.363,85.57492575757576,85.09829862059424,81.86307068825585,83.58462323368916,41.51367538690508,43.23522793233839,40
307.617,85.22922575757576,84.70998584446541,81.662056851507,83.18997445224335,41.52001139222206,43.047928992958404,40
319.336,85.36512575757577,84.77180651252246,80.54187212251446,82.91552950934161,41.85627700318085,44.229934390008,40
329.59,85.13172575757577,84.60161653601602,81.10569701349698,82.9927093732568,41.60890716275922,43.495919522519046,40
341.309,84.98502575757576,84.40006275592371,81.17607099050544,82.81193980266954,41.58812295325417,43.223991765418276,40
353.027,84.50922575757576,83.87347570903763,80.74605400510214,82.25701147507786,41.616464233959775,43.1274217039355,40
366.211,85.89152575757575,85.20169595842779,80.49925750714192,83.18939952674188,42.01229643168591,44.70243845128587,40
379.395,85.87072575757577,85.20746622949714,81.19864475700217,83.44953689356885,41.757929335928296,44.00882147249497,40
392.578,85.76842575757576,85.06642944508461,81.39977479871052,83.43690371840485,41.62952572667976,43.666654646374084,40
405.762,85.59702575757576,84.84548967497642,80.828756644109,82.98690729979134,41.85858237518508,44.016733030867414,40
420.41,85.02892575757576,84.325150740439,80.8465723457155,82.68732962474577,41.63782111569323,43.4785783947235,40
435.059,84.58792575757576,83.7164521315261,80.06387443714097,81.83982689478071,41.87662523674538,43.65257769438513,40
451.172,84.45492575757577,83.56569333924938,79.87390069271895,81.74071180388636,41.82498153536302,43.69179264653043,40
465.82,85.35162575757576,84.34141433950207,80.09954488732778,82.35593437902173,41.98547996048033,44.241869452174285,40
483.398,86.15732575757576,85.23102692753085,80.31511597327903,83.12879346838753,42.10223345914332,44.915910954251814,40
499.512,85.41552575757576,84.4185527866093,80.42778123408678,82.46950362840664,41.949049158202655,43.99077155252252,40
517.09,84.96942575757576,83.90794711940595,79.43960053593429,81.74101436640568,42.16693275300027,44.46834658347166,40
536.133,85.38252575757576,84.15967269083447,79.51632676410277,82.03474567540175,42.12492701543272,44.6433459267317,40
555.176,84.84682575757577,83.52895037147896,79.63692597797512,81.46183873361498,42.067111637863974,43.89202439350383,40
574.219,86.55652575757576,85.17779192824669,80.00355895325879,82.50353896429208,42.674252963954615,45.1742329749879,40
594.727,87.80902575757577,86.50384310336626,80.33775918163626,83.83034539975716,42.6734977036091,46.16608392173001,40
615.234,87.41782575757576,86.09300536895587,80.57887016707721,83.67361423785408,42.41939113110179,45.51413520187866,40
637.207,86.85632575757575,85.45694192368455,79.96157122945112,82.99467731335852,42.46226461032603,45.49537069423343,40
659.18,86.39622575757576,84.90770646054497,79.72421997892566,82.70568174712606,42.20202471341891,45.18348648161931,40
682.617,86.90382575757576,85.24944695403512,79.9712276677316,82.96572353783972,42.2837234161954,45.278219286303525,40
707.52,87.68042575757576,85.90313655608453,80.39779321176091,83.6048528683912,42.29828368769333,45.50534334432362,40
732.422,87.06042575757576,85.3563222442345,81.0914203946496,83.7948956489155,41.561426595319006,44.2649018495849,40
757.324,87.29882575757576,85.29513194454374,81.35081658146588,83.88365714139371,41.41147480315003,43.94431536307786,40
785.156,87.14162575757577,85.06569353766133,81.28389628021687,83.38535065718438,41.68034288047696,43.78179725744447,40
811.523,87.55442575757576,85.3414144879298,81.73939618261053,83.4520523999272,41.8893620880026,43.60201830531926,40
840.82,88.56622575757576,86.31592272244671,81.32567602523685,84.12556537916328,42.19035734328344,44.99024669720987,40
870.117,86.40152575757575,84.20475399013054,79.72950904962983,82.47735626361944,41.7273977265111,44.475244940500716,40
900.879,86.91992575757575,84.62925485215149,79.57384988172298,82.77603660385762,41.85321824829387,45.05540497042851,40
933.105,86.50212575757575,84.2850887836523,79.31264984776071,82.26954146519593,42.01554731845637,44.97243893589159,40
965.332,86.47292575757578,84.31407015962927,78.76199414268783,82.15188302817607,42.162187131453194,45.55207601694144,40
1000.49,86.49632575757576,84.1607991584394,78.17365290328377,81.59874768851594,42.56205146992346,45.987146255155636,40
1035.64,87.13092575757577,84.81572620835017,78.08233091552025,81.8522277684894,42.96349843986077,46.733395292829925,40
1072.27,86.66342575757577,84.31155034942316,77.24561264740805,81.38393926284371,42.92761108657945,47.065937702015106,40
1108.89,86.73982575757576,84.33431600805226,77.74836435706385,81.69918306295287,42.635132945099386,46.585951650988406,40
1148.44,86.60982575757576,84.11659195943052,77.58463614488404,81.53161794242851,42.58497401700201,46.53195581454648,40
1189.45,86.32322575757576,83.85545685037283,77.58524510084767,81.29542991370427,42.560026936668564,46.27021174952516,40
1230.47,86.72112575757575,84.13052254426336,78.0682396429087,81.53326119364017,42.597261350623185,46.06228290135466,40
1274.41,86.60522575757577,84.03317005900497,78.0731203363344,81.52860305684749,42.504567002157486,45.960049722670576,40
1319.82,87.38682575757576,84.6525943035902,78.95269096173621,82.13905655106542,42.51353775252478,45.699903341854,40
1366.7,88.02312575757576,85.1371445453364,79.19504253352308,82.40142466232328,42.73571988301312,45.94210201181332,40
1413.57,88.78642575757576,85.75139196330804,79.78887272998679,83.02368467267134,42.7277072906367,45.962519233321245,40
1463.38,89.31892575757576,86.14465548426276,80.18220458457762,83.28768131057362,42.85697417368914,45.96245089968514,40
1516.11,88.90242575757576,85.6635853269857,80.24889620858168,83.29088003236438,42.37270529462131,45.41468911840401,40
1568.85,88.43812575757576,85.2899165713277,80.04262982202457,83.17118366503371,42.118732906293985,45.24728674930313,40
1624.51,88.28762575757577,85.3025703418811,80.02058594293392,83.07763305662348,42.22493728525761,45.28198439894717,40
1681.64,88.32342575757576,85.52981850686598,79.86442049263451,82.77142029961155,42.75839820725443,45.66539801423147,40
1741.7,87.98802575757576,85.52010533692643,79.73799953732413,82.57142153149755,42.948683805428885,45.782105799602306,40
1803.22,86.16892575757578,84.31430623236109,79.00733066154896,81.49589676342315,42.81840946893794,45.30697557081213,40
1866.21,84.55042575757577,83.43833560465482,78.21449785251087,80.41159116882119,43.026744435833635,45.22383775214395,40
1932.13,83.15172575757576,82.95618219752888,77.9284225076334,79.9582185647171,42.997963632811775,45.027759689895476,40
1999.51,83.36802575757577,83.3901906988456,77.90779712260505,79.98734523997524,43.40284545887036,45.482393576240554,40
2069.82,83.70982575757574,83.50622150674765,77.70346081363697,79.7553935652557,43.75082794149195,45.802760693110685,40
2143.07,83.61562575757577,83.32555629027239,77.84427078065674,79.92699812747104,43.39855816280135,45.481285509615645,40
2219.24,85.52682575757576,84.63855594995272,78.52958763338773,80.8947761801687,43.74377976978401,46.10896831656498,40
2296.88,87.35702575757576,85.91592897780423,79.25464219788911,81.67428444205268,44.24164453575155,46.661286779915116,40
2378.91,87.69892575757575,86.06872474802404,79.37187045292305,81.68582419857887,44.38290054944517,46.69685429510099,40
2462.4,87.19932575757576,85.34374122532856,78.67321483144173,80.88211506504672,44.46162616028184,46.67052639388683,40
2548.83,87.46392575757577,85.9196450625037,79.08515496727138,81.39395839962765,44.525686662876055,46.834490095232326,40
2639.65,88.48922575757577,87.13202635073642,79.7814468529585,82.34027682401796,44.79174952671846,47.35057949777793,40
2731.93,87.50572575757576,86.87118734221835,79.5776568953414,82.11312758465414,44.75805975756421,47.29353044687694,40
2828.61,87.29542575757576,86.79482471074543,79.6241068238529,82.18286991984021,44.611954790905216,47.17071788689253,40
2928.22,86.55882575757576,86.57864660002387,79.7143974371676,82.32114351390737,44.2575030861165,46.86424916285627,40
3030.76,86.56852575757576,86.55043299460377,79.7922927158838,82.40991229589007,44.1405206987137,46.758140278719964,40
3137.7,86.23192575757577,86.50460762297453,79.90170841929503,82.41960756964437,44.08500005333016,46.6028992036795,40
3249.02,87.21272575757575,86.92698562935362,80.21831721204667,82.80531345093809,44.12167217841554,46.70866841730695,40
3363.28,88.83122575757577,87.95686120659343,80.98147473353656,83.69216098945812,44.264700217135314,46.97538647305687,40
3481.93,88.21562575757576,87.60912085594673,81.13876175351724,83.6340881167843,43.97503273916243,46.470359102429484,40
3604.98,88.72322575757576,87.7054249762173,81.33983480448455,83.70590654137607,43.999518434841235,46.36559017173275,40
3732.42,88.21112575757576,87.23179366257453,80.9195101401854,83.27404565524691,43.95774800732762,46.31228352238914,40
3864.26,87.30802575757576,86.60296232617875,80.62218249046812,83.11634277603017,43.48661955014859,45.980779835710635,40
4000.49,86.75842575757576,86.56507633415421,80.78471145075068,83.34772474919797,43.21735158495625,45.780364883403536,40
4141.11,84.91712575757577,85.44828010275191,80.47648630397858,83.00000127821477,42.44827882453714,44.971793798773334,40
4287.6,86.23022575757577,85.85783258317574,80.28268340784058,82.92945858110582,42.928374002069916,45.575149175335156,40
4438.48,87.05742575757576,86.11634160177968,80.2655791340829,82.99034610362733,43.12599549815235,45.85076246769678,40
4595.21,87.06242575757577,86.01206546383611,80.1830974150868,83.13475251596455,42.87731294787156,45.8289680487493,40
4756.35,87.10852575757576,85.95254114517846,79.81292378120384,83.04335974636948,42.90918139880898,46.13961736397462,40
4924.8,87.65972575757576,86.47173690634864,79.8388106357894,83.3263812958188,43.14535561052983,46.63292627055924,40
5097.66,87.17582575757578,86.13746300035123,79.68269618571614,83.34457472603593,42.7928882743153,46.45476681463509,40
5277.83,86.35942575757576,86.37395814278098,80.17466474392968,83.80296969124139,42.57098845153959,46.199293398851296,40
5463.87,86.08482575757576,86.43877153178877,80.20926377084585,83.81724738264393,42.62152414914485,46.22950776094292,40
5657.23,85.88542575757576,85.929320660842,79.8577797111885,83.32750536865228,42.60181529218971,46.071540949653496,40
5856.45,85.88072575757576,85.78087264376248,79.65525213763539,83.19301538389098,42.5878572598715,46.12562050612709,40
6062.99,85.83022575757576,85.47501641660786,79.17485631682584,82.98814277860026,42.486873638007594,46.30016009978202,40
6276.86,85.61452575757576,85.05525760399739,78.42879432895052,82.3811441843842,42.67411341961319,46.62646327504687,40
6498.05,86.64102575757576,85.26659235624562,78.08827317803784,82.27174228427678,42.99485007196884,47.178319178207786,40
6726.56,86.74262575757575,86.08526420173564,78.1520136790886,82.52540745317333,43.55985674856231,47.93325052264704,40
6963.87,87.20372575757577,86.35793869303362,78.0608423935336,82.72767032835159,43.630268364682024,48.29709629950001,40
7209.96,87.87032575757576,86.68180073902934,78.04968697877302,82.78955654660356,43.89224419242578,48.63211376025632,40
7464.84,87.55592575757578,86.72246243104097,77.90666156043443,82.81058056032381,43.91188187071715,48.81580087060654,40
7727.05,86.82722575757575,86.26217679770787,77.5491059323823,82.49203681072557,43.7701399869823,48.71307086532556,40
7999.51,87.11182575757576,86.68667250724349,77.5112000741403,82.39300138248446,44.29367112475903,49.17547243310318,40
