Freq "Estimated In-Room Response"
20.5078 78.48053320831056
21.9727 81.11457895567939
23.4375 83.12000259480934
24.9023 84.73343699876241
26.3672 86.56552045645574
27.832 88.53488231428324
29.2969 89.93377214345657
30.7617 91.68887421324006
32.2266 92.89082301085482
33.6914 94.24925313130876
35.1562 95.27810757308988
36.6211 95.99037185611763
38.0859 96.50111061845483
39.5508 96.74555456295603
41.0156 96.86841151798352
42.4805 96.95783151062216
43.9453 96.99127677311367
45.4102 96.93756077434853
46.875 96.93522347572687
48.3398 96.92381573372595
51.2695 96.90068083725971
52.7344 96.89528796451603
54.1992 96.91796828269017
55.6641 96.95775945466583
58.5938 96.83973572766479
60.0586 96.88172847934017
62.9883 96.85768805585226
64.4531 96.80540573544204
67.3828 96.53680285817894
68.8477 96.46255413829476
71.7773 96.38665427876947
74.707 96.24464633276655
77.6367 96.08484948283402
79.1016 95.98965071873175
82.0312 95.82532759049231
84.9609 95.75266147392033
87.8906 95.78651217566801
90.8203 95.80133172578846
95.2148 95.8565516601387
98.1445 95.99085412327626
101.074 96.00438930274503
105.469 96.11145281343498
108.398 96.35056007954832
112.793 96.53478582007106
117.188 96.66086315734726
120.117 96.71297168316998
124.512 96.81791524189751
128.906 96.8677109251449
133.301 96.91231067773127
139.16 96.89929462193098
143.555 96.90385190110804
147.949 96.90412700024237
153.809 96.81186371115848
159.668 96.97223559952315
165.527 97.06306729266232
171.387 97.03661920375833
177.246 96.97186392746221
183.105 96.87464030863549
188.965 96.77968873294769
196.289 96.86691779134429
203.613 96.80240463254673
210.938 96.77043492781536
218.262 96.70512330055729
225.586 96.76311492883617
232.91 96.82992265768246
241.699 96.62246966529683
250.488 96.72055072653502
259.277 96.62486771464643
268.066 96.26211977992611
276.855 96.33273743787339
287.109 96.01694238501229
297.363 96.39214459097546
307.617 96.39794477759135
319.336 96.31240746964959
329.59 95.85622494272732
341.309 96.0089292018014
353.027 95.88800686995621
366.211 95.94340091236946
379.395 96.40941405130009
392.578 95.76244081288863
405.762 95.58341338349346
420.41 95.50296038370522
435.059 95.41542529688219
451.172 95.85992118056974
465.82 95.64823594063479
483.398 95.87956591046867
499.512 95.35114684270192
517.09 95.56643876436175
536.133 95.11947719932559
555.176 95.24997164719902
574.219 95.11584977080065
594.727 94.54855484495693
615.234 94.274140309822
637.207 94.11800820695626
659.18 93.27972173752988
682.617 93.96537718179434
707.52 94.07874693216456
732.422 93.58592402440223
757.324 94.21846071904669
785.156 93.95866163513848
811.523 94.29983617607272
840.82 94.74972318286191
870.117 94.83950946676109
900.879 95.34828436224461
933.105 95.3455069575718
965.332 95.54572176607314
1000.49 95.48268925412788
1035.64 95.50261023501699
1072.27 95.1827605310885
1108.89 95.0639223277694
1148.44 94.80821144430726
1189.45 94.50139490259619
1230.47 94.64369945028214
1274.41 94.64374238596267
1319.82 94.40829159465409
1366.7 94.02921097551123
1413.57 93.42396974352675
1463.38 92.85606726317512
1516.11 92.34012732809485
1568.85 92.05524846227758
1624.51 92.49177939468368
1681.64 93.22456771600318
1741.7 93.29939983796525
1803.22 93.08065406820585
1866.21 92.4294880749244
1932.13 92.18110122111868
1999.51 93.44312076915645
2069.82 93.28883816486653
2143.07 93.5632001937625
2219.24 93.06806355648591
2296.88 92.73226541207748
2378.91 93.80561246902349
2462.4 94.02104479284662
2548.83 94.12037045219837
2639.65 93.54673242214177
2731.93 92.76434867146355
2828.61 93.0087786891159
2928.22 93.65236190638288
3030.76 93.77450745406398
3137.7 93.67188949055755
3249.02 93.37278702138511
3363.28 93.07671708919462
3481.93 93.1719254337655
3604.98 93.44747034207893
3732.42 93.81629931130067
3864.26 93.50841928148722
4000.49 93.37780375791402
4141.11 94.04045186188985
4287.6 94.13533232654444
4438.48 94.15558665465184
4595.21 93.69327213776441
4756.35 94.30963366099604
4924.8 94.28654029907452
5097.66 93.71001564953492
5277.83 93.68018774146677
5463.87 93.56486063409778
5657.23 93.3697681743843
5856.45 92.68581438436685
6062.99 93.16373432632346
6276.86 93.01689582055833
6498.05 93.2211498103182
6726.56 93.00724586215921
6963.87 92.93959472299969
7209.96 93.41936587373786
7464.84 93.23935501287951
7727.05 93.54602041292797
7999.51 93.51809434574467
8282.23 93.63323795306815
8573.73 93.66377278389943
8876.95 93.4141708286968
9188.96 92.97281108983216
9514.16 93.25755340995273
9849.61 93.15373629395944
10196.8 93.37225691126764
10555.7 93.1779710269296
10927.7 93.15967176829238
11313.0 93.01414483556411
11712.9 93.13213482669366
12126.0 93.26728863870943
12553.7 93.37041829980458
12996.1 93.30861896679617
13454.6 93.07189199281012
13929.2 92.86639135982992
14419.9 92.98215126500428
14928.2 92.95239005547887
15455.6 93.09515603634375
16000.5 93.32584445319313
16564.5 93.26273502818523
17148.9 92.80348975780643
17752.4 91.93916065853682
18379.4 91.0656878159037
19026.9 90.47260316094287
19697.8 89.57042657873022
19999.5 88.9686206208069
