Freq "Ceiling Bounce"
22.4 36.935130591779824
23.0 37.56845083805433
23.6 38.168450838054326
24.0 39.268450838054335
25.0 44.003069571042516
25.8 46.86845083805433
26.5 48.668450838054326
27.2 50.80306957104251
28.0 53.63513059177981
29.0 55.53513059177983
30.0 57.03513059177983
30.7 59.20306957104253
31.5 60.86845083805433
32.5 62.435130591779824
33.5 65.70306957104252
34.5 67.90306957104252
35.5 69.70306957104252
36.5 71.7030695710425
37.5 73.20306957104252
38.7 74.60306957104252
40.0 75.80306957104251
41.2 76.70306957104253
42.5 77.40306957104252
43.7 77.90306957104252
45.0 78.00306957104252
46.2 77.97150800786939
47.5 78.10306957104251
48.7 78.30306957104251
50.0 78.40306957104251
51.5 78.40306957104251
53.0 78.50306957104253
54.5 78.63821129888743
56.0 78.53821129888743
58.0 78.63821129888743
60.0 78.97150800786937
61.5 79.43821129888744
63.0 79.73821129888744
65.0 79.83821129888743
67.0 80.2069050103546
69.0 80.57150800786937
71.0 80.70690501035459
73.0 80.90690501035459
75.0 81.20690501035459
77.5 81.44283030471973
80.0 81.44283030471973
82.5 81.14283030471974
85.0 80.64283030471974
87.5 80.74283030471975
90.0 80.51227178315618
92.5 80.91227178315619
95.0 80.91227178315619
97.5 80.81227178315618
100.0 80.78219967332303
103.0 80.48219967332305
106.0 80.78219967332303
109.0 80.51916705502754
112.0 80.61916705502753
115.0 80.21916705502753
118.0 80.48982856673473
122.0 80.28982856673471
125.0 80.48982856673473
128.0 80.56096514237183
132.0 80.66096514237182
136.0 80.59897445130926
140.0 80.72758719283593
145.0 80.69897445130925
150.0 80.36096514237182
155.0 80.19897445130925
160.0 80.29897445130925
165.0 79.98219812790056
170.0 78.82526453928848
175.0 77.55062128010366
180.0 76.29237898809801
185.0 75.39237898809802
190.0 73.892378988098
195.0 73.4179278976485
200.0 73.192378988098
206.0 72.3599996174499
212.0 71.19664781293233
218.0 69.64827552839256
224.0 67.67404084094026
230.0 65.65366398410077
236.0 63.314264088783915
240.0 62.358392665329916
250.0 64.29080616590043
258.0 66.89389595883674
265.0 68.43469773360899
272.0 69.14898359150843
280.0 69.48982856673472
290.0 69.70690501035459
300.0 69.74136150423587
307.0 69.24963978119757
315.0 68.37882682230878
325.0 67.13392657477245
335.0 63.90123407755884
345.0 67.2098662867233
355.0 70.6501692307022
365.0 70.4925701141361
375.0 67.11638770313007
387.0 63.23638088039144
400.0 62.60791075563449
412.0 63.18042420054255
425.0 63.676627982539046
437.0 63.32179738688896
450.0 62.582198127900554
462.0 62.68219812790055
475.0 62.90034112939827
487.0 63.56941986366729
500.0 63.89179815677409
515.0 63.581612085334214
530.0 63.09664781293232
545.0 62.772691453225946
560.0 61.52102614963506
580.0 59.91870013174088
600.0 58.61147494842764
615.0 57.68686427957849
630.0 56.9667170246814
650.0 56.692378988098
670.0 56.536474123904156
690.0 56.05858760124326
710.0 55.56941986366728
730.0 55.004329122498575
750.0 54.91394942912606
775.0 54.504492390722945
800.0 53.56061809080708
825.0 52.110658643777725
850.0 50.23088119339842
875.0 48.29471929119204
900.0 46.950170752125715
925.0 45.692384149751476
950.0 45.158660276008334
975.0 43.816277831777484
1000.0 42.435130591779824
1030.0 40.91916705502754
1060.0 39.7623574294208
1090.0 40.212136119768616
1120.0 40.69218730938165
1150.0 40.09278094266247
1180.0 38.22960778847309
1220.0 36.23155546406841
1250.0 34.576102945834975
1280.0 33.32005264720888
1320.0 33.2578661020826
1360.0 32.64087012037896
1400.0 32.02303560131621
1450.0 34.36527799073171
1500.0 34.29678777837262
1550.0 31.947590172924976
1600.0 30.858512850102017
1650.0 29.10054084297144
1700.0 30.72773304031628
1750.0 29.86809493598264
1800.0 33.377653741278465
1850.0 33.7543917692484
1900.0 30.330923402430443
1950.0 25.553836297060457
2000.0 23.86131925447654
2060.0 29.66620989389216
2120.0 34.296211527320224
2180.0 34.78246753146328
2240.0 31.9572715999891
2300.0 28.67635034559953
2360.0 24.09061030163278
2400.0 18.020392064485065
2500.0 20.059469145070437
2580.0 22.823630146862882
2650.0 21.735404156008826
2720.0 17.271386767542026
2800.0 14.587333185929253
2900.0 14.674892290830996
3000.0 15.225663391135782
3070.0 14.555289882910415
3150.0 15.814989448921665
3250.0 15.793773802737547
3350.0 13.57976419010339
3450.0 12.023655238672688
3550.0 14.918922828800078
3650.0 15.276571045503516
3750.0 12.424579936878985
3870.0 13.568861057093699
4000.0 14.868850823838159
4120.0 13.776698861085663
4250.0 10.935743937772543
4370.0 11.186918060203965
4500.0 8.250623039281919
4620.0 7.9139926324822625
4750.0 3.6341022374583645
4870.0 -0.5854210424669191
5000.0 -3.8132762538303098
5150.0 -3.8642941268192033
5300.0 1.3927962470945943
5450.0 -0.5138312338444848
5600.0 0.45560605112689245
5800.0 0.03891050987661515
6000.0 -6.895974120576966
6150.0 -7.831741278259557
6300.0 -1.6103287881033452
6500.0 -0.9211696195770855
6700.0 1.3019020585147985
6900.0 7.483678955918464
7100.0 4.166720736860583
7300.0 0.003413581982783853
7500.0 -4.043740005589086
7750.0 -4.40320847386144
8000.0 -1.0230221037690512
8250.0 -2.583722168222522
8500.0 -4.796865376086288
8750.0 -6.153190164791852
9000.0 -3.9497442153141833
9250.0 -3.833282975318582
9500.0 -5.41487715970834
9750.0 -8.470733231205799
10000.0 -5.560190632468931
10300.0 -6.094951224159189
10600.0 0.155920433737748
10900.0 -1.3386281000777842
11200.0 -4.336546497718473
11500.0 -11.715068958108219
11800.0 -12.215630204357808
12200.0 -6.823656627956979
12500.0 -6.068777645381886
12800.0 -7.46987634736351
13200.0 -8.739647030192515
13600.0 -19.645949065469267
14000.0 -21.364722508180364
14500.0 -18.398097645001485
15000.0 -13.227308546774026
15500.0 -15.239187171431183
16000.0 -5.726168897880768
16500.0 -5.088839182407412
17000.0 -7.13054002020715
17500.0 -3.9919214894430297
18000.0 -10.837898973837298
18500.0 -5.970392211526928
19000.0 -2.8582804766902257
19500.0 0.561368376227648
