Freq "Front Wall Bounce"
22.4 54.984911547236564
23.0 55.61343490581764
23.6 56.22795665691824
24.0 57.35685529433758
25.0 62.08491154723657
25.8 64.92795665691825
26.5 66.7568552943376
27.2 68.88491154723657
28.0 71.72795665691824
29.0 73.61343490581766
30.0 75.11343490581766
30.7 77.28491154723656
31.5 78.95685529433759
32.5 80.55685529433758
33.5 83.81343490581766
34.5 86.01343490581766
35.5 87.78491154723658
36.5 89.82795665691825
37.5 91.32795665691823
38.7 92.68491154723658
40.0 93.92795665691823
41.2 94.85685529433758
42.5 95.55685529433758
43.7 96.08491154723656
45.0 96.15685529433759
46.2 96.15685529433759
47.5 96.32795665691823
48.7 96.5568552943376
50.0 96.58556290609606
51.5 96.60017799693937
53.0 96.7568552943376
54.5 96.85685529433759
56.0 96.7568552943376
58.0 96.92926145081917
60.0 97.2568552943376
61.5 97.72926145081915
63.0 98.0568552943376
65.0 98.17156714945779
67.0 98.57156714945779
69.0 98.92926145081915
71.0 99.12926145081916
73.0 99.2735272905178
75.0 99.64406691883568
77.5 99.92926145081915
80.0 99.9021252701307
82.5 99.64406691883568
85.0 99.17352729051781
87.5 99.31702337832331
90.0 99.11702337832331
92.5 99.58852365565228
95.0 99.58852365565228
97.5 99.54666714563496
100.0 99.48852365565229
103.0 99.26175638591319
106.0 99.56175638591318
109.0 99.36175638591318
112.0 99.46175638591319
115.0 99.09177849206947
118.0 99.39177849206946
122.0 99.23543805286657
125.0 99.43543805286656
128.0 99.53543805286657
132.0 99.68101490911866
136.0 99.59531280688113
140.0 99.78101490911865
145.0 99.76564201286088
150.0 99.38101490911866
155.0 99.28101490911867
160.0 99.35541155796756
165.0 99.43769341315445
170.0 99.4044192782623
175.0 98.6011517426739
180.0 97.67254733057385
185.0 97.34565151323079
190.0 96.46074427653603
195.0 95.98947779538814
200.0 96.00634353447309
206.0 95.751193938665
212.0 95.31314465110484
218.0 94.80045620111878
224.0 94.3036702842886
230.0 93.71634936109639
236.0 92.91194913254346
240.0 92.5933628902328
250.0 92.53397557739788
258.0 92.65972729189495
265.0 92.79333700532317
272.0 92.58149673121632
280.0 92.40922411923931
290.0 92.28096062608856
300.0 92.6402123226142
307.0 93.19324803561797
315.0 93.20550084294564
325.0 92.99648702591183
335.0 92.6334309419626
345.0 91.95396730431234
355.0 91.55556229456963
365.0 90.87503345238447
375.0 89.83456987646407
387.0 88.22402557425652
400.0 87.97531266519098
412.0 88.23448587929731
425.0 87.18096062608856
437.0 85.36914527836052
450.0 84.09162543337067
462.0 83.80697957764944
475.0 83.95509522776554
487.0 83.88806189052329
500.0 83.87078597649847
515.0 84.0137070524081
530.0 84.25758092443685
545.0 84.16737637473017
560.0 83.69972716325758
580.0 83.12865195510874
600.0 82.58232094058509
615.0 82.21653551030468
630.0 81.72870350594987
650.0 80.88570005243227
670.0 79.81933999827305
690.0 78.99318687067016
710.0 78.50097697758463
730.0 78.17616282324293
750.0 77.74006753792246
775.0 76.9749873287239
800.0 76.23595798301243
825.0 75.37269969813997
850.0 74.47908466988083
875.0 73.0258327609603
900.0 71.14052608245639
925.0 69.8327146397376
950.0 69.0039330652475
975.0 67.9147088947346
1000.0 66.7629612915036
1030.0 65.77879132795346
1060.0 64.77358473368393
1090.0 63.81252147403734
1120.0 63.01362899247583
1150.0 62.39107693285068
1180.0 61.58804047150993
1220.0 60.87043114335896
1250.0 60.692745773879636
1280.0 61.00763991141277
1320.0 61.255801076922765
1360.0 61.14887886522375
1400.0 60.951687548197654
1450.0 60.88788081505996
1500.0 60.05171096128454
1550.0 58.22089677779208
1600.0 57.15957322596218
1650.0 57.33150421621899
1700.0 58.41705257092595
1750.0 59.39899616796042
1800.0 59.536977500761864
1850.0 56.84617015952951
1900.0 55.41077962792653
1950.0 55.33747974306635
2000.0 56.394957268970344
2060.0 58.58427438547703
2120.0 60.09581361712971
2180.0 59.57801901533841
2240.0 55.85109703535777
2300.0 50.89496132792759
2360.0 49.43618029094243
2400.0 52.43167663921375
2500.0 55.431976852651204
2580.0 56.215269977190985
2650.0 53.97845976911587
2720.0 49.131365333889065
2800.0 46.224547440971705
2900.0 47.00374898009407
3000.0 47.561977587177054
3070.0 47.74848256443566
3150.0 45.91732889264374
3250.0 45.234951617298904
3350.0 43.70972283548845
3450.0 42.55648697272848
3550.0 44.147410091920236
3650.0 42.95743463638043
3750.0 43.04774434872074
3870.0 42.18144605396451
4000.0 43.964638653456674
4120.0 45.315026514339976
4250.0 43.023368462066614
4370.0 39.98652195431053
4500.0 38.049107191057644
4620.0 32.249577618762416
4750.0 24.84978768800299
4870.0 21.8797140600838
5000.0 20.86119624623187
5150.0 19.481080329023584
5300.0 19.024838230614918
5450.0 21.592379495443296
5600.0 21.175788480303893
5800.0 18.71027106182997
6000.0 17.630350472829505
6150.0 15.717811972609113
6300.0 16.71788200174113
6500.0 15.219784039050765
6700.0 15.204181723710334
6900.0 16.927972053917742
7100.0 19.818666516130705
7300.0 18.595703698772397
7500.0 21.03356873030104
7750.0 23.00932488242573
8000.0 22.18222842377203
8250.0 19.474192651881296
8500.0 16.947131579819384
8750.0 15.144547257337067
9000.0 20.21215562776301
9250.0 16.54869512784198
9500.0 19.20638678220432
9750.0 22.49509749920547
10000.0 20.724419218905396
10300.0 16.564289505843433
10600.0 21.798203169049927
10900.0 16.85129950569744
11200.0 12.327037145078393
11500.0 13.766541708653264
11800.0 15.308926078844237
12200.0 15.95584257167188
12500.0 12.249347234957199
12800.0 11.163991448367725
13200.0 8.217870216018511
13600.0 9.945817211096355
14000.0 7.189166597715328
14500.0 7.4176597131046975
15000.0 7.166492788052764
15500.0 7.768770899353271
16000.0 9.590782813502429
16500.0 9.598446578515947
17000.0 9.236313165050134
17500.0 10.174044864428751
18000.0 7.663889817007274
18500.0 8.855470394006247
19000.0 11.783378120313458
19500.0 10.831492150109213
