Freq "On Axis"
20.5078 67.16046515151515
21.9727 68.14506515151515
23.4375 72.22306515151516
24.9023 74.72006515151516
26.3672 77.31046515151516
27.832 80.00306515151516
29.2969 81.78016515151516
30.7617 83.02456515151516
32.2266 83.25496515151517
33.6914 83.64366515151517
35.1562 83.83516515151516
36.6211 84.00676515151517
38.0859 84.13476515151515
39.5508 84.23796515151514
41.0156 84.43686515151516
42.4805 84.63226515151516
43.9453 84.76006515151516
45.4102 85.14256515151516
46.875 85.38346515151517
48.3398 85.63496515151516
51.2695 86.16176515151514
52.7344 86.43826515151517
54.1992 86.81336515151516
55.6641 87.10896515151518
58.5938 87.65366515151516
60.0586 87.84056515151516
62.9883 88.32496515151516
64.4531 88.52446515151516
67.3828 88.93606515151515
68.8477 89.16956515151516
71.7773 89.69366515151516
74.707 90.18276515151516
77.6367 90.49526515151516
79.1016 90.54346515151516
82.0312 90.74006515151515
84.9609 90.94816515151516
87.8906 90.93836515151514
90.8203 90.78426515151516
95.2148 90.98826515151517
98.1445 91.34026515151515
101.074 90.91226515151516
105.469 91.11526515151516
108.398 91.53296515151516
112.793 91.73856515151516
117.188 91.74236515151516
120.117 91.85096515151515
124.512 91.88626515151516
128.906 92.05876515151516
133.301 91.91666515151516
139.16 91.51206515151516
143.555 91.29206515151515
147.949 91.18826515151515
153.809 91.47186515151517
159.668 92.38996515151516
165.527 92.60576515151516
171.387 92.34676515151516
177.246 92.19736515151516
183.105 91.85506515151516
188.965 92.48186515151517
196.289 93.72266515151514
203.613 93.47256515151516
210.938 92.99906515151515
218.262 93.35046515151515
225.586 93.37326515151517
232.91 92.99286515151516
241.699 93.05386515151515
250.488 92.65066515151517
259.277 93.30816515151515
268.066 93.19046515151516
276.855 92.08406515151515
287.109 92.21696515151515
297.363 91.85166515151516
307.617 92.28116515151515
319.336 91.36066515151516
329.59 91.83516515151516
341.309 91.30156515151516
353.027 92.55136515151516
366.211 92.55946515151516
379.395 92.28686515151514
392.578 91.44476515151516
405.762 92.09296515151516
420.41 91.96606515151515
435.059 91.77466515151514
451.172 92.51056515151515
465.82 93.08026515151516
483.398 92.03656515151516
499.512 92.67286515151515
517.09 91.64476515151516
536.133 92.71496515151516
555.176 93.04456515151516
574.219 93.02866515151516
594.727 92.58226515151516
615.234 91.96446515151516
637.207 92.65286515151516
659.18 92.76476515151516
682.617 92.71046515151515
707.52 91.98326515151516
732.422 92.92056515151516
757.324 93.23146515151515
785.156 93.40656515151514
811.523 92.14846515151515
840.82 92.55056515151514
870.117 92.51936515151516
900.879 92.00756515151515
933.105 92.23076515151516
965.332 92.19736515151516
1000.49 92.19156515151516
1035.64 92.04406515151516
1072.27 90.90656515151514
1108.89 91.56426515151514
1148.44 91.48946515151516
1189.45 92.05106515151516
1230.47 91.64456515151515
1274.41 91.11296515151514
1319.82 92.08846515151515
1366.7 90.97086515151517
1413.57 91.30566515151516
1463.38 90.42196515151517
1516.11 91.29256515151516
1568.85 90.59776515151516
1624.51 91.00566515151516
1681.64 90.39616515151516
1741.7 89.86156515151515
1803.22 89.96776515151515
1866.21 90.78946515151516
1932.13 90.87076515151514
1999.51 90.22206515151515
2069.82 90.83456515151516
2143.07 90.72776515151517
2219.24 91.40776515151516
2296.88 91.67786515151516
2378.91 90.95756515151515
2462.4 90.43956515151515
2548.83 92.57726515151518
2639.65 91.87986515151516
2731.93 92.48266515151516
2828.61 91.23316515151515
2928.22 91.72386515151516
3030.76 92.93226515151517
3137.7 91.56056515151516
3249.02 92.60396515151515
3363.28 91.19576515151516
3481.93 91.39266515151516
3604.98 90.74206515151516
3732.42 92.00736515151516
3864.26 90.20746515151515
4000.49 90.26706515151517
4141.11 90.57056515151515
4287.6 89.53486515151516
4438.48 90.49666515151516
4595.21 90.51466515151517
4756.35 90.29646515151516
4924.8 90.58086515151516
5097.66 90.75716515151515
5277.83 91.57056515151515
5463.87 91.31656515151516
5657.23 91.77116515151516
5856.45 91.51986515151516
6062.99 91.29216515151516
6276.86 90.46416515151516
6498.05 89.61806515151514
6726.56 89.35586515151516
6963.87 88.04656515151515
7209.96 88.89176515151516
7464.84 88.14536515151516
7727.05 89.14496515151515
7999.51 90.46526515151515
8282.23 90.72126515151515
8573.73 90.49436515151515
8876.95 90.18636515151516
9188.96 90.51536515151516
9514.16 90.47996515151516
9849.61 90.67726515151516
10196.8 90.61916515151515
10555.7 90.34916515151514
10927.7 89.83266515151516
11313.0 89.82776515151515
11712.9 90.12886515151516
12126.0 90.67386515151516
12553.7 90.79966515151516
12996.1 91.04876515151517
13454.6 91.10546515151516
13929.2 91.16376515151516
14419.9 91.30986515151515
14928.2 91.54496515151516
15455.6 91.65486515151515
16000.5 91.34816515151516
16564.5 90.68546515151516
17148.9 89.97216515151516
17752.4 89.89086515151516
18379.4 90.04156515151516
19026.9 90.07996515151515
19697.8 89.63416515151516
19999.5 89.27386515151515
