Freq,Floor Bounce,Ceiling Bounce,Front Wall Bounce,Side Wall Bounce,Rear Wall Bounce,Total Early Reflection
20.5078,55.5288872436866,53.87574575182464,54.84642880860753,55.01555855613313,54.97406325415997,54.880523035272915
21.9727,55.65330928519785,53.27871892313087,54.576701485344614,54.58660458199998,54.71892093343013,54.62726728249007
23.4375,56.500005366368754,53.9521545977571,55.32859567073163,55.38806979054388,55.70540545659253,55.45056338164454
24.9023,58.001259683675784,55.732825878757694,56.94920214684919,56.93834179258539,56.9473544881258,56.972509908543884
26.3672,58.24757339067878,55.29776876322887,56.94388879335577,56.81219550934293,56.59565561017962,56.880639493317204
27.832,61.245779753106234,58.70347004822858,60.14337467795994,59.97570873583351,59.47734384650272,59.99019922552125
29.2969,63.07218539520102,60.77383075742807,62.04725613158827,61.965061822899926,61.69307197289879,61.97276298252278
30.7617,64.45132687992738,62.27702864668012,63.458706876595386,63.352435173467384,63.205539702064755,63.40431729906335
32.2266,66.67309941151285,64.46740383419781,65.7006365678557,65.57069267035286,65.32506170971365,65.6053040752886
33.6914,68.53664847253074,66.50370001639592,67.64824030644183,67.50377031977065,67.17227830049568,67.52382656768557
35.1562,70.29133515641148,68.39260478756088,69.4451836039641,69.36173951597542,69.21790825066681,69.38383086011628
36.6211,72.16544181179657,70.32665052109041,71.3633092334055,71.24717493094136,71.01033990358809,71.26319787459889
38.0859,73.98837981632505,72.18262145572604,73.2146940191623,73.09114388528019,72.8087833305118,73.0969010399893
39.5508,75.54184584875517,73.81862628505414,74.80346646669713,74.6957838450156,74.44483764630488,74.69679191275036
41.0156,76.93706136624955,75.37365363365495,76.28227036048281,76.1663033686693,75.93100789775293,76.16777453708765
42.4805,77.66668951191404,76.07183701345068,77.00026085542568,76.86225663028083,76.59515996901317,76.87070110533219
43.9453,78.49150674093167,76.95003618734614,77.8571910007239,77.71892007187625,77.43819753541878,77.7208308579273
45.4102,78.91756061246284,77.38669721851359,78.29898296578844,78.15192511425677,77.84138476029783,78.14903352929406
46.875,79.26870056386873,77.75461660541043,78.66463533731377,78.49922658435159,78.13841109262944,78.49521329364931
48.3398,79.5702464255825,78.08707385813156,78.98279017182362,78.81201161917866,78.42633868634411,78.80519105276511
51.2695,79.9691529146686,78.53153985047246,79.4078317069415,79.24020297765651,78.85714950656526,79.22900679105851
52.7344,80.16126008657577,78.76221533339803,79.61884404096705,79.45012105041366,79.08746838790441,79.4422344313191
54.1992,80.35693490001785,79.00277728573417,79.84123529394938,79.6643364140279,79.28869470081294,79.65591679331766
55.6641,80.57255025624805,79.25125254722988,80.06962346857385,79.89094236644108,79.49646239855238,79.88063245432755
58.5938,80.99734066262604,79.69342692951697,80.50626731590249,80.32684910273956,79.94927851054106,80.31827572039163
60.0586,81.25395913046393,79.97004525970489,80.77279106892577,80.58575495661783,80.21780812458921,80.58307915645776
62.9883,81.8438577985161,80.59583976863819,81.38923215545029,81.1840315667272,80.75103305503099,81.17612459519661
64.4531,82.05796388589002,80.81070292255245,81.60885366759081,81.39143737199848,80.93727433201452,81.38514087920454
67.3828,82.4333916867139,81.21484198289073,82.00260068408427,81.78036029286305,81.30346962971585,81.77051377691781
68.8477,82.52113453614533,81.34213375108615,82.10442632649581,81.88940929253201,81.44348467684361,81.88188644080162
71.7773,82.77718883250488,81.63222247749312,82.37875786093767,82.16120123142983,81.73874837124815,82.15806449407877
74.707,82.93182584970084,81.85769666958579,82.55355464158974,82.34886858650894,81.9593634538997,82.34817167121754
77.6367,83.01166459293462,81.9591032295643,82.64314561962243,82.43439817167533,82.05917556625988,82.43870701729205
79.1016,83.07879130320845,82.03935179489582,82.71830750520088,82.5025370662627,82.11546063515216,82.50809058724892
82.0312,83.34494061317858,82.31565064541306,82.9967497277413,82.76086528470985,82.33780650201456,82.76912141073947
84.9609,83.46167065019588,82.44557628224983,83.12608462217278,82.88632161950979,82.46005730443571,82.89363013013565
87.8906,83.36300187238491,82.50395538342642,83.08952554748394,82.86419105148157,82.49850004716626,82.87686254630466
90.8203,83.61962743819318,82.77450336895643,83.3402031982122,83.12283641568422,82.84709765692747,83.15220113654559
95.2148,83.91309076705758,83.06947220311207,83.66998899066712,83.40756007128589,83.0128345551857,83.42832373693864
98.1445,84.06734586436478,83.28083602847667,83.85043335201846,83.57666811805473,83.04626631680566,83.58002191724341
101.074,84.0297984937822,83.33300649337401,83.83181187605987,83.5776941738691,83.12452151853759,83.59165600477778
105.469,84.05107747377407,83.24042635562327,83.7963283869858,83.57805471633188,83.25488947567027,83.59548443910202
108.398,84.06956839762721,83.23160219453837,83.81860165140147,83.52954850142481,83.2089776878051,83.58458594245255
112.793,83.95211811079564,83.04698738092794,83.69300001796432,83.36737309647549,83.13770092755539,83.45283189696823
117.188,83.79247512569395,82.92646207787254,83.59318916062168,83.20871223354308,82.84593261756861,83.2890661856502
120.117,83.73014835503334,82.7932228673113,83.49937859506616,83.11236060939555,82.64783792225873,83.17597989568856
124.512,83.7278796387106,82.89377944485898,83.53633939581037,83.12540113295981,82.54359687038911,83.18641201586289
128.906,83.39210130497815,82.63668683433734,83.26903996812553,82.81159791924806,82.13129701488904,82.87165271085313
133.301,83.11677404384982,82.34779677568609,82.98587509991741,82.58892638748517,82.03503769345738,82.63316823619351
139.16,82.77026747271157,81.97991453280036,82.65257900709994,82.23137371259769,81.83458987654416,82.30918187600062
143.555,82.83551046843785,81.94441958107447,82.71033042916716,82.15568753494934,81.63800439985707,82.2805367914574
147.949,82.88910180968662,82.07161862744157,82.80288394885149,82.23781567126642,81.46926322950036,82.32467864756015
153.809,82.59150579644277,81.95646223884049,82.60544746316926,82.03997414818136,81.14943946767025,82.10038064341511
159.668,82.4539610313519,81.90326989714538,82.49115265432229,81.99811213622297,81.20460879540101,82.03469798798014
165.527,82.3058253029534,81.63774857754392,82.31435739349857,81.80000269556137,81.35624139865145,81.89914366760085
171.387,82.45306045450542,81.86926100407047,82.46968068748353,81.91061659045982,81.14812877159483,81.99655179043103
177.246,82.26161827642449,81.66106449814055,82.33269726024565,81.80129523163387,81.18925416893582,81.86916669051412
183.105,82.24946213424593,81.8102545739404,82.43214096805717,81.78804176892454,81.28309210633056,81.93100415622077
188.965,82.2935610867036,82.11453153065129,82.61043169684424,81.91466802093841,81.12704398472121,82.0397900982273
196.289,82.37579559189727,82.57160601479201,82.81701432279179,82.11081103958891,81.29478216801608,82.26451469160382
203.613,82.56916426252543,82.70366885863099,82.97325198919731,82.21202635345423,81.34029907735085,82.3951099300986
210.938,82.72063369352146,82.7713526244603,83.15782227167253,82.3830478740814,81.23963023689548,82.50144878741435
218.262,82.56638986294828,82.99833291049723,83.16092411652346,82.40854132086581,81.55794696576478,82.57365766758932
225.586,82.66146538754212,83.2398559999456,83.40181555155684,82.56909480946516,81.45424958433837,82.71721082670584
232.91,82.59912655516082,83.20972844250312,83.37560987243751,82.49231570155992,81.33352693862378,82.65920035990976
241.699,82.65540725292297,82.93568467074391,83.26997398206957,82.37901543686718,81.1049062411935,82.52918966095281
250.488,82.73791705968166,83.01698368491066,83.364506562055,82.38126771674843,80.93017445535294,82.56266306334764
259.277,82.96731222664066,83.28384154956399,83.50274694212409,82.49569982471085,80.98156450006783,82.73259371963717
268.066,82.58161183418412,82.99644247209574,83.2404730926787,82.240881180445,80.57889281727671,82.42162058231835
276.855,82.67877477770115,82.84107056509208,83.1035139827,82.22942158366678,80.34482010384676,82.34186536575348
287.109,81.94441182770228,82.54679397451982,82.66090053575098,81.9661929505696,80.33151975295111,81.96430767523304
297.363,82.02034080087635,83.44447915689335,83.2079612562026,82.00998756623324,80.14958589188645,82.31435545922201
307.617,82.25918413946118,82.89415239323654,83.01877092947376,82.25596504740705,79.90023400205997,82.19683272060168
319.336,82.60474844115276,82.6166825744852,83.18123579906793,82.0605217906301,80.0368605582424,82.22422109324178
329.59,82.36284642786754,82.28264283192186,82.90725288770594,82.11260183521559,79.75483653124094,82.00807109051574
341.309,82.47037329268949,82.59242492527565,83.11118896930721,81.81639955583726,79.8756472816008,82.10627981217479
353.027,82.29386144090205,82.33745014111221,82.86606174909284,82.00756754349351,79.35418681430306,81.92731578196364
366.211,82.1592767294169,82.9331451311016,83.21792387457002,82.17334723489019,79.19396681162702,82.14147334678886
379.395,82.61799073212244,82.87603037329914,83.17821817865911,82.3311549249857,79.72391377220389,82.30146767345403
392.578,82.54857211828656,81.91349345892299,82.86907152933891,82.17154986326275,79.5536790172966,81.95291199165459
405.762,82.96009534725323,82.28178284340294,83.31803300919306,82.1221769720986,79.34866337203846,82.20413960628547
420.41,82.68681552725064,82.37159970271756,83.28007126788938,82.47174818213828,79.00806548984546,82.1872682791253
435.059,82.5189331801799,82.2353271438904,83.2797762846742,82.40397747955399,79.34973948539742,82.14184231544424
451.172,83.08649710573653,81.65805277077864,83.16600458743936,82.5914005699842,79.32095607675734,82.1720234317956
465.82,83.2315260428862,81.67723785782684,83.35276566119829,82.31999137747204,79.18882543606502,82.18834513315294
483.398,82.7303095188136,81.54517280903967,83.17883748645636,82.23078082751695,78.71221950318665,81.9292215260991
499.512,82.96603218874841,81.72876743238663,83.56026907644258,82.60225814187224,78.97181419962882,82.22638364440456
517.09,83.41607969144931,81.50334587162936,83.56798633324021,82.89366599259094,79.3048301593069,82.39681484478687
536.133,83.52559720520847,81.1825089810481,83.66304668622331,82.56282128405249,79.00103647979546,82.29834717953187
555.176,83.14042631266847,81.91828202207226,83.7959169106607,82.77712480681748,78.77394557349477,82.38660813040377
574.219,83.86071893063816,81.94232590188294,84.05152286510341,82.83120938311453,79.3798807133288,82.70660053986033
594.727,83.53877336395307,82.47980557832021,84.08155302219,81.94286064044672,79.62584445971603,82.58635382980859
615.234,83.57152114347173,82.25493229562623,84.5364726642693,81.11530811008605,78.31275903610525,82.44011191666517
637.207,83.54747242488999,80.73907560853206,84.18804692823642,81.48976829099186,77.44358495057939,82.0607960110871
659.18,84.08321493084081,81.42461214719845,83.94859773707972,81.73772322290888,77.34873543629391,82.2871572954742
682.617,83.89672150767876,81.40957854082542,83.74336888502832,81.34811470331216,78.04473363278927,82.15136380897545
707.52,84.09712855750355,81.20663235620617,84.00571280404688,81.34417484043588,77.49277182425135,82.21587469921134
732.422,84.72624443533611,81.42027417847488,83.7581329053553,81.21306731858432,77.32305820577218,82.35219244022397
757.324,84.26910607624058,79.73830862289907,84.03740336268952,80.80717492233293,77.11607710206042,81.9681751790663
785.156,84.92787926585896,79.79016162442976,83.9887501431839,81.1541347815882,76.69576986997168,82.22201503691507
811.523,84.7579422691262,79.67756360767915,84.44535715608687,81.22610322393058,76.93271769889964,82.31577809917826
840.82,84.67865866725722,80.09919362357992,84.31227405112828,81.83668040388542,76.02078280809336,82.34791218822281
870.117,85.23939287639246,80.75387707578828,84.08101380452761,82.11204674677938,76.40321828616268,82.62611707918458
900.879,85.26874235216526,81.45334263296151,84.06178145102822,81.52324129008105,77.1655901646124,82.67183127718974
933.105,85.45658639858985,81.23364091329832,84.39483446864232,81.873122310337,76.39132308201215,82.81815308614911
965.332,85.43625867113693,81.2354207980458,83.8098701461843,81.41056134762738,76.04034597226914,82.56012566622155
1000.49,86.1261417258796,81.66990113443757,83.7448845195866,81.43248885003706,75.94291183512637,82.88675308293409
1035.64,86.4413128652116,82.1963223535542,83.71332673629246,81.45478302474052,75.55165699189939,83.08498767278302
1072.27,86.17117964896876,82.57138763838297,82.74694965415176,80.08424565790227,75.68626772420191,82.65815061219435
1108.89,86.45870120530722,83.09674678865733,83.44662813378812,79.92297245762985,74.76631085911784,82.99212072195894
1148.44,86.10956027497633,82.8849999857489,83.14561271523834,79.22257738893595,73.62893366441689,82.62731702408257
1189.45,86.03428184395527,80.73386497125446,83.88910564751095,80.12479444463645,74.52002106305356,82.53220089934949
1230.47,85.51900286206919,81.15034866901519,84.41338995431144,80.15384554782436,74.61683306569836,82.53109177142228
1274.41,84.7400526973796,80.93341783312528,84.0934882570973,80.43891994603706,74.92738534431592,82.14960460371186
1319.82,84.77087513328682,80.76126527738191,84.0634960846031,80.2021775776594,74.6386604491645,82.08380776470109
1366.7,84.09182508115234,81.26699560256958,83.61582201972993,79.61513295904219,73.2552360783699,81.66154067431026
1413.57,84.18504284757043,81.34327158421237,82.54425344557355,78.62884650212447,72.33910053767923,81.25859234786468
1463.38,83.54470310727254,80.66171760450982,81.25525764868586,77.05701593550417,70.51128362710054,80.31966537269497
1516.11,82.82276945685047,79.47991943283911,80.42850929032325,75.74077020678499,69.79620508782676,79.42183883266901
1568.85,81.45487787739637,80.0751829803874,80.44282818356898,75.59332832000737,69.33824395564659,78.99944302424595
1624.51,81.0099324197493,78.77549868680923,80.39471552644868,76.01213603500699,68.57927301651864,78.55226209026439
1681.64,80.85851984430852,79.25822614485656,81.22963228785667,76.69025945380031,68.30480280579536,78.94672329058506
1741.7,81.22461813401935,77.37613668392497,82.66779203895324,77.7713612755671,69.53480068586714,79.45375032681143
1803.22,81.84473420712662,77.06152576662146,82.20837700838575,77.15609935073395,69.390084432447,79.35183509174371
1866.21,81.12520667575907,76.47532634680206,82.00656439630353,77.02423528872976,70.36174648299576,78.96511899455916
1932.13,82.26782446934135,78.24931235940467,81.98327927616918,75.91270522268925,69.50224360908103,79.45675887960158
1999.51,80.16702214353555,78.94284270299994,82.08040714466536,77.7007869205944,69.53117031430685,79.15545170806388
2069.82,79.38607508627429,76.78952480632807,82.24349196287898,78.18233824900244,68.754380737222,78.75642223825614
2143.07,79.67294801112237,77.4833585473078,81.84029082347348,78.2552271745098,68.94010343846075,78.76542496197555
2219.24,80.26738564091369,77.65577549763526,80.9961058914975,77.20281725606633,68.56505125707534,78.45245494302307
2296.88,78.63333886331318,78.62366743969369,80.36005239041003,76.6366695301398,69.10598094520984,77.90596296971594
2378.91,78.9746764993778,78.59230203470975,81.33844814941455,78.04023483411328,69.16621424007523,78.56509344696258
2462.4,78.31914640325876,77.75597647827178,82.42426824330934,79.05516734712182,69.61462382620866,78.94214435271734
2548.83,78.74447319325049,78.17029245823542,82.01842254830962,78.96682930935229,69.41640866828652,78.89018160339202
2639.65,79.49759545682554,78.19071949473806,81.05979958119427,77.86490558667919,68.59889874776256,78.46396296885628
2731.93,79.33371260788944,77.55560591742368,80.37415060202208,77.21982502254832,67.75499322663327,77.92975932928384
2828.61,78.56866402504667,77.29642028898303,80.84389178761045,77.59887179408895,67.56173947317214,77.92759064239903
2928.22,78.40782078285854,77.4856043381113,81.50241234004143,77.7596874101996,67.07695628866452,78.21498825291516
3030.76,78.68650390330956,77.62834180186846,81.4448245603073,77.65826733558686,67.34237422102426,78.2612212581548
3137.7,78.54876925254445,77.77024629724465,81.17764089556394,77.43941259232722,66.78990890576003,78.09987193649498
3249.02,78.66536712494975,77.78174196850826,80.86324537653445,77.50744083811695,66.70181174476863,78.01465916577806
3363.28,78.7530791305874,78.20318652593411,80.9322026867048,77.3504098367101,66.27096929707862,78.11133096015135
3481.93,79.36917687942685,78.3229307366525,81.06811961833571,77.93065936694092,66.84698236282536,78.44183884500198
3604.98,80.43203152631831,78.4810153915046,81.89236577372057,78.63647181746202,67.6699764124933,79.18509843820047
3732.42,81.12943935695242,78.0670766706527,82.45580367861515,78.86483647297494,67.39883810116345,79.56455733882395
3864.26,82.06872161643801,78.29121202171466,81.92780473614525,77.63970471214577,66.75447074896752,79.51506643997881
4000.49,81.52705794580677,77.60488263217525,82.48050677888276,77.59746083384888,67.25381988232697,79.44088381930014
4141.11,81.17391648839954,77.74880836668194,82.67656821551357,78.5305785114788,67.32057894495168,79.56632800554948
4287.6,81.08365558095441,78.3000364200447,82.83326565401255,78.6094582862682,67.62375133558079,79.69740675424147
4438.48,81.12393168301857,77.7398858902796,83.35052574864196,78.36246790453062,66.90080175020128,79.81137848699375
4595.21,80.9059989215346,77.9124313332374,82.18677533295943,77.93939191608798,66.58782545846124,79.21443704548625
4756.35,80.94501736479796,77.57688066224881,82.84845402845,78.5847867956758,67.15443752002352,79.55798067606278
4924.8,80.8283830461839,78.4012540831688,82.8403370294484,78.79946682506525,67.01343552308727,79.67002679117549
5097.66,82.2176548684481,78.99122679316724,81.63392603483572,78.18515232688681,66.93901532318523,79.66020225342207
5277.83,82.50391721508464,78.74542449753427,81.51751646122504,78.52372409822458,66.37827392710933,79.73358091152824
5463.87,82.28165726259648,78.87342518845956,81.5806959981494,78.89352262953074,68.12980800822271,79.76966572428906
5657.23,81.49954303611294,78.9923619362383,81.54211541567227,79.22847939402186,67.11571870271763,79.56200302911651
5856.45,81.06871165558121,79.68901864510245,81.52301097558974,79.12927156647896,67.75850581000348,79.55009234530536
6062.99,81.88654626807669,79.67773926583476,81.82615828925788,79.58274894195597,67.75816988438358,79.96799463211161
6276.86,82.48803750633382,80.2176443620065,80.54769247051361,79.57405748633938,67.24659667678098,79.92890338268023
6498.05,81.51502379290257,80.82590088802611,80.07162194889858,80.14909165212637,67.61023483995118,79.76452901393408
6726.56,81.61521183117517,81.50994802393225,79.30184319165504,80.43562998457668,67.39597078530363,79.89289744830587
6963.87,82.220058074422,82.20700587069189,80.13939177102897,80.11139163323602,65.95422668872541,80.35631947951325
7209.96,82.3357138751133,81.62778021163332,81.92359510217807,80.29621275899859,65.27961354552491,80.66590312324885
7464.84,81.48238009813484,80.62940006737648,82.44682948549791,79.15477590886749,63.2809574822212,80.1400319581039
7727.05,80.88783633682746,79.71477370505909,83.09920237565225,79.44776299827399,63.167274316490705,80.09107112807501
7999.51,80.59637928807246,79.24576716721725,82.77700224830546,78.22121768088292,62.2526860720145,79.60365836374031
8282.23,82.15532133347719,78.87567439418527,82.33472395998028,78.12101168819801,62.05502722624507,79.81476607382207
8573.73,82.68536490890058,79.16595062212227,82.0994235072558,77.36367378096776,60.11529406982379,79.87480189262087
8876.95,81.11722822549127,78.75911594366629,82.01510103703194,76.93682430049074,58.87767316667646,79.17707720783775
9188.96,80.21081383864802,78.36640115855955,82.20712606543722,76.35739180110681,57.78262539152888,78.84999881764668
9514.16,81.09772905676509,77.0138911964596,82.41252130755578,76.41412110173837,57.14124401950522,79.00509398937751
