Freq "Ceiling Bounce"
22.4 49.59965439277177
23.0 51.19965439277179
23.6 52.838977574558
24.0 55.170829702842966
25.0 57.1457671943847
25.8 58.735130591779836
26.5 60.305318067664714
27.2 62.37387961222818
28.0 64.24576719438468
29.0 66.06769521305294
30.0 67.66769521305294
30.7 69.00306957104252
31.5 70.01627940083641
32.5 71.20690501035459
33.5 72.30306957104251
34.5 73.33358982687999
35.5 74.30076749445563
36.5 74.9669218511605
37.5 75.63358982687998
38.7 76.30076749445561
40.0 76.90076749445562
41.2 77.60934661896388
42.5 78.05380974359444
43.7 78.23663575667186
45.0 78.7022846139602
46.2 79.6849349246085
47.5 80.88155349220621
48.7 80.62022160616296
50.0 79.87082970284297
51.5 80.14044167945491
53.0 80.7007674944556
54.5 80.93513059177982
56.0 81.1053180676647
58.0 81.34044167945491
60.0 81.70690501035459
61.5 82.10986628672329
63.0 82.47449351030437
65.0 82.87449351030438
67.0 83.07449351030438
69.0 83.43964531976002
71.0 83.97977745790568
73.0 84.28656646311246
75.0 84.3234968506598
77.5 84.2234968506598
80.0 84.02349685065981
82.5 83.92349685065979
85.0 83.88982856673472
87.5 83.85260953202217
90.0 83.81227178315618
92.5 83.90986628672329
95.0 83.97449351030437
97.5 83.97449351030437
100.0 83.87449351030438
103.0 83.84044167945493
106.0 83.83663575667187
109.0 83.67150800786938
112.0 83.56845083805432
115.0 83.43435140868503
118.0 83.2007674944556
122.0 83.0669218511605
125.0 82.89999999999999
128.0 82.63358982687997
132.0 82.43358982687998
136.0 82.2007674944556
140.0 82.06845083805432
145.0 81.86845083805433
150.0 81.70306957104252
155.0 81.53821129888743
160.0 81.47150800786937
165.0 81.40306957104251
170.0 81.27150800786939
175.0 80.9760917544922
180.0 80.74283030471973
185.0 80.41227178315619
190.0 80.11916705502753
195.0 79.79897445130923
200.0 79.6096325668162
206.0 79.4950645803583
212.0 79.53546263134682
218.0 79.65062128010364
224.0 79.90942248426019
230.0 80.2094224842602
236.0 80.43546263134682
240.0 80.75521969308379
250.0 81.05521969308377
258.0 81.24314826109433
265.0 81.46096514237182
272.0 81.61592692226708
280.0 81.63663575667188
290.0 81.10228461396021
300.0 80.24044167945492
307.0 80.18219967332304
315.0 81.08219967332305
325.0 81.38219967332306
335.0 81.61227178315617
345.0 81.01227178315618
355.0 80.02179738688896
365.0 79.85062128010362
375.0 80.05062128010364
387.0 80.14258273663015
400.0 80.06136837622765
412.0 79.97584607527146
425.0 80.02526453928849
437.0 80.45062128010365
450.0 80.55062128010364
462.0 80.42526453928849
475.0 80.34258273663016
487.0 80.5944886893229
500.0 80.8944886893229
515.0 81.0361070797735
530.0 81.42585044351924
545.0 81.72545123408709
560.0 81.30488091921369
580.0 81.02812100489948
600.0 80.97584607527145
615.0 80.68538710465899
630.0 80.2260245235669
650.0 80.25098823501217
670.0 80.65648313414827
690.0 80.74197022557483
710.0 80.11638770313006
730.0 79.01638770313006
750.0 77.1903788404772
775.0 76.75519220018269
800.0 76.55597330084369
825.0 76.40722706905571
850.0 77.20432912249858
875.0 77.29317487506893
900.0 76.5334113978813
925.0 76.8503860982826
950.0 76.55684436552907
975.0 76.20677539847121
1000.0 75.07455057370107
1030.0 72.12756634145693
1060.0 71.82537703077313
1090.0 74.1017460112477
1120.0 75.69780984381856
1150.0 75.42021956404324
1180.0 71.95858760124327
1220.0 70.592378988098
1250.0 70.66194729184086
1280.0 71.9053180676647
1320.0 71.82585044351926
1360.0 72.6434804550554
1400.0 73.65270592623132
1450.0 75.07926068829234
1500.0 75.0760528997687
1550.0 75.04971905997306
1600.0 75.75865853259172
1650.0 75.63999927958744
1700.0 76.20265313251615
1750.0 74.3575988212754
1800.0 76.05625999441092
1850.0 76.04214978057117
1900.0 76.70514619070707
1950.0 77.81806162727638
2000.0 77.042837910353
2060.0 77.46465442149291
2120.0 77.636633349132
2180.0 75.3800555329493
2240.0 76.34193687746931
2300.0 77.07669651788683
2360.0 78.00049345838576
2400.0 78.6254512340871
2500.0 78.34302103107544
2580.0 76.12320753866267
2650.0 75.4234581987282
2720.0 76.90089436543524
2800.0 76.94179998067982
2900.0 75.35896041806929
3000.0 75.04993472601855
3070.0 76.86620989389218
3150.0 76.62081894554056
3250.0 76.51832676913882
3350.0 75.84852015458806
3450.0 75.14413052381576
3550.0 74.75081528908937
3650.0 72.86803106656234
3750.0 72.42843343343131
3870.0 72.81229788959823
4000.0 72.62470872985776
4120.0 71.82136425855367
4250.0 72.57818124506184
4370.0 72.59194513899143
4500.0 71.13183686097929
4620.0 73.08928416383152
4750.0 71.90185551045406
4870.0 69.38063233871182
5000.0 69.5439233571321
5150.0 69.07332303610622
5300.0 68.62698400522295
5450.0 68.16382205324668
5600.0 69.3765534603207
5800.0 69.72545420369875
6000.0 71.15666892806514
6150.0 72.15592043373776
6300.0 72.87320864068305
6500.0 74.7187023295529
6700.0 73.78393613372174
6900.0 74.06054155769111
7100.0 73.6760146409181
7300.0 74.08279426827772
7500.0 74.11208458068782
7750.0 72.7713531666092
8000.0 72.75686034668443
8250.0 73.9335194347152
8500.0 72.87260330753233
8750.0 71.625882603107
9000.0 72.23606193485661
9250.0 72.39368239329897
9500.0 70.53907858744405
9750.0 68.26048856081633
10000.0 68.88586575546319
10300.0 70.94561489053685
10600.0 71.64610209921527
10900.0 70.74897995381441
11200.0 67.0756054929863
11500.0 65.91957145555969
11800.0 70.53465178316219
12200.0 70.18050075225081
12500.0 66.90173293254175
12800.0 64.7190826061659
13200.0 66.06782184727753
13600.0 66.74384654214059
14000.0 68.87033342763418
14500.0 66.05161518075886
15000.0 62.42041696545397
15500.0 66.26544524549509
16000.0 68.2538091962727
16500.0 63.576130054505285
17000.0 64.12499878869693
17500.0 66.80962251076207
18000.0 64.56994067853263
18500.0 66.53743317173961
19000.0 66.93465076516198
19500.0 65.97107339625236
