Freq "Floor Bounce"
22.4 50.10228461396018
23.0 51.66845083805431
23.6 53.30306957104251
24.0 55.70076749445563
25.0 57.666921851160495
25.8 59.3669218511605
26.5 60.80076749445563
27.2 62.8669218511605
28.0 64.6022846139602
29.0 66.10531806766471
30.0 67.66845083805433
30.7 69.27001488257476
31.5 70.83746771551316
32.5 72.43513059177982
33.5 73.06845083805433
34.5 73.57001488257477
35.5 74.2022846139602
36.5 74.74136150423587
37.5 75.45237800738083
38.7 76.3489851487955
40.0 76.83513059177983
41.2 77.36769521305293
42.5 77.86769521305294
43.7 78.13435140868503
45.0 78.4022846139602
46.2 78.7022846139602
47.5 79.0122717831562
48.7 78.81627940083642
50.0 78.67387961222818
51.5 78.23821129888742
53.0 77.94680983520816
54.5 77.67387961222819
56.0 77.20306957104253
58.0 76.74680983520814
60.0 76.40123572626639
61.5 75.84898359150841
63.0 75.05062128010364
65.0 74.11457895753311
67.0 73.33308937677076
69.0 72.86443680503089
71.0 72.54132986207627
73.0 72.46443680503089
75.0 72.9765534603207
77.5 73.47277674488686
80.0 73.90962074754836
82.5 74.44942181474029
85.0 75.02457672584498
87.5 75.44413052381576
90.0 75.70473530118575
92.5 76.08407681298944
95.0 76.54413052381577
97.5 76.97244826645843
100.0 77.42402487026023
103.0 77.74898514879551
106.0 78.15380974359444
109.0 78.4162794008364
112.0 78.54898514879551
115.0 78.71916705502754
118.0 78.92402487026023
122.0 79.08623512455237
125.0 79.28623512455238
128.0 79.3489851487955
132.0 79.48623512455238
136.0 79.57928732607432
140.0 79.61227178315617
145.0 79.6489851487955
150.0 79.61227178315617
155.0 79.54898514879551
160.0 79.61227178315617
165.0 79.61227178315617
170.0 79.54898514879551
175.0 79.41916705502754
180.0 79.32758719283594
185.0 79.16588846059686
190.0 79.06588846059688
195.0 79.00963256681621
200.0 78.90963256681621
206.0 78.92179738688895
212.0 79.02179738688896
218.0 79.22179738688895
224.0 79.58219812790055
230.0 79.94898359150842
236.0 80.28219812790054
240.0 80.42179738688897
250.0 80.42179738688897
258.0 80.2489835915084
265.0 79.72179738688895
272.0 78.52179738688895
280.0 77.00265450340339
290.0 76.56588846059688
300.0 77.08623512455237
307.0 77.66588846059688
315.0 78.62758719283592
325.0 79.32758719283594
335.0 79.37662798253903
345.0 78.30982855556755
355.0 78.36136837622765
365.0 78.90982855556756
375.0 79.22526453928849
387.0 79.292378988098
400.0 79.12526453928848
412.0 78.892378988098
425.0 78.73469773360897
437.0 78.53469773360898
450.0 78.09237898809799
462.0 77.7599996174499
475.0 77.4026335053877
487.0 76.84090753602631
500.0 76.52102614963506
515.0 76.65405093453074
530.0 77.15647994661606
545.0 78.10473530118576
560.0 78.77662798253904
580.0 78.97082970284299
600.0 79.12758719283593
615.0 79.26096514237183
630.0 79.61592538879982
650.0 79.90464502318535
670.0 80.46668552790022
690.0 81.25016923070221
710.0 81.50261155895365
730.0 81.40962251076208
750.0 79.70921140720404
775.0 78.24449659419709
800.0 77.14520516099383
825.0 77.2944886893229
850.0 77.50901938277
875.0 77.6412772730039
900.0 77.26493035341095
925.0 77.59780984381858
950.0 77.68230649956844
975.0 77.1938964251819
1000.0 76.52783751806047
1030.0 75.3296454900598
1060.0 76.68623512455238
1090.0 76.77269145322595
1120.0 75.22626487750088
1150.0 73.52103083811889
1180.0 73.59188145404555
1220.0 74.9669218511605
1250.0 76.2053180676647
1280.0 76.48219671845801
1320.0 77.62992552238315
1360.0 76.99749950966176
1400.0 76.18064061661163
1450.0 75.74314826109435
1500.0 74.38656646311246
1550.0 74.09701892675756
1600.0 73.66474690814799
1650.0 74.0319939682598
1700.0 74.51152699540307
1750.0 73.6566725593005
1800.0 73.63138904094096
1850.0 72.72676627669296
1900.0 72.20865495816336
1950.0 73.7557441032237
2000.0 74.93674241995144
2060.0 76.74852142053365
2120.0 76.00237277382611
2180.0 74.37960410596291
2240.0 73.61627783177748
2300.0 74.63027184731848
2360.0 76.06585727595257
2400.0 77.29215915969807
2500.0 76.51592538879981
2580.0 74.43758968889495
2650.0 75.01274087273613
2720.0 77.31622080590041
2800.0 77.41231367813356
2900.0 77.1056413919618
3000.0 76.13929799453648
3070.0 75.41807803493269
3150.0 74.54902060486688
3250.0 73.23663334913202
3350.0 70.20099739371531
3450.0 69.78951845128309
3550.0 71.16097559154805
3650.0 71.77296429705676
3750.0 72.94412885328626
3870.0 73.87383110211924
4000.0 74.07662798253905
4120.0 73.49825001362085
4250.0 73.12117243709788
4370.0 72.6162794008364
4500.0 72.46194867563766
4620.0 72.6183254418497
4750.0 73.47075278599056
4870.0 73.22397329203639
5000.0 72.54001197607029
5150.0 71.24857938352596
5300.0 70.32196150936319
5450.0 70.09497738597774
5600.0 70.38961993452538
5800.0 70.52509593872357
6000.0 70.25002917385903
6150.0 70.32376450930967
6300.0 72.06893802673274
6500.0 74.25336093747688
6700.0 74.67594633870544
6900.0 74.55934253122258
7100.0 74.69665385450156
7300.0 76.30406071645771
7500.0 76.02537960901013
7750.0 75.351480885382
8000.0 73.80229297394158
8250.0 72.97933366509987
8500.0 70.67873585443174
8750.0 71.29317164073086
9000.0 72.60907886704534
9250.0 73.41908370758436
9500.0 72.03115709843328
9750.0 71.18408461034063
10000.0 71.06962492222968
10300.0 69.35454675010628
10600.0 70.48436202808594
10900.0 71.38928796039235
11200.0 69.18016064179908
11500.0 63.95789726724571
11800.0 69.3552898829104
12200.0 69.57017201624004
12500.0 67.93028412461727
12800.0 66.82161544012955
13200.0 67.34287591953517
13600.0 68.66457931339978
14000.0 70.24176885153898
14500.0 68.38069720018346
15000.0 68.12068825021471
15500.0 64.24708769025231
16000.0 67.8634023348377
16500.0 66.5728854102117
17000.0 64.13356381474058
17500.0 62.30502406609972
18000.0 64.76234633244238
18500.0 66.22327689512386
19000.0 67.35751236441688
19500.0 67.88075598477339
