Freq "Side Wall Bounce"
22.4 49.69697476276828
23.0 51.11749852226002
23.6 52.594740963468084
24.0 55.15581648636798
25.0 57.32092309542945
25.8 58.81840832391775
26.5 60.446317939855135
27.2 62.43752179581317
28.0 64.3676451375008
29.0 65.90046051294917
30.0 67.34396845048443
30.7 68.94350190783175
31.5 70.18249620606593
32.5 71.22201851881731
33.5 72.2023023206405
34.5 73.29606202402393
35.5 74.5711092326461
36.5 75.47669166442599
37.5 75.92513217182199
38.7 75.727006197362
40.0 76.22111243765535
41.2 76.8069588335115
42.5 77.21161282398779
43.7 77.60031256582515
45.0 77.53440735464396
46.2 77.17159642623538
47.5 77.2330994636615
48.7 78.09983077918484
50.0 78.4870462950251
51.5 78.52294550966768
53.0 78.56074062498236
54.5 78.38156054014522
56.0 78.22342518384305
58.0 78.3023023206405
60.0 78.44073299106127
61.5 78.50046051294918
63.0 78.54073299106129
65.0 78.76119474234183
67.0 78.8201850554159
69.0 79.00046051294918
71.0 79.22111243765535
73.0 79.54256842471028
75.0 79.66764513750081
77.5 79.63029550491235
80.0 79.63357366274145
82.5 79.61334750947469
85.0 79.67195305898625
87.5 79.7495677512841
90.0 79.72342518384305
92.5 79.66074062498235
95.0 79.86027588070904
97.5 79.98018335884989
100.0 80.10046051294917
103.0 80.26027588070906
106.0 80.40046051294915
109.0 80.4206434330808
112.0 80.42294550966768
115.0 80.38526041028544
118.0 80.50598456990744
122.0 80.62757995317386
125.0 80.46670626616766
128.0 80.33029550491237
132.0 80.33029550491237
136.0 80.29032346940191
140.0 80.1722137210486
145.0 79.9944829039731
150.0 79.90014932974657
155.0 79.70229885570997
160.0 79.70229885570997
165.0 79.66516840337088
170.0 79.54695323502061
175.0 79.38852204138269
180.0 79.15342828338572
185.0 78.8430087771193
190.0 78.5651394726678
195.0 78.34610508544237
200.0 78.07638445891928
206.0 77.91707239352735
212.0 77.94049770711906
218.0 78.10325436387838
224.0 78.51563814594206
230.0 78.87460295806011
236.0 79.1746029580601
240.0 79.31873237182502
250.0 79.41109938053329
258.0 79.31014178037859
265.0 79.09441306229309
272.0 78.54488034310518
280.0 77.69162578699503
290.0 77.19503477972529
300.0 77.49466818346252
307.0 78.24950620628069
315.0 79.24395987319404
325.0 79.79199937211294
335.0 79.5220138557881
345.0 78.98490641670749
355.0 78.61194105500617
365.0 78.74836443507907
375.0 78.97790048898341
387.0 78.94366430176784
400.0 78.55997974108054
412.0 78.27419843984134
425.0 78.40325436387836
437.0 78.78451194161845
450.0 78.29917296838367
462.0 77.74780221973954
475.0 77.64326220931044
487.0 77.50069781903423
500.0 77.1604494651272
515.0 76.82056832644217
530.0 76.72229239529065
545.0 77.66141301675111
560.0 77.65190161374147
580.0 78.01833103080601
600.0 78.1767868358846
615.0 77.57903899569345
630.0 76.13323736344095
650.0 75.1658087034834
670.0 74.89837623334564
690.0 74.82624324335292
710.0 75.19152836326914
730.0 75.52514123244879
750.0 74.86155877467138
775.0 73.80445438459326
800.0 72.62340302897758
825.0 72.05362709436885
850.0 73.24496046237407
875.0 73.53228281878295
900.0 74.0613450848601
925.0 74.97668016274011
950.0 75.35012182171837
975.0 76.50558577108596
1000.0 76.05032829462661
1030.0 73.8054315402491
1060.0 71.5005787500043
1090.0 73.64849501938625
1120.0 73.47768919333393
1150.0 71.07901909503495
1180.0 67.50515681750771
1220.0 64.42532589389184
1250.0 69.86203066192377
1280.0 72.41604655849645
1320.0 72.93122391271797
1360.0 71.29728513711032
1400.0 70.2362552877162
1450.0 70.05595170328218
1500.0 71.17471722597956
1550.0 70.75677716537861
1600.0 70.9610312902333
1650.0 71.61588663206932
1700.0 70.91957520136643
1750.0 70.83715603002575
1800.0 70.81490222973328
1850.0 69.85837754782743
1900.0 69.32182723355301
1950.0 68.67119210626956
2000.0 69.6316213746221
2060.0 71.95336822521443
2120.0 71.55045081321295
2180.0 73.57947724486358
2240.0 72.10481544806906
2300.0 72.18009244245987
2360.0 72.27435054021353
2400.0 71.81674854564021
2500.0 70.03600823034648
2580.0 68.72338701010945
2650.0 69.52177617767339
2720.0 71.10582071803809
2800.0 72.12005265211666
2900.0 71.58524069755873
3000.0 73.03506780575283
3070.0 73.03277228742192
3150.0 74.32766741663853
3250.0 73.75070200701853
3350.0 72.67325125051207
3450.0 71.08998304646728
3550.0 71.54670237230934
3650.0 71.14807826586568
3750.0 71.440171131749
3870.0 71.65843876385227
4000.0 72.57126974396873
4120.0 73.19112805755577
4250.0 73.07878716532193
4370.0 73.05833012254952
4500.0 73.42054438822284
4620.0 73.12919155886554
4750.0 73.00096286636918
4870.0 72.38000603567853
5000.0 71.4418694750623
5150.0 71.25626958579493
5300.0 71.46022160419422
5450.0 71.92435508079879
5600.0 71.91032884213725
5800.0 72.29026895251809
6000.0 72.11784260786443
6150.0 73.1622126347863
6300.0 74.31625802768049
6500.0 75.35922562285339
6700.0 74.93071981134935
6900.0 75.51837424322292
7100.0 74.48912395013149
7300.0 73.93956542940059
7500.0 72.20660632549279
7750.0 70.60222667521465
8000.0 69.76349899946202
8250.0 70.81953490870869
8500.0 71.31731796160926
8750.0 70.18975123234937
9000.0 70.61789612295114
9250.0 72.21682408727607
9500.0 71.43150356886599
9750.0 69.26223828455188
10000.0 67.46253656694552
10300.0 67.93101449180618
10600.0 67.72544076760929
10900.0 67.29178260219363
11200.0 68.0094812813489
11500.0 66.90928031329322
11800.0 66.28995063947433
12200.0 65.83832561660323
12500.0 64.30794291034564
12800.0 64.99443997642646
13200.0 64.68427355961045
13600.0 62.25529599618899
14000.0 60.12961863608909
14500.0 60.540360699037365
15000.0 59.174871198547905
15500.0 61.292839973256264
16000.0 61.94762834587996
16500.0 58.440276461470646
17000.0 56.38969512659479
17500.0 57.91535524291244
18000.0 63.72539612170331
18500.0 66.08048708657812
19000.0 62.89936572126879
19500.0 59.916602549599446
