Freq "Side Wall Bounce"
22.4 50.23621526909737
23.0 51.656739028589115
23.6 53.13398146979718
24.0 55.695056992697076
25.0 57.86016360175854
25.8 59.357648830246845
26.5 60.98555844618423
27.2 62.97676230214226
28.0 64.9068856438299
29.0 66.43970101927826
30.0 67.88320895681352
30.7 69.48274241416084
31.5 70.72173671239503
32.5 71.7612590251464
33.5 72.74154282696959
34.5 73.83530253035302
35.5 75.11034973897519
36.5 76.01593217075508
37.5 76.46437267815108
38.7 76.2662467036911
40.0 76.76035294398444
41.2 77.3461993398406
42.5 77.75085333031689
43.7 78.13955307215424
45.0 78.07364786097305
46.2 77.71083693256448
47.5 77.7723399699906
48.7 78.63907128551394
50.0 79.02628680135419
51.5 79.06218601599677
53.0 79.09998113131145
54.5 78.92080104647431
56.0 78.76266569017214
58.0 78.8415428269696
60.0 78.97997349739036
61.5 79.03970101927827
63.0 79.07997349739038
65.0 79.30043524867092
67.0 79.359425561745
69.0 79.53970101927827
71.0 79.76035294398444
73.0 80.08180893103938
75.0 80.2068856438299
77.5 80.16953601124145
80.0 80.17281416907055
82.5 80.15258801580379
85.0 80.21119356531534
87.5 80.2888082576132
90.0 80.26266569017214
92.5 80.19998113131145
95.0 80.39951638703813
97.5 80.51942386517898
100.0 80.63970101927826
103.0 80.79951638703815
106.0 80.93970101927825
109.0 80.95988393940989
112.0 80.96218601599678
115.0 80.92450091661453
118.0 81.04522507623653
122.0 81.16682045950296
125.0 81.00594677249676
128.0 80.86953601124146
132.0 80.86953601124146
136.0 80.829563975731
140.0 80.7114542273777
145.0 80.53372341030219
150.0 80.43938983607566
155.0 80.24153936203906
160.0 80.24153936203906
165.0 80.20440890969998
170.0 80.0861937413497
175.0 79.92776254771178
180.0 79.69266878971482
185.0 79.38224928344839
190.0 79.10437997899689
195.0 78.88534559177147
200.0 78.61562496524837
206.0 78.45631289985644
212.0 78.47973821344816
218.0 78.64249487020747
224.0 79.05487865227116
230.0 79.4138434643892
236.0 79.7138434643892
240.0 79.85797287815411
250.0 79.95033988686238
258.0 79.84938228670768
265.0 79.63365356862218
272.0 79.08412084943427
280.0 78.23086629332413
290.0 77.73427528605438
300.0 78.03390868979162
307.0 78.78874671260978
315.0 79.78320037952314
325.0 80.33123987844203
335.0 80.0612543621172
345.0 79.52414692303658
355.0 79.15118156133526
365.0 79.28760494140816
375.0 79.5171409953125
387.0 79.48290480809693
400.0 79.09922024740963
412.0 78.81343894617044
425.0 78.94249487020745
437.0 79.32375244794754
450.0 78.83841347471277
462.0 78.28704272606863
475.0 78.18250271563953
487.0 78.03993832536332
500.0 77.6996899714563
515.0 77.35980883277126
530.0 77.26153290161974
545.0 78.2006535230802
560.0 78.19114212007057
580.0 78.5575715371351
600.0 78.71602734221369
615.0 78.11827950202255
630.0 76.67247786977005
650.0 75.7050492098125
670.0 75.43761673967474
690.0 75.36548374968201
710.0 75.73076886959824
730.0 76.06438173877788
750.0 75.40079928100047
775.0 74.34369489092235
800.0 73.16264353530667
825.0 72.59286760069794
850.0 73.78420096870316
875.0 74.07152332511204
900.0 74.60058559118919
925.0 75.5159206690692
950.0 75.88936232804747
975.0 77.04482627741505
1000.0 76.5895688009557
1030.0 74.3446720465782
1060.0 72.03981925633339
1090.0 74.18773552571534
1120.0 74.01692969966302
1150.0 71.61825960136404
1180.0 68.0443973238368
1220.0 64.96456640022093
1250.0 70.40127116825286
1280.0 72.95528706482554
1320.0 73.47046441904706
1360.0 71.83652564343942
1400.0 70.7754957940453
1450.0 70.59519220961127
1500.0 71.71395773230866
1550.0 71.2960176717077
1600.0 71.50027179656239
1650.0 72.15512713839841
1700.0 71.45881570769552
1750.0 71.37639653635485
1800.0 71.35414273606237
1850.0 70.39761805415652
1900.0 69.8610677398821
1950.0 69.21043261259865
2000.0 70.1708618809512
2060.0 72.49260873154353
2120.0 72.08969131954204
2180.0 74.11871775119268
2240.0 72.64405595439815
2300.0 72.71933294878896
2360.0 72.81359104654263
2400.0 72.3559890519693
2500.0 70.57524873667558
2580.0 69.26262751643854
2650.0 70.06101668400248
2720.0 71.64506122436718
2800.0 72.65929315844575
2900.0 72.12448120388783
3000.0 73.57430831208193
3070.0 73.57201279375101
3150.0 74.86690792296763
3250.0 74.28994251334763
3350.0 73.21249175684116
3450.0 71.62922355279638
3550.0 72.08594287863843
3650.0 71.68731877219477
3750.0 71.97941163807809
3870.0 72.19767927018137
4000.0 73.11051025029782
4120.0 73.73036856388487
4250.0 73.61802767165102
4370.0 73.59757062887861
4500.0 73.95978489455193
4620.0 73.66843206519464
4750.0 73.54020337269827
4870.0 72.91924654200763
5000.0 71.9811099813914
5150.0 71.79551009212402
5300.0 71.99946211052331
5450.0 72.46359558712788
5600.0 72.44956934846634
5800.0 72.82950945884718
6000.0 72.65708311419353
6150.0 73.7014531411154
6300.0 74.85549853400958
6500.0 75.89846612918248
6700.0 75.46996031767844
6900.0 76.05761474955202
7100.0 75.02836445646058
7300.0 74.47880593572968
7500.0 72.74584683182188
7750.0 71.14146718154375
8000.0 70.30273950579111
8250.0 71.35877541503778
8500.0 71.85655846793836
8750.0 70.72899173867846
9000.0 71.15713662928023
9250.0 72.75606459360516
9500.0 71.97074407519509
9750.0 69.80147879088098
10000.0 68.00177707327461
10300.0 68.47025499813527
10600.0 68.26468127393838
10900.0 67.83102310852273
11200.0 68.54872178767799
11500.0 67.44852081962232
11800.0 66.82919114580342
12200.0 66.37756612293232
12500.0 64.84718341667474
12800.0 65.53368048275556
13200.0 65.22351406593954
13600.0 62.794536502518085
14000.0 60.668859142418185
14500.0 61.07960120536646
15000.0 59.714111704877
15500.0 61.83208047958536
16000.0 62.48686885220906
16500.0 58.97951696779974
17000.0 56.92893563292388
17500.0 58.454595749241534
18000.0 64.2646366280324
18500.0 66.61972759290721
19000.0 63.43860622759789
19500.0 60.45584305592854
