Freq,Floor Bounce,Ceiling Bounce,Front Wall Bounce,Side Wall Bounce,Rear Wall Bounce,Total Early Reflection
22.4,71.10306957104252,73.03513059177983,71.8,71.58156054014519,71.14924164731754,71.79347478005845
23.0,71.77150800786937,73.70306957104252,72.50000000000001,72.28156054014521,71.84924164731753,72.47958460294215
23.6,72.60306957104252,74.56845083805432,73.32880715674527,73.10092097707211,72.6804801162793,73.3172045204361
24.0,74.00306957104253,75.96845083805432,74.7716627539189,74.52157071745496,74.0909204854152,74.73156151209601
25.0,76.43821129888744,78.36845083805433,77.17166275391891,76.96119474234183,76.51728265276262,77.14963937027542
25.8,78.83821129888743,80.76845083805433,79.59999999999998,79.36119474234184,78.92787587186199,79.55718150431267
26.5,80.37150800786937,82.33513059177983,81.12880715674528,80.88156054014522,80.45951821044908,81.09567254423236
27.2,81.17150800786939,83.06845083805432,81.9288071567453,81.68156054014521,81.23820305645877,81.87434194110595
28.0,81.63821129888744,83.56845083805433,82.39999999999999,82.16119474234183,81.72787587186197,82.35718150431268
29.0,82.13821129888743,84.06845083805432,82.9,82.66119474234183,82.23820305645876,82.8589700844436
30.0,82.97150800786939,84.90076749445562,83.72880715674529,83.48156054014522,83.04850574205994,83.68465210352599
30.7,83.93821129888744,85.86845083805433,84.67166275391891,84.44119983124484,84.00641587089798,84.64393874355348
31.5,85.00306957104252,86.96845083805432,85.7716627539189,85.52157071745498,85.09601273061459,85.73244070844717
32.5,86.63821129888744,88.56845083805433,87.39999999999999,87.16119474234183,86.7172826527626,87.35535049994186
33.5,88.97150800786939,90.93513059177982,89.7716627539189,89.50230232064051,89.08534140989615,89.7127508896561
34.5,91.17150800786939,93.06845083805432,91.94313939533784,91.68156054014521,91.25878404462753,91.88080832926586
35.5,92.40306957104252,94.36845083805433,93.17166275391891,92.94119983124484,92.4960127306146,93.1361873157104
36.5,93.43821129888742,95.36845083805433,94.24313939533782,93.96119474234183,93.54850574205993,94.16949870244268
37.5,95.17150800786938,97.10076749445562,95.97166275391889,95.7023023206405,95.28023662947248,95.90278561220468
38.7,97.33821129888742,99.26845083805433,98.12880715674528,97.84119983124485,97.40641587089799,98.05550141503157
40.0,99.13821129888744,101.06845083805433,99.9288071567453,99.62157071745497,99.20641587089798,99.85177143996016
41.2,100.43821129888744,102.36845083805433,101.2,100.92157071745497,100.4960127306146,101.14412840707918
42.5,101.13821129888743,103.06845083805432,101.97166275391892,101.68156054014521,101.24826603949437,101.8791592446844
43.7,101.63821129888744,103.56845083805433,102.44313939533782,102.16119474234183,101.71679415091745,102.3640179759998
45.0,102.40690501035459,104.30076749445563,103.2,102.9023023206405,102.46391408828704,103.11173677470507
46.2,103.63821129888743,105.53435140868503,104.4288071567453,104.1023023206405,103.67439430983313,104.33359754087142
47.5,104.83821129888742,106.73435140868501,105.64313939533783,105.3023023206405,104.87439430983315,105.53653137188918
48.7,105.83821129888743,107.73435140868501,106.64313939533783,106.3023023206405,105.87439430983314,106.53653137188918
50.0,106.50690501035459,108.40076749445562,107.3716627539189,107.00230232064051,106.58484930179662,107.23006175330771
51.5,106.80690501035458,108.70076749445562,107.64313939533781,107.30230232064049,106.84263186310731,107.51692493021355
53.0,106.9069050103546,108.80076749445563,107.74313939533782,107.4023023206405,106.94263186310734,107.61692493021357
54.5,106.83821129888743,108.73435140868503,107.67166275391891,107.30230232064049,106.85316350574068,107.53875966223053
56.0,106.67387961222818,108.56692185116049,107.51508314243883,107.12342518384304,106.7160641076579,107.37712689368416
58.0,106.50690501035459,108.40076749445562,107.3716627539189,107.00230232064051,106.54263186310732,107.22281315807236
60.0,106.9069050103546,108.7669218511605,107.7716627539189,107.32342518384303,106.9054420030281,107.59267342164927
61.5,108.20690501035459,110.10076749445561,109.0716627539189,108.64396845048445,108.21063540689217,108.90631533101734
63.0,109.5069050103546,111.40076749445562,110.37166275391891,109.94396845048443,109.51063540689218,110.20631533101735
65.0,110.47387961222819,112.3669218511605,111.37166275391891,110.9046043972274,110.42124483242414,111.16922467604567
67.0,111.20690501035459,113.0669218511605,112.11508314243885,111.64396845048444,111.15817503850104,111.8976101987655
69.0,111.70690501035459,113.56692185116049,112.61508314243885,112.10460439722739,111.62124483242413,112.38399294040634
71.0,111.94283030471973,113.8,112.87166275391891,112.32523667270712,111.85817503850105,112.62084330896245
73.0,112.04283030471973,113.9,112.9437907541973,112.38526041028544,111.91087719539239,112.6995765376873
75.0,112.04283030471973,113.93358982687998,113.00065786069426,112.40598456990742,111.92678074647122,112.72701332958174
77.5,112.24283030471975,114.1,113.21508314243884,112.56670626616769,112.0476555565489,112.90087155967116
80.0,112.34283030471974,114.2,113.31508314243885,112.62757995317386,112.13735085147643,112.9919578937956
82.5,112.34283030471974,114.2,113.31508314243885,112.60920611180408,112.07427239741644,112.97827720347716
85.0,112.27609175449221,114.1669218511605,113.24379075419729,112.58943152887123,112.0058051146711,112.9278716239884
87.5,111.84283030471974,113.66692185116051,112.81508314243884,112.10920611180407,111.52702163779169,112.46188206516841
90.0,111.2122717831562,113.0669218511605,112.21508314243884,111.43128689490086,110.86427512557024,111.83221340307053
92.5,110.44283030471973,112.2669218511605,111.4590700361194,110.65226959352627,110.0434802376922,111.04767581354962
95.0,109.5122717831562,111.3669218511605,110.51508314243884,109.6944829039731,109.05400982570957,110.10803787693831
97.5,108.81227178315619,110.60076749445561,109.78748929892042,108.93441685017132,108.26451394618827,109.35943409076138
100.0,108.7489851487955,110.5669218511605,109.78748929892042,108.85688018620131,108.17073568396512,109.31075375210175
103.0,108.94898514879551,110.73435140868501,109.98748929892041,109.03820413572707,108.29164364671065,109.48660667791465
106.0,108.81227178315619,110.60076749445561,109.88748929892041,108.8596402926413,108.10254740766989,109.3435769622481
109.0,108.28219967332303,110.10076749445561,109.38748929892043,108.32070188121243,107.49795363438047,108.81571744753793
112.0,108.18219967332304,109.96845083805432,109.2874892989204,108.18505351870532,107.30909487219047,108.6876474690492
115.0,108.48219967332305,110.26845083805433,109.5874892989204,108.46516840337088,107.54112501246495,108.97427291084607
118.0,108.78219967332303,110.56845083805432,109.88748929892041,108.7298846540872,107.76854009212371,109.25764043427357
122.0,109.01916705502755,110.80306957104251,110.10229476693694,108.91313953999232,107.86854009212371,109.46013204955683
125.0,109.08219967332305,110.83663575667187,110.18748929892041,108.93677387477598,107.83816032809614,109.50052833838122
128.0,108.95260953202218,110.73663575667186,110.06035311823196,108.802452276636,107.62829837437184,109.36791092248038
132.0,108.75260953202218,110.50306957104253,109.86035311823196,108.502452276636,107.30827599605546,109.12531861689591
136.0,108.31916705502753,110.03663575667186,109.40229476693692,108.00245227663602,106.72572124189558,108.6460551587215
140.0,107.28982856673471,109.00306957104252,108.43175513861907,106.98636069648988,105.61774826829024,107.62191346692028
145.0,106.61916705502752,108.37150800786938,107.73175513861908,106.33276641677855,104.81774826829025,106.94188072766156
150.0,106.51916705502752,108.27150800786939,107.67525122642456,106.21715136362974,104.67840637073886,106.84485415577386
155.0,106.61916705502752,108.34044167945491,107.80229476693692,106.29956388711857,104.66863548793403,106.92658367454229
160.0,106.41916705502754,108.14044167945491,107.60229476693694,106.06429849938317,104.34007666032636,106.70538841477564
165.0,105.71916705502754,107.4404416794549,106.90229476693692,105.38418758905331,103.54612931169488,105.99804010330088
170.0,104.58982856673472,106.34044167945491,105.76035311823195,104.20909764670199,102.2904349813246,104.8517109350253
175.0,103.48982856673473,105.24044167945492,104.66035311823195,103.109097646702,101.10877570175613,103.7427308529773
180.0,102.58982856673472,104.27150800786937,103.76035311823196,102.19410496767789,100.07136184928966,102.80592729677757
185.0,101.4026545034034,103.38915630129642,103.66035311823197,102.41313953999233,99.66513598142043,102.33266187311501
190.0,100.192378988098,102.30261155895364,102.71704993328868,101.6568801862013,100.3181978676683,101.55608295899256
195.0,100.36726558859611,102.40261155895364,102.93175513861907,101.8568801862013,100.47225980290354,101.72581577770863
200.0,100.36726558859611,102.40261155895364,102.99009840257406,101.89589851456611,100.45405602289486,101.74662984092932
206.0,100.2672655885961,102.27697211958265,102.93175513861907,101.8185614467337,100.31910146045767,101.65136042746867
212.0,100.14258273663016,102.14293979360191,102.83175513861906,101.7568801862013,100.20896508793928,101.54645793458262
218.0,99.90982855556754,101.91753803239934,102.66035311823195,101.55688018620128,99.97816422196382,101.33912034594711
224.0,99.82875610128313,101.81753803239936,102.63175513861906,101.50097969123388,99.9005432121881,101.27383010777126
230.0,100.02875610128315,101.95866027600833,102.86035311823197,101.70097969123388,100.08061939297107,101.46551323604696
236.0,100.30497668676809,102.20034112939828,103.23175513861906,102.08249272529741,100.40550860234212,101.78991284798602
240.0,100.1491520399883,102.07584607527146,103.16035311823195,101.96516840337087,100.30550860234213,101.68095235575251
250.0,99.78161208533422,101.67584607527147,102.88748929892041,101.66516840337088,100.00596568667358,101.35753646862256
258.0,99.77100612011482,101.5944886893229,102.93175513861907,101.68852204138268,100.05604909068431,101.3637759762675
265.0,99.67100612011482,101.4377673428554,102.93175513861907,101.68852204138268,100.0117657173589,101.31076676660544
272.0,99.5264329774251,101.2145789575331,102.86035311823197,101.5885220413827,99.936709782107,101.19167708695409
280.0,99.5264329774251,101.20330383828929,103.03175513861906,101.73385448621767,100.0688398653903,101.29207497385607
290.0,99.45098823501219,101.05906263657509,103.08748929892042,101.75342828338573,100.10443886637881,101.28078221809389
300.0,99.27695775614916,100.7509882350122,102.98748929892042,101.63558031227466,99.98584047088646,101.12538314865175
307.0,99.22457993687898,100.57695775614917,103.08748929892042,101.7233878561402,100.06499539536391,101.15051128454242
315.0,99.18444762363009,100.3844476236301,103.18748929892041,101.78937136577422,100.13860349801195,101.17067446009652
325.0,98.94577223479652,100.07625435142637,103.18748929892041,101.77323115455687,100.09598783399836,101.08028915810075
335.0,98.64449659419708,99.64123053036839,103.08748929892042,101.63997526588545,99.91180158505081,100.88290210539711
345.0,98.55872457742296,99.41145938100321,103.18748929892041,101.70722847671344,99.94984406196039,100.89497060666316
355.0,98.39265755490995,99.07168531355224,103.20229476693693,101.75987565237125,99.93151748653062,100.84405237887083
365.0,98.0114593810032,98.43908938702468,103.08748929892042,101.56798663863641,99.62844932304168,100.58380775098712
375.0,97.44850588118669,97.81335739152581,102.80229476693692,101.31039079867912,99.20988532524726,100.21391919209911
387.0,97.02638463906273,97.19417633457007,102.60229476693694,101.13936265226486,98.80312546582917,99.9194434099436
400.0,96.66718462137126,96.74242955892727,102.55907003611941,101.04255550372751,98.57335385079718,99.75937032891319
412.0,96.4524231134238,96.42750889663554,102.60229476693694,101.10007380175792,98.35307607538557,99.70759283409002
425.0,96.22997587926382,96.12844657579127,102.67525122642456,101.23783209822808,98.24560386573931,99.71162456389813
437.0,95.82536925857936,95.69330895054595,102.57525122642457,101.16906380724119,97.96653820671773,99.54025782943536
450.0,95.37669878874966,95.16160454713643,102.51998423401444,101.07640400410985,97.75756542373772,99.38274393790589
462.0,95.01924909504645,94.7011428197287,102.51998423401444,101.10077902129676,97.69303869371699,99.3203654826195
475.0,94.42755046916483,93.98138428216933,102.41998423401444,100.99199937211291,97.53463359718754,99.13449080187834
487.0,93.60636092847713,92.95394872708346,102.16528715999551,100.62730669830091,97.21532166776022,98.75671947260527
500.0,92.94299488212381,92.01819083856847,102.0936659009678,100.45876922673914,97.11383399251199,98.57506149267934
515.0,92.3548569955747,91.16546400093861,102.19366590096782,100.38270048615804,97.14070727738488,98.53666963872345
530.0,91.89047186961923,90.66007439530522,102.33924275721992,100.36914649623657,97.16754069225878,98.56635991173253
545.0,91.50590057138758,90.4058472344865,102.39366590096782,100.23390114015962,96.9639566080779,98.4989692004567
560.0,91.06374853773092,90.23715053570857,102.30489499373621,99.9654979110565,96.48121934039598,98.28707392765637
580.0,90.83457597182114,90.10851907584342,102.26035311823196,99.93586812521427,96.0696853542628,98.19072102660424
600.0,90.31450848661336,89.4484693389435,102.24379075419729,100.13114008626472,95.76578814767542,98.16884331002558
615.0,89.76484736229176,88.53743317173961,102.3716627539189,100.53269311279264,95.79224966868004,98.32846488670039
630.0,88.94141910951639,87.37377233600776,102.39999999999999,100.83711380103985,95.86940781010729,98.41320624991343
650.0,87.62813068920923,86.24138991764816,102.2,100.91641715643367,95.80889625980647,98.29366587677352
670.0,86.8276211113546,86.66588846059686,102.0431393953378,101.04017932615194,95.91003052526463,98.26834086559454
690.0,86.79586994447202,88.44721006692119,102.01508314243884,101.08636194853034,95.9750256359321,98.30998872012854
710.0,87.42236216959829,90.17054069522301,101.7739725389237,100.85188313252192,95.80167592592566,98.1435547391214
730.0,88.41241822240339,91.37495683304867,101.54675150375354,100.54383541255798,95.45212147959727,97.95014125103336
750.0,89.22716149641562,92.05929434216073,101.33537086618986,100.1561169652426,95.03674537533188,97.72303570516048
775.0,89.45930637835336,91.90611755264669,101.13924275721992,99.75622242860005,94.55275440399687,97.44141765696094
800.0,88.83106624342587,90.80080919773668,101.16394512452715,99.6069276303504,94.2493534385608,97.2973302252666
825.0,87.61586528159303,89.06573825599007,101.29044363353323,99.79142697007133,94.27726658296926,97.33238091728907
850.0,86.09678021811517,87.11403481914587,101.35840584504062,100.05782117869408,94.45292750638326,97.4061366754078
875.0,86.07759512398695,87.20500021603698,101.21442746339747,100.20956352131257,94.59597822043047,97.40881336324857
900.0,87.50222301168452,88.95744034337982,101.15775667464531,100.22731208355759,94.62237258675908,97.457062002986
925.0,88.78681963215332,90.04894994834142,100.98916941195313,100.01257528060651,94.40602604166642,97.34200554920464
950.0,89.38098974763786,90.34763545068822,100.79675502454563,99.59464251919606,93.92056516528426,97.08240447212953
975.0,89.44507194826727,89.9626293827372,100.62321085894986,99.07947834679129,93.4146703956633,96.75772785248638
1000.0,89.21684696547605,89.31713264157791,100.6152383542856,98.69929819780751,93.05974459191388,96.56025270166978
1030.0,88.62242055282734,88.41392162185706,100.58468356256604,98.30347566395903,92.70567092525513,96.3334957897149
1060.0,88.12004738697794,87.60215219946005,100.66158272516148,98.02569080174389,92.51508485780947,96.23277117547566
1090.0,87.55134433803902,87.2841552326367,100.83629660388978,97.891629940582,92.41636549084711,96.25849135286731
1120.0,86.73122671047399,87.3520086401353,100.98848444715021,97.77481699899982,92.29281128840739,96.28526271196783
1150.0,85.50557104231761,87.48687074964268,100.91252202323192,97.66904144932207,91.95329815142964,96.16342644267316
1180.0,84.60323228676334,87.44028712570504,100.66758191272571,97.34445512116488,91.39535728386114,95.86797937395306
1220.0,85.18089622103847,87.49959529697506,100.15689526970546,96.77561548960377,90.67776745389683,95.36261329385785
1250.0,86.48789128195256,87.60833704711781,99.60099501714625,95.82921522651606,89.89020902122135,94.75577522053437
1280.0,87.45772445018899,87.54464246181273,99.30725107660125,95.05701761219777,89.2066198712454,94.37362040643103
1320.0,87.61263623077085,86.89965439277178,99.10725107660126,94.35864646047624,88.27272822106649,94.01701078191894
1360.0,86.88098770670572,85.3886810705924,99.06060199394092,94.13911969743152,87.40108289847785,93.81357209474453
1400.0,85.73540970379534,83.92377271192392,98.9336457502912,94.2931653653656,87.10256793081989,93.67158468887875
1450.0,85.31013348707278,84.4059635622694,98.60819596697112,94.23167198217682,87.1522881369351,93.44080667277811
1500.0,85.56283617001536,85.59116976149106,97.99121584965016,93.61864675674697,86.87977887709694,92.92582903157542
1550.0,85.5790493475812,86.65180809289554,97.17717379949633,92.79376341184097,85.96126574168892,92.22288022740774
1600.0,85.09447898985108,87.0031840848056,96.34933725945942,92.15754613136447,84.5835825794096,91.50451100458538
1650.0,84.04092992655713,86.68451696627419,95.3992539465073,91.62566575891194,83.33350498656047,90.68621415100105
1700.0,82.50083672394709,86.20328448017462,94.5795312261462,91.11688560433767,82.86024787636872,89.9581007486474
1750.0,81.50190205851477,85.76791347680023,93.66009724486703,90.40947661407557,82.27636134017287,89.14794799634667
1800.0,81.7096325668162,85.24027530866606,92.66028030531767,89.5360124262344,81.25399547775743,88.27335270938498
1850.0,82.15522280896298,84.55231862744103,91.65683396705516,88.35139723765282,80.0191470974346,87.32162697879777
1900.0,82.49501268509854,83.77675702760139,90.73443823028444,86.83361487152212,78.53232645684947,86.34306042756947
1950.0,83.19410844710065,83.11273166634729,89.88525409244042,85.17084885798018,76.76342640226738,85.47460104759791
2000.0,83.96987257792559,82.77443951717648,89.26681903667797,83.76956123114384,75.24526041684506,84.92818448462806
2060.0,84.16067301425102,82.1166486698529,88.86833774881536,82.7592462185478,74.62729246333187,84.50820592978042
2120.0,83.96782184727753,80.99555842836949,88.4129307801959,81.81888694680035,74.52105965846151,83.97706739141982
2180.0,83.9651508243219,80.50926816200989,88.42398406153842,81.56557097797986,74.56340950073654,83.90682864590943
2240.0,83.7992811800564,80.56222359933608,89.08045533919456,82.11591861663065,74.45962248249835,84.32502657549907
2300.0,83.07660008738411,80.7434804550554,89.51666285681938,82.45245292883214,73.94233522243736,84.52431979950447
2360.0,81.67082970284298,81.62212361930965,89.11897457933324,82.32995228905828,73.73442441347247,84.16048052824785
2400.0,79.78779399843016,83.09115875582715,88.86021533077283,82.75529109829962,74.34645066593897,84.09580705558743
2500.0,78.48519555329945,84.35448036302631,89.59473992630534,84.22020341928801,75.3328550780633,84.92035505628066
2580.0,78.62970949498873,84.8149838201147,90.90424615181253,85.88638033742811,76.18800847819806,86.09989249381658
2650.0,79.24140313167918,83.49075278653531,92.08497259413643,86.83792503899411,76.40018068516554,86.902064595364
2720.0,80.7540641287097,80.77380242936542,92.87612024989527,86.96880751866028,75.93266939475733,87.34706461293617
2800.0,81.85516012726869,79.12602452356693,93.36627638525717,86.93305870354057,75.66692512573199,87.68829591101156
2900.0,81.6995630494107,79.91628511153326,92.98262167839795,86.42468329637607,75.73861742476176,87.33962464401766
3000.0,81.00901938276999,82.13452415393478,92.6374753088503,86.19692358663124,76.54865073731054,87.13800643281
3070.0,81.19887816636965,83.91430637862281,93.60611315898775,87.00114501545238,77.82549879415068,88.1078306497085
