Freq "Ceiling Bounce"
22.4 77.9515862879824
23.0 78.61952526724508
23.6 79.48490653425688
24.0 80.88490653425688
25.0 83.28490653425689
25.8 85.6849065342569
26.5 87.25158628798239
27.2 87.98490653425688
28.0 88.4849065342569
29.0 88.98490653425688
30.0 89.81722319065818
30.7 90.78490653425689
31.5 91.88490653425688
32.5 93.4849065342569
33.5 95.85158628798239
34.5 97.98490653425688
35.5 99.28490653425689
36.5 100.28490653425689
37.5 102.01722319065819
38.7 104.1849065342569
40.0 105.9849065342569
41.2 107.28490653425689
42.5 107.98490653425688
43.7 108.4849065342569
45.0 109.21722319065819
46.2 110.45080710488759
47.5 111.65080710488758
48.7 112.65080710488758
50.0 113.31722319065818
51.5 113.61722319065818
53.0 113.71722319065819
54.5 113.65080710488759
56.0 113.48337754736305
58.0 113.31722319065818
60.0 113.68337754736307
61.5 115.01722319065817
63.0 116.31722319065818
65.0 117.28337754736306
67.0 117.98337754736306
69.0 118.48337754736305
71.0 118.71645569620256
73.0 118.81645569620257
75.0 118.85004552308254
77.5 119.01645569620256
80.0 119.11645569620256
82.5 119.11645569620256
85.0 119.08337754736306
87.5 118.58337754736307
90.0 117.98337754736306
92.5 117.18337754736307
95.0 116.28337754736306
97.5 115.51722319065817
100.0 115.48337754736306
103.0 115.65080710488758
106.0 115.51722319065817
109.0 115.01722319065817
112.0 114.88490653425688
115.0 115.1849065342569
118.0 115.48490653425688
122.0 115.71952526724507
125.0 115.75309145287443
128.0 115.65309145287442
132.0 115.41952526724509
136.0 114.95309145287442
140.0 113.91952526724508
145.0 113.28796370407194
150.0 113.18796370407195
155.0 113.25689737565747
160.0 113.05689737565747
165.0 112.35689737565747
170.0 111.25689737565747
175.0 110.15689737565748
180.0 109.18796370407193
185.0 108.30561199749899
190.0 107.2190672551562
195.0 107.3190672551562
200.0 107.3190672551562
206.0 107.19342781578521
212.0 107.05939548980447
218.0 106.8339937286019
224.0 106.73399372860192
230.0 106.87511597221089
236.0 107.11679682560084
240.0 106.99230177147402
250.0 106.59230177147403
258.0 106.51094438552546
265.0 106.35422303905796
272.0 106.13103465373567
280.0 106.11975953449185
290.0 105.97551833277765
300.0 105.66744393121476
307.0 105.49341345235173
315.0 105.30090331983266
325.0 104.99271004762893
335.0 104.55768622657095
345.0 104.32791507720577
355.0 103.9881410097548
365.0 103.35554508322724
375.0 102.72981308772837
387.0 102.11063203077263
400.0 101.65888525512983
412.0 101.3439645928381
425.0 101.04490227199383
437.0 100.60976464674852
450.0 100.078060243339
462.0 99.61759851593126
475.0 98.89783997837189
487.0 97.87040442328602
500.0 96.93464653477103
515.0 96.08191969714117
530.0 95.57653009150778
545.0 95.32230293068906
560.0 95.15360623191113
580.0 95.02497477204598
600.0 94.36492503514606
615.0 93.45388886794217
630.0 92.29022803221032
650.0 91.15784561385072
670.0 91.58234415679942
690.0 93.36366576312375
710.0 95.08699639142557
730.0 96.29141252925123
750.0 96.97575003836329
775.0 96.82257324884925
800.0 95.71726489393924
825.0 93.98219395219263
850.0 92.03049051534843
875.0 92.12145591223954
900.0 93.87389603958238
925.0 94.96540564454398
950.0 95.26409114689078
975.0 94.87908507893977
1000.0 94.23358833778047
1030.0 93.33037731805962
1060.0 92.51860789566261
1090.0 92.20061092883927
1120.0 92.26846433633786
1150.0 92.40332644584524
1180.0 92.3567428219076
1220.0 92.41605099317762
1250.0 92.52479274332038
1280.0 92.46109815801529
1320.0 91.81611008897434
1360.0 90.30513676679496
1400.0 88.84022840812648
1450.0 89.32241925847197
1500.0 90.50762545769362
1550.0 91.5682637890981
1600.0 91.91963978100816
1650.0 91.60097266247675
1700.0 91.11974017637718
1750.0 90.68436917300279
1800.0 90.15673100486862
1850.0 89.46877432364359
1900.0 88.69321272380395
1950.0 88.02918736254985
2000.0 87.69089521337904
2060.0 87.03310436605547
2120.0 85.91201412457205
2180.0 85.42572385821245
2240.0 85.47867929553864
2300.0 85.65993615125797
2360.0 86.53857931551221
2400.0 88.00761445202971
2500.0 89.27093605922887
2580.0 89.73143951631727
2650.0 88.40720848273787
2720.0 85.69025812556798
2800.0 84.04248021976949
2900.0 84.83274080773582
3000.0 87.05097985013734
3070.0 88.83076207482537
3150.0 88.74010274571233
3250.0 87.56684179448516
3350.0 89.04295759628945
3450.0 91.28219395219264
3550.0 93.66912584469968
3650.0 98.11866555417933
3750.0 101.22063042837851
3870.0 102.30206202782091
4000.0 101.8460658182209
4120.0 100.13066282568963
4250.0 97.82364226861279
4370.0 98.57824375174785
4500.0 100.30361227543969
4620.0 100.94420776951485
4750.0 100.24621982552621
4870.0 98.12193151698305
5000.0 95.20158141968841
5150.0 93.3764664798359
5300.0 94.10537894837412
5450.0 96.31524980515277
5600.0 98.6027988716508
5800.0 99.8889821941965
6000.0 99.90472623590348
6150.0 98.60602187334868
6300.0 96.80926583956679
6500.0 95.44621867010474
6700.0 94.57828392110481
6900.0 92.85165436477777
7100.0 89.21996426445315
7300.0 86.50825667637662
7500.0 86.7198236067419
7750.0 88.80777558714135
8000.0 90.26864330912663
8250.0 90.0248250347203
8500.0 90.48110249432793
8750.0 92.60976464674852
9000.0 97.04308705716906
9250.0 101.24203168109706
9500.0 100.83951420707788
9750.0 97.81487784686472
10000.0 94.8048394273378
10300.0 93.51146125474418
10600.0 94.7891669217419
10900.0 96.22738809211837
11200.0 98.76961317752398
11500.0 102.77193407654805
11800.0 104.88315827407314
12200.0 103.6251973730476
12500.0 100.8103897029336
12800.0 98.9027320082767
13200.0 99.57460907664938
13600.0 100.15965755833773
14000.0 98.13861211446584
14500.0 94.99528468610502
15000.0 95.31043811375216
15500.0 95.72441136639013
16000.0 95.42872747935874
16500.0 94.50767760062743
17000.0 97.75396833716962
17500.0 103.20146821281112
18000.0 105.87116661675579
18500.0 110.08619919702485
19000.0 110.5668636497549
19500.0 97.43466330625671
