Freq "Rear Wall Bounce"
22.4 71.14924164731755
23.0 71.84924164731754
23.6 72.68048011627928
24.0 74.09092048541518
25.0 76.51728265276262
25.8 78.92787587186197
26.5 80.45951821044906
27.2 81.23820305645876
28.0 81.72787587186197
29.0 82.23820305645876
30.0 83.04850574205994
30.7 84.006415870898
31.5 85.0960127306146
32.5 86.71728265276262
33.5 89.08534140989613
34.5 91.25878404462752
35.5 92.49601273061461
36.5 93.54850574205994
37.5 95.28023662947248
38.7 97.406415870898
40.0 99.206415870898
41.2 100.4960127306146
42.5 101.24826603949435
43.7 101.71679415091745
45.0 102.46391408828704
46.2 103.67439430983315
47.5 104.87439430983314
48.7 105.87439430983314
50.0 106.58484930179664
51.5 106.84263186310733
53.0 106.94263186310732
54.5 106.85316350574068
56.0 106.7160641076579
58.0 106.54263186310732
60.0 106.9054420030281
61.5 108.21063540689218
63.0 109.51063540689216
65.0 110.42124483242414
67.0 111.15817503850104
69.0 111.62124483242413
71.0 111.85817503850103
73.0 111.91087719539237
75.0 111.92678074647122
77.5 112.0476555565489
80.0 112.13735085147644
82.5 112.07427239741644
85.0 112.00580511467109
87.5 111.52702163779168
90.0 110.86427512557023
92.5 110.0434802376922
95.0 109.05400982570957
97.5 108.26451394618827
100.0 108.17073568396512
103.0 108.29164364671064
106.0 108.10254740766989
109.0 107.49795363438045
112.0 107.30909487219047
115.0 107.54112501246495
118.0 107.7685400921237
122.0 107.86854009212371
125.0 107.83816032809614
128.0 107.62829837437185
132.0 107.30827599605546
136.0 106.72572124189557
140.0 105.61774826829026
145.0 104.81774826829025
150.0 104.67840637073886
155.0 104.66863548793403
160.0 104.34007666032636
165.0 103.54612931169488
170.0 102.29043498132461
175.0 101.10877570175614
180.0 100.07136184928964
185.0 99.66513598142042
190.0 100.31819786766829
195.0 100.47225980290354
200.0 100.45405602289486
206.0 100.31910146045766
212.0 100.20896508793928
218.0 99.97816422196382
224.0 99.9005432121881
230.0 100.08061939297106
236.0 100.40550860234211
240.0 100.30550860234212
250.0 100.00596568667358
258.0 100.0560490906843
265.0 100.01176571735888
272.0 99.93670978210699
280.0 100.06883986539032
290.0 100.10443886637881
300.0 99.98584047088646
307.0 100.0649953953639
315.0 100.13860349801195
325.0 100.09598783399835
335.0 99.91180158505082
345.0 99.94984406196039
355.0 99.93151748653061
365.0 99.62844932304168
375.0 99.20988532524726
387.0 98.80312546582917
400.0 98.57335385079719
412.0 98.35307607538557
425.0 98.24560386573933
437.0 97.96653820671773
450.0 97.75756542373773
462.0 97.69303869371697
475.0 97.53463359718754
487.0 97.21532166776024
500.0 97.11383399251199
515.0 97.14070727738486
530.0 97.1675406922588
545.0 96.96395660807791
560.0 96.481219340396
580.0 96.06968535426282
600.0 95.76578814767541
615.0 95.79224966868003
630.0 95.86940781010729
650.0 95.80889625980646
670.0 95.91003052526465
690.0 95.9750256359321
710.0 95.80167592592565
730.0 95.45212147959727
750.0 95.03674537533186
775.0 94.55275440399687
800.0 94.24935343856082
825.0 94.27726658296925
850.0 94.45292750638328
875.0 94.59597822043048
900.0 94.62237258675908
925.0 94.40602604166642
950.0 93.92056516528424
975.0 93.41467039566331
1000.0 93.05974459191387
1030.0 92.70567092525513
1060.0 92.51508485780946
1090.0 92.41636549084711
1120.0 92.29281128840739
1150.0 91.95329815142964
1180.0 91.39535728386113
1220.0 90.67776745389683
1250.0 89.89020902122135
1280.0 89.20661987124538
1320.0 88.27272822106647
1360.0 87.40108289847785
1400.0 87.10256793081987
1450.0 87.15228813693511
1500.0 86.87977887709692
1550.0 85.9612657416889
1600.0 84.58358257940958
1650.0 83.33350498656046
1700.0 82.86024787636873
1750.0 82.27636134017285
1800.0 81.25399547775743
1850.0 80.0191470974346
1900.0 78.53232645684946
1950.0 76.76342640226741
2000.0 75.24526041684507
2060.0 74.62729246333188
2120.0 74.5210596584615
2180.0 74.56340950073653
2240.0 74.45962248249833
2300.0 73.94233522243738
2360.0 73.73442441347245
2400.0 74.34645066593896
2500.0 75.33285507806332
2580.0 76.18800847819804
2650.0 76.40018068516554
2720.0 75.93266939475734
2800.0 75.66692512573198
2900.0 75.73861742476177
3000.0 76.54865073731054
3070.0 77.82549879415069
3150.0 78.76209237304857
3250.0 79.50848410388636
3350.0 79.49422345800906
3450.0 78.11263824167744
3550.0 75.83051509025606
3650.0 73.47339728985023
3750.0 71.81069387701302
3870.0 69.80962942961796
4000.0 68.24436970776429
4120.0 68.67775949066854
4250.0 68.49161983421612
4370.0 66.29950923531197
4500.0 64.74715793387352
4620.0 65.59362855651855
4750.0 66.92357130498013
4870.0 66.83350509884391
5000.0 64.33140185950893
5150.0 62.453261212572016
5300.0 65.89164828417915
5450.0 68.92421398505178
5600.0 69.01429944903603
5800.0 67.4838069690368
6000.0 66.55068020925256
6150.0 65.79376711762936
6300.0 64.24453652877185
6500.0 64.29991570080057
6700.0 65.25873174757643
6900.0 64.90565845645662
7100.0 64.74628669065521
7300.0 64.36675589691365
7500.0 62.56884000993773
7750.0 61.46591780262028
8000.0 63.609246436524074
8250.0 65.3938239362715
8500.0 65.81588428665074
8750.0 66.35072717973955
9000.0 68.98687502339212
9250.0 71.6878148268749
9500.0 72.46775132962347
9750.0 71.97417028362139
10000.0 71.25589354908561
10300.0 70.23792826545724
10600.0 69.67841687523523
10900.0 72.10193858610938
11200.0 75.42153492587966
11500.0 77.40169285594527
11800.0 77.74425487070866
12200.0 78.14454697228174
12500.0 80.30818782619
12800.0 82.58573018774736
13200.0 83.14634721516936
13600.0 81.00905877749815
14000.0 78.63185424745703
14500.0 77.95753451377891
15000.0 78.39137816935107
15500.0 79.5836146788136
16000.0 81.16275547896832
16500.0 81.81148281160762
17000.0 80.18121226122213
17500.0 81.76304083029677
18000.0 83.60128826975539
18500.0 83.7311879515863
19000.0 82.85177062741847
19500.0 73.96665378453633
