Freq "Side Wall Bounce"
22.4 71.58156054014523
23.0 72.28156054014522
23.6 73.1009209770721
24.0 74.52157071745498
25.0 76.96119474234183
25.8 79.36119474234184
26.5 80.88156054014522
27.2 81.68156054014521
28.0 82.16119474234182
29.0 82.66119474234183
30.0 83.48156054014521
30.7 84.44119983124484
31.5 85.52157071745496
32.5 87.16119474234182
33.5 89.5023023206405
34.5 91.68156054014521
35.5 92.94119983124484
36.5 93.96119474234182
37.5 95.70230232064048
38.7 97.84119983124484
40.0 99.62157071745497
41.2 100.92157071745498
42.5 101.68156054014521
43.7 102.16119474234182
45.0 102.9023023206405
46.2 104.1023023206405
47.5 105.3023023206405
48.7 106.30230232064049
50.0 107.0023023206405
51.5 107.30230232064049
53.0 107.40230232064049
54.5 107.30230232064049
56.0 107.12342518384304
58.0 107.0023023206405
60.0 107.32342518384304
61.5 108.64396845048444
63.0 109.94396845048442
65.0 110.90460439722739
67.0 111.64396845048444
69.0 112.1046043972274
71.0 112.3252366727071
73.0 112.38526041028545
75.0 112.40598456990743
77.5 112.56670626616767
80.0 112.62757995317386
82.5 112.60920611180407
85.0 112.58943152887123
87.5 112.10920611180408
90.0 111.43128689490088
92.5 110.65226959352627
95.0 109.6944829039731
97.5 108.93441685017133
100.0 108.8568801862013
103.0 109.03820413572707
106.0 108.85964029264129
109.0 108.32070188121241
112.0 108.18505351870533
115.0 108.46516840337087
118.0 108.7298846540872
122.0 108.91313953999233
125.0 108.936773874776
128.0 108.80245227663602
132.0 108.50245227663602
136.0 108.002452276636
140.0 106.9863606964899
145.0 106.33276641677855
150.0 106.21715136362975
155.0 106.29956388711857
160.0 106.06429849938318
165.0 105.38418758905331
170.0 104.20909764670199
175.0 103.10909764670198
180.0 102.19410496767789
185.0 102.41313953999233
190.0 101.65688018620129
195.0 101.85688018620131
200.0 101.89589851456611
206.0 101.81856144673371
212.0 101.7568801862013
218.0 101.5568801862013
224.0 101.5009796912339
230.0 101.70097969123388
236.0 102.0824927252974
240.0 101.96516840337087
250.0 101.66516840337087
258.0 101.6885220413827
265.0 101.6885220413827
272.0 101.58852204138269
280.0 101.73385448621767
290.0 101.75342828338574
300.0 101.63558031227464
307.0 101.7233878561402
315.0 101.78937136577422
325.0 101.77323115455687
335.0 101.63997526588544
345.0 101.70722847671342
355.0 101.75987565237126
365.0 101.5679866386364
375.0 101.31039079867914
387.0 101.13936265226485
400.0 101.04255550372753
412.0 101.10007380175792
425.0 101.23783209822808
437.0 101.1690638072412
450.0 101.07640400410983
462.0 101.10077902129674
475.0 100.99199937211293
487.0 100.62730669830093
500.0 100.45876922673912
515.0 100.38270048615804
530.0 100.36914649623658
545.0 100.23390114015962
560.0 99.9654979110565
580.0 99.93586812521427
600.0 100.13114008626471
615.0 100.53269311279264
630.0 100.83711380103983
650.0 100.91641715643367
670.0 101.04017932615193
690.0 101.08636194853032
710.0 100.85188313252193
730.0 100.54383541255798
750.0 100.15611696524259
775.0 99.75622242860004
800.0 99.6069276303504
825.0 99.79142697007131
850.0 100.0578211786941
875.0 100.20956352131256
900.0 100.2273120835576
925.0 100.01257528060651
950.0 99.59464251919604
975.0 99.07947834679129
1000.0 98.6992981978075
1030.0 98.30347566395903
1060.0 98.0256908017439
1090.0 97.89162994058199
1120.0 97.77481699899984
1150.0 97.66904144932208
1180.0 97.34445512116488
1220.0 96.77561548960378
1250.0 95.82921522651606
1280.0 95.05701761219777
1320.0 94.35864646047624
1360.0 94.13911969743152
1400.0 94.29316536536558
1450.0 94.23167198217682
1500.0 93.61864675674698
1550.0 92.79376341184098
1600.0 92.15754613136446
1650.0 91.62566575891195
1700.0 91.11688560433767
1750.0 90.40947661407556
1800.0 89.5360124262344
1850.0 88.3513972376528
1900.0 86.8336148715221
1950.0 85.17084885798019
2000.0 83.76956123114383
2060.0 82.7592462185478
2120.0 81.81888694680035
2180.0 81.56557097797985
2240.0 82.11591861663065
2300.0 82.45245292883214
2360.0 82.32995228905827
2400.0 82.75529109829961
2500.0 84.22020341928803
2580.0 85.8863803374281
2650.0 86.8379250389941
2720.0 86.96880751866028
2800.0 86.93305870354058
2900.0 86.42468329637607
3000.0 86.19692358663126
3070.0 87.00114501545238
3150.0 88.04000249302358
3250.0 88.81945948171216
3350.0 89.28535970789349
3450.0 89.42396827040918
3550.0 88.47626915170973
3650.0 87.37208322038686
3750.0 86.39396411288966
3870.0 84.43051117823688
4000.0 82.20780445581174
4120.0 81.49883070576709
4250.0 81.350755609599
4370.0 79.57291439406694
4500.0 78.29847201652743
4620.0 79.4430339781726
4750.0 80.35663608283471
4870.0 79.3665115528961
5000.0 77.90822950297397
5150.0 77.58592614503854
5300.0 76.09803728436117
5450.0 74.63934112183088
5600.0 76.40389657384873
5800.0 78.4439573179931
6000.0 80.12239439832376
6150.0 81.52475450580849
6300.0 80.98243616173207
6500.0 79.66982164488891
6700.0 79.01897595430361
6900.0 77.86073713127203
7100.0 77.11373117086112
7300.0 76.57709970787468
7500.0 75.84516014720788
7750.0 74.90608857933762
8000.0 74.49895560585128
8250.0 75.22434163097245
8500.0 75.96915795368938
8750.0 77.08187881285079
9000.0 80.83652624210694
9250.0 84.24026326772321
9500.0 84.5911578076146
9750.0 83.17093087768446
10000.0 81.99590364244881
10300.0 80.99859170634386
10600.0 79.71631977357711
10900.0 80.09656092509346
11200.0 81.79158116807636
11500.0 84.27178165848856
11800.0 86.3523141303076
12200.0 86.44801553838018
12500.0 87.62947600350782
12800.0 90.00578925624492
13200.0 91.30839722909028
13600.0 90.88033235122128
14000.0 90.48066870525948
14500.0 90.98885569653353
15000.0 91.98491949003377
15500.0 94.60204696342647
16000.0 98.00793702122826
16500.0 100.64102967873853
17000.0 101.432519244082
17500.0 99.5841184263048
18000.0 97.97637706318208
18500.0 98.85758119815718
19000.0 98.6806232940925
19500.0 90.8723760353376
