Freq,Floor Bounce,Ceiling Bounce,Front Wall Bounce,Side Wall Bounce,Rear Wall Bounce,Total Early Reflection
22.4,23.514420504688132,25.014568629093986,14.452877011467535,12.7149442228569,13.092693848088771,20.8554376201632
23.0,24.882527348419472,26.212466412614788,16.550684066265518,14.76160971384897,14.659770650972405,22.202247046587303
23.6,26.137801004804828,27.27277674488687,18.35068406626553,16.550378154008968,16.062250003837164,23.41867423885583
24.0,27.21550659235183,28.216387703130067,19.8506840662655,18.08244676937403,17.29639954056239,24.48539321898454
25.0,28.336742419951463,29.150990063820586,21.36011102734642,19.645155267537774,18.634153743674972,25.57796652828057
25.8,30.865647676535787,31.483678955918492,25.466581426181108,24.212042852754735,22.774907885544962,28.367182282973914
26.5,33.4596203420011,33.882196718458005,29.023394766841136,28.003959132756734,26.369107651706997,31.15693210663852
27.2,35.49448868932291,35.828692453677974,31.642760575087408,30.7097663334782,29.0322351591075,33.347857614792076
28.0,37.2529553678778,37.52934077441657,33.72428666333613,32.81695302338693,31.121709550339347,35.19538862054142
29.0,38.777579504607104,38.99317164073085,35.50615702860824,34.6541783624283,32.878864370598706,36.79269766276428
30.0,40.07106876148262,40.23183881345315,36.95647342030847,36.154178362428325,34.400060572804506,38.13640008119077
30.7,42.63999927958744,42.77244660678602,39.7502503804767,38.98075661804643,37.22597527543559,40.78662349681187
31.5,45.82285902893767,45.87244660678604,43.212936251845946,42.52496565299768,40.80922027808441,44.07448172416801
32.5,48.14942181474029,48.20123407755884,45.74820042978871,45.12496565299767,43.464258036736226,46.507159689404915
33.5,50.00390692468429,50.00190235499849,47.77181595682575,47.19547713634097,45.53267532684794,48.428281027378944
34.5,51.60390692468428,51.601902354998515,49.48389759253459,48.917124701136885,47.28148919721275,50.081595197979595
35.5,53.331838813453174,53.301902354998504,51.33699269645015,50.78852204138269,49.22178188841525,51.868508032645224
36.5,56.01912930458363,55.9019023549985,54.29202567084883,53.70698341408263,52.23225894164534,54.65304325241061
37.5,58.178578322151,58.03183881345316,56.616886986381076,55.99867569197724,54.64979639255017,56.887092026437955
38.7,59.93858119222398,59.760236554670655,58.54218091696799,57.88141593316226,56.54943283330101,58.70738608007875
40.0,61.39913536951437,61.190460600920375,60.142180916968016,59.41796015013398,58.188118728285076,60.22198606973231
41.2,63.66023818113064,63.419129304583635,62.48384635970507,61.77590847828134,60.636707881735646,62.530979363847564
42.5,66.25380974359445,65.91912930458363,65.29408639062913,64.45260167657011,63.492085622369416,65.19422584981109
43.7,68.28407839372551,67.91912930458363,67.42336006342347,66.51287766555225,65.64321307440878,67.25936025817987
45.0,69.94680983520814,69.54827118020832,69.1663583888585,68.23347076710746,67.43314396582207,68.95857837410139
46.2,71.74283030471975,71.30799265215589,71.09314971661814,70.03347076710746,69.35352037227752,70.79243719060233
47.5,73.63821129888743,73.16826674204793,73.16604899159537,72.03247987557604,71.40702153773259,72.75893105660185
48.7,75.27150800786937,74.76826674204794,74.86604899159538,73.65394423549931,73.12944230036685,74.41085540696915
50.0,76.7053180676647,76.1984351485718,76.36604899159538,75.1339158380446,74.61933006260027,75.87478474609858
51.5,78.27071732495409,77.72909084157254,78.0093049954111,76.77579929307973,76.21933006260028,77.46844443066107
53.0,79.76845083805432,79.19046221610057,79.59346435096715,78.29805014496486,77.73357376558693,78.98489506799594
54.5,81.10306957104251,80.52117404089635,80.99346435096716,79.67822458438252,79.03357376558691,80.33646821937899
56.0,82.60306957104251,82.02117404089634,82.50726421930295,81.19805014496487,80.47494813117711,81.83447105345486
58.0,84.20306957104252,83.68335937246297,84.19177750674626,82.8807878949703,82.02651771539318,83.47467497712053
60.0,85.63513059177984,85.1148352363348,85.62134028026246,84.32070188121241,83.37770925418768,84.89590109672847
61.5,86.77001488257477,86.21483523633479,86.76204375999245,85.50352961026536,84.4089807427628,86.01884666537771
63.0,87.57001488257475,87.01483523633479,87.57626691117765,86.32070188121241,85.20898074276278,86.82527921257741
65.0,88.37001488257476,87.81483523633479,88.37626691117765,87.12070188121241,85.92995216606195,87.61447036973684
67.0,89.03513059177983,88.51483523633479,89.04675150375354,87.80352961026537,86.53522484626566,88.28330382423101
69.0,89.57001488257477,89.07783080594571,89.64675150375353,88.46813431484034,86.99920090225316,88.85380962429201
71.0,90.10231994589775,89.61007799780292,90.18815674058199,89.00352961026536,87.4057881785264,89.3726648788057
73.0,90.43513059177982,89.9778308059457,90.54412398190063,89.38668237198826,87.65446599793259,89.71718014219284
75.0,90.80231994589775,90.34136150423586,90.88748929892041,89.78668237198825,87.95245050537173,90.07539981931924
77.5,91.03513059177982,90.5778308059457,91.14412398190063,90.06813431484035,88.12922500363703,90.31706399433955
80.0,91.13513059177983,90.74136150423587,91.28748929892042,90.18668237198825,88.23908485578372,90.44580867892043
82.5,91.26769521305295,90.87387961222818,91.42946066855592,90.36813431484035,88.33836966003044,90.5859170313669
85.0,91.40231994589776,90.97387961222817,91.54379075419729,90.5285199734049,88.39334925273187,90.70372902379142
87.5,91.43513059177984,91.07387961222818,91.62946066855591,90.62851997340489,88.44889809806756,90.77933134815099
90.0,91.46769521305295,91.07387961222818,91.65840584504062,90.66813431484036,88.42942530574484,90.79936762748065
92.5,91.46769521305295,91.07387961222818,91.65840584504062,90.66813431484036,88.35480953483295,90.79078599408184
95.0,91.40231994589776,91.00690501035459,91.64379075419728,90.60837370961559,88.23054163264399,90.7319499598637
97.5,91.33513059177983,90.93821129888744,91.62946066855591,90.55153631355071,88.13473739623976,90.67635412119985
100.0,91.30231994589775,90.9069050103546,91.62946066855591,90.55153631355071,88.04578478818623,90.65224447799557
103.0,91.30231994589775,90.9069050103546,91.65840584504062,90.53525461202236,88.01520086361501,90.65299807778297
106.0,91.37001488257476,90.9069050103546,91.71671462166475,90.51691328001445,87.93977855263758,90.67189179819815
109.0,91.37001488257476,90.87387961222818,91.80229476693692,90.48060007782729,87.8400079148917,90.66943783835893
112.0,91.40542400732662,90.84283030471974,91.86035311823197,90.44657925221914,87.73059431376726,90.66872751574651
115.0,91.33821129888742,90.74283030471975,91.84865957364794,90.32870305374573,87.57496005726068,90.59093433707012
118.0,91.27387961222817,90.64283030471975,91.84865957364794,90.1705775918328,87.34192039960178,90.50249859623288
122.0,91.24283030471975,90.5122717831562,91.83821837558621,90.01715136362975,87.15218118703984,90.41903463498018
125.0,91.17928732607432,90.41227178315619,91.83924275721992,89.909097646702,87.00495815472866,90.35022185446942
128.0,91.1489851487955,90.31227178315618,91.83924275721992,89.80909764670199,86.80080516292588,90.28606013835638
132.0,91.08623512455236,90.2122717831562,91.8136394060688,89.65690409354568,86.60013285676408,90.19841153729377
136.0,91.01916705502754,90.08219967332303,91.8136394060688,89.50235869497556,86.3495849872522,90.10735422672698
140.0,91.01916705502754,90.01916705502754,91.78847217927515,89.39986737502548,86.12888310132925,90.05137729836697
145.0,90.9566725593005,89.91916705502754,91.77428900949671,89.28552008031015,85.90754666680985,89.97442458674591
150.0,90.9566725593005,89.82758719283592,91.7351604799582,89.11219806381526,85.61948957249251,89.89313279846485
155.0,90.92758719283592,89.72758719283593,91.7351604799582,89.00905566274531,85.38485302760635,89.83171248779259
160.0,90.82758719283592,89.62758719283593,91.6654734251085,88.87926628400757,85.1365166182652,89.72574965889741
165.0,90.76588846059687,89.49897445130925,91.5965789834295,88.7303667543796,84.82027965906829,89.61717247895756
170.0,90.66588846059688,89.39897445130926,91.5512148231135,88.51707239352734,84.5021507150617,89.5021577581273
175.0,90.59897445130925,89.23752777300027,91.48242230727826,88.36890554090864,84.16447824173275,89.3866743063307
180.0,90.53752777300028,89.13752777300027,91.37455785944567,88.22783218957028,83.82941575239812,89.27413134750388
185.0,90.47662798253906,89.03752777300028,91.37455785944567,88.15679278829755,83.55180844145316,89.21192207005518
190.0,90.43752777300028,88.97662798253906,91.34670449332896,88.01001022169905,83.23343435228766,89.14085428600403
195.0,90.37662798253905,88.84898359150841,91.29121584965016,87.8827985235204,82.94805402413749,89.0475057836885
200.0,90.41627783177746,88.84898359150841,91.35368443756606,87.87082123630394,82.78978268092217,89.06990123336053
206.0,90.41627783177746,88.78888547155002,91.35368443756606,87.80084433034517,82.56960720859034,89.03779255452014
212.0,90.18888547155002,88.52179738688895,91.21637105372865,87.55543577862784,82.16782709259813,88.8235313372698
218.0,90.16194867563765,88.36194867563765,91.18559808526217,87.37447038647481,81.87032276969192,88.73649445215607
224.0,90.12934077441656,88.3026545034034,91.1795946580958,87.32939227391911,81.6130263941998,88.69754944736749
230.0,90.00265450340339,88.07641629732153,91.09343859806336,87.11807697570096,81.27974628243594,88.5471195448074
236.0,89.87641629732153,87.85062128010364,90.9795946580958,86.84917095218248,80.8473001028805,88.37615726352507
240.0,89.7179278976485,87.56726558859611,90.85699449350031,86.58021984083899,80.41691134975268,88.1841946494928
250.0,89.8179278976485,87.60982855556756,91.02076211162324,86.6123129624207,80.29580095159125,88.28154341508835
258.0,89.93469773360897,87.58538710465899,91.20700513465589,86.65901310729093,80.12467648591709,88.38247189684589
265.0,90.03469773360898,87.60497668676807,91.37118930448192,86.58184047788714,79.86162131185488,88.46018173896233
272.0,90.05295536787779,87.4816120853342,91.41459925298412,86.46090869017377,79.42767082470851,88.43556653335557
280.0,89.92875610128314,87.20330383828929,91.33269375309845,86.16337658880504,78.87150349735394,88.27185457910508
290.0,89.77269145322595,86.92643297742508,91.24559657324919,85.8143092427747,78.20067375147613,88.09083959846154
300.0,89.69389595883675,86.65098823501219,91.21155865308228,85.49014360997982,77.47718514336466,87.96039563262084
307.0,89.49389595883675,86.37695775614917,91.11018325240991,85.14369646301263,76.63198490338448,87.76467487060658
315.0,89.24852015458805,85.93638088039144,90.87710732371048,84.63513838471606,75.69267207626474,87.45865190913557
325.0,89.14066681957173,85.64577223479652,90.83085733694135,84.19556488129325,74.72342109424737,87.30890365999431
335.0,88.91904449785343,85.2261160916701,90.67967560724925,83.6390530757603,73.59456255421838,87.05219494638334
345.0,88.74520516099382,84.84123053036839,90.54968950495386,83.04878709365127,72.46223675091493,86.82737226834114
355.0,88.47277674488687,84.42406634433559,90.36982375705037,82.49419708978522,71.47881733173836,86.55332168787947
365.0,88.25274994214361,83.99533257014981,90.22161022310962,81.87583209934242,70.49908289113878,86.30891017588264
375.0,88.03209919948374,83.51755713588666,90.11120515129655,81.19672765653341,69.52622055272985,86.07893713994822
387.0,87.86382205324666,83.09736051976009,89.9738332702077,80.43100788332667,68.64803756079093,85.85975057050526
400.0,87.69689984743687,82.68201452057556,89.96137008002506,79.72464584951148,68.16276432252292,85.71805293073177
412.0,87.5840546157494,82.35588982462696,89.96881708694386,79.14671253576518,68.14076641904109,85.62740038653976
425.0,87.52057765478031,82.05904530613341,90.10142280746496,78.50284077073327,68.5538922541669,85.62841745208239
437.0,87.3424510581996,81.60586825843149,90.09878842179072,77.77782467039607,69.0697938197488,85.50980043571023
450.0,87.05315297924209,81.17711159109156,89.94922660330424,77.09488232467977,69.55804173947166,85.28177743601847
462.0,86.82294362715999,80.81780002610536,89.8488363519919,76.47020827474603,70.03731771838824,85.11114833946637
475.0,86.4512650258149,80.45507704354388,89.65401993500396,75.82280006612574,70.42488863567714,84.8441913248709
487.0,86.19441444972205,80.17979693268612,89.5073196138246,75.24827564673791,70.74512598681468,84.6498696141341
500.0,85.85269579506134,79.91145898042548,89.3080762751249,74.80481314038207,70.87094046261778,84.40275574400636
515.0,85.58473965839735,79.75038609828258,89.18557482715259,74.56924425941338,70.79007015995424,84.23526550632778
530.0,85.38473965839736,79.76382205324666,89.16320271217862,74.45079958843357,70.62366314424544,84.16435575995351
545.0,85.33249005336113,79.99317487506892,89.33998702486284,74.63640389880433,70.5450841827562,84.28349575536043
560.0,85.43249005336114,80.29430744544665,89.65161038125224,75.06231830913603,70.48228998712179,84.5408839105465
580.0,85.1929700591914,80.17269145322595,89.57377314206286,75.24327352047486,69.87866168428775,84.42273094724823
600.0,84.89116525061453,79.90982855556754,89.5506140421734,75.55826241451157,69.06788802322356,84.320305374073
615.0,84.44035168096843,79.45062128010365,89.40912312456379,75.83622296388774,68.11996128186257,84.09503723459018
630.0,84.2422470214995,78.97641629732152,89.40912312456379,76.12695010874357,67.44246086129249,84.02755328509275
650.0,84.23738690493182,78.51792789764852,89.57536613683672,76.55095357033967,67.12961957998002,84.12829985381408
670.0,84.26123386229757,77.92102614963505,89.79004420327664,76.94348491385172,67.02651404212745,84.26849315121467
690.0,84.45866884175253,77.40791075563448,89.98423099376517,77.26467618089275,67.02100420000394,84.43701923631288
710.0,84.63233370664909,77.00190565802711,90.19118373440853,77.3511096594111,66.9293471751399,84.60890028697385
730.0,84.90761142781352,76.69764339402714,90.33938547923267,77.24487856304987,66.61581625045284,84.7573339060977
750.0,85.1224527665923,76.48506975681548,90.34011515473476,76.70297168519646,65.97952931083216,84.77704704245001
775.0,85.27693080019974,76.36567940610037,90.2127038428362,76.1233282643683,65.2246207623767,84.69775094390761
800.0,85.14109059037888,76.17780895720773,89.80457408536356,75.32694692527471,64.2008378532071,84.34846429723882
825.0,85.29074275843803,76.4729666769864,89.70457408536356,74.97907988840397,63.51015019333292,84.3151376416159
850.0,85.70219203555888,77.15169932678201,89.7430363999262,74.96579753384182,62.97007774083579,84.47011507066053
875.0,85.8292687324425,77.70026691542598,89.67385772463702,74.93956225808455,62.47859506617539,84.47857621564475
900.0,85.92518045435592,78.12519075000122,89.58697439138194,75.04600073709896,62.32372880750873,84.46908252197797
925.0,85.68594782122284,78.17133782108856,89.13749423654312,75.13380567371817,62.33710663707879,84.11678002848075
950.0,85.2488243380649,78.0668360609759,88.65416368143379,75.38906481002903,62.64859193255401,83.68808523029644
975.0,85.00137892277061,78.02812833708283,88.38649922025071,75.78554629765692,63.25623094373091,83.46167747525675
1000.0,85.01388511176722,78.24412887807499,88.4187081795435,76.41517429295817,64.09176569205229,83.52248921408241
1030.0,85.12664543441659,78.51153589924147,88.60824668575695,77.04730258020165,64.9052212272936,83.71489929029708
1060.0,85.19868001632912,78.73841347846599,88.87414318076407,77.60362279934854,65.69148817306106,83.94016984871303
1090.0,85.27117608287158,78.88506975681547,89.04055522112222,78.06046899527814,66.25472154806843,84.09575917127131
1120.0,85.35825149212044,78.98918406427575,89.2929505306079,78.53766758643192,66.66819211690861,84.3087031283587
1150.0,85.67905177547796,79.16161973556078,89.73365197626359,79.09551739243405,67.10595292227822,84.71010119777381
1180.0,85.96673210761146,79.2743745782644,90.16027238112858,79.59904430592636,67.33862003384883,85.08899916364429
1220.0,85.91622495047966,79.04796443729296,90.20889445262614,79.75146154816932,67.17752605836458,85.10478094041551
1250.0,85.46683606097591,78.46464679812536,89.89715605284115,79.5363590012356,66.67016891808944,84.75221288481715
1280.0,84.85557010865026,77.8166486698529,89.42978544608859,79.17226177809484,66.14297057654181,84.24911089669308
1320.0,84.28205840444086,77.28099554556164,89.03995856801737,78.93095551765947,65.6931548588708,83.82043147342289
1360.0,84.14610209921528,77.28375466535769,89.05034404184813,79.14595132844832,65.73036785406117,83.81210492626084
1400.0,84.35688508093071,77.85081528908938,89.48379980520156,79.74716680549625,66.20924890164878,84.21644034344271
1450.0,84.74321230049514,78.66562459081088,89.98024644828536,80.50066977395413,66.86357533533203,84.72509707809999
1500.0,84.97780895720773,79.59046060092038,90.3767368656908,81.18207256619421,67.40999855730891,85.1402371206859
1550.0,84.77814603037487,80.01627940083642,90.37515912148986,81.42176807029233,67.47623701788521,85.14655076972
1600.0,83.99333405367449,79.70690501035459,89.69821531566438,80.9018646587454,66.67498983712147,84.48668729079195
1650.0,82.9716752558138,79.0441577493485,88.82177539604078,80.11460794489722,65.51208582662434,83.60629932391022
1700.0,83.03123370490795,79.26419800295966,88.99961836339975,80.25634585843187,65.08924063959867,83.76192865217342
1750.0,83.59561295623507,79.90722417372365,89.62418767266537,80.83516420336355,65.16570293415873,84.37222551266112
1800.0,83.48752389906952,79.91406839527002,89.63956092906349,80.6915779967886,64.67098907140235,84.35149999350327
1850.0,82.96974421031868,79.3295216542878,89.22648088221959,79.99808135558524,63.79536374771814,83.88470082742536
1900.0,82.79280370563629,79.10901938277,89.1622290000301,79.5751296436034,63.30914620451233,83.76236180970547
1950.0,82.98053254533693,79.1927276533821,89.45008684929094,79.4548419922579,63.24673688031646,83.98999306458097
2000.0,83.27524319942698,79.30529495129531,89.78646670341314,79.44911256489559,63.45195136168135,84.2817396415419
2060.0,83.55352165026991,79.29533257014982,90.04902048559914,79.42118585620571,63.688197052708205,84.51135884454709
2120.0,83.6165745484632,78.99641043056627,90.05024108972088,79.14079439000153,63.83525724913861,84.48840477954256
2180.0,83.58493054864311,78.60840017459455,89.95146176694256,78.79298158835293,63.76553101960786,84.37077396097555
2240.0,83.70994607707172,78.35739707390631,90.03009990377251,78.68674258847435,63.81227180932575,84.430230475384
2300.0,83.84273297424511,78.09138540383124,90.12036485841668,78.66616555519369,63.66007460078427,84.50456647237246
2360.0,83.93386746839947,77.70217751107984,90.11903460238169,78.51310588041932,63.26118093292675,84.49392551173366
2400.0,84.01832710287034,77.3049083433944,90.14515841379773,78.44140753682491,62.80085368637984,84.50789430353913
2500.0,84.22355337356744,77.20177301918048,90.3584738933672,78.56358372286006,62.54974454480643,84.70304833722084
2580.0,84.31430709178903,77.17138480885903,90.49761389949467,78.73147639953399,62.20638274584945,84.82848486258976
2650.0,84.07107349090285,76.88779115163634,90.34766216472839,78.58871074242042,61.51536057045661,84.65736770454195
2720.0,83.67882898990247,76.61496244492469,90.11475627564955,78.43872176618244,60.76981805772587,84.3993930410232
2800.0,83.599066089813,76.67076275725437,90.1390620681186,78.51024027834669,60.43999796778101,84.40941781265319
2900.0,83.70235660263697,76.93920982111143,90.28623812506056,78.71249644590097,60.380630234461734,84.55617579831261
3000.0,83.65651423294884,77.04743899086733,90.28668325906037,78.79743151103504,60.231186852170396,84.5571648557452
3070.0,83.36551908472694,76.91832676913882,90.06382386803492,78.58107485954683,59.816587741254324,84.32688049799805
3150.0,83.10480505590478,76.68528746757073,89.75949351529084,78.29786557342119,59.437351413708996,84.03324926837215
3250.0,83.18126600255528,76.79063843282218,89.82823072117903,78.4449831646127,59.45059668246526,84.10876874650536
3350.0,83.54912790184531,77.03925752533571,90.09546082216285,78.72086884715785,59.64300332344229,84.3921454468542
