Freq "Estimated In-Room Response"
22.4 31.808052798047257
23.0 32.44681613213832
23.6 33.1013789984937
24.0 33.70695124180112
25.0 34.31121583164615
25.8 34.907451933251835
26.5 35.50177424095112
27.2 36.06442401060288
28.0 36.61103197076132
29.0 37.17374314867941
30.0 37.714497183046845
30.7 38.23605252065089
31.5 38.76147500921657
32.5 39.27158791343895
33.5 39.77205614049818
34.5 40.26294641464885
35.5 40.748605141155636
36.5 41.22922682258984
37.5 41.710495954988986
38.7 42.18786389314373
40.0 42.64379236614194
41.2 43.11056020419743
42.5 43.56294094344024
43.7 43.995626282408196
45.0 44.45498707941188
46.2 44.88832532318385
47.5 45.31325139987662
48.7 45.74646506253748
50.0 46.19484254538344
51.5 46.60732316471572
53.0 47.03551596448308
54.5 47.449833709128114
56.0 47.86021391462559
58.0 48.27399760840002
60.0 48.67337286357083
61.5 49.0790980846851
63.0 49.48156967744325
65.0 49.87659090661219
67.0 50.276179431340765
69.0 50.690173004333545
71.0 51.06468812618226
73.0 51.44579051012404
75.0 51.85206353437279
77.5 52.2304448358489
80.0 52.61492960649022
82.5 53.016244880198926
85.0 53.405962762032445
87.5 53.79461493353857
90.0 54.165448163720114
92.5 54.554807019617115
95.0 54.95166636077214
97.5 55.33851988066664
100.0 55.72602671298587
103.0 56.110136771160356
106.0 56.515869057163286
109.0 56.89557233462173
112.0 57.2939410118739
115.0 57.69254669427032
118.0 58.078916129944915
122.0 58.46121601718808
125.0 58.85336854757928
128.0 59.22295488899252
132.0 59.58780909114205
136.0 59.94263613024677
140.0 60.309157356591285
145.0 60.63907174349481
150.0 60.99132724976592
155.0 61.305430926187555
160.0 61.649698271978124
165.0 61.97863407672425
170.0 62.3015610775213
175.0 62.60922648714349
180.0 62.95288274470204
185.0 63.2695207361367
190.0 63.59949654055744
195.0 63.921380175642625
200.0 64.25911125558372
206.0 64.5664466652606
212.0 64.86355315374277
218.0 65.12175322172986
224.0 65.38133131678357
230.0 65.62136157437139
236.0 65.86208980286906
240.0 66.06449881155613
250.0 66.27292340937002
258.0 66.50977293640968
265.0 66.71636814022774
272.0 66.90741820840799
280.0 67.07603478690493
290.0 67.21370632178356
300.0 67.3335708449947
307.0 67.41856910013446
315.0 67.52735456587351
325.0 67.66647488262593
335.0 67.79130400832743
345.0 67.92170927957443
355.0 68.03626623497233
365.0 68.11923604941465
375.0 68.18968968902844
387.0 68.23994052706199
400.0 68.30371876996898
412.0 68.34368313075844
425.0 68.38720785139009
437.0 68.39982113897833
450.0 68.42504208178137
462.0 68.48327313177991
475.0 68.54978475569625
487.0 68.56597811784552
500.0 68.539941967513
515.0 68.4939488535452
530.0 68.45613542439146
545.0 68.42502869097622
560.0 68.37262723299744
580.0 68.33011615655123
600.0 68.31918290191798
615.0 68.31271969973541
630.0 68.26528396312143
650.0 68.21840294057249
670.0 68.27964189198133
690.0 68.26975843878954
710.0 68.1034040714004
730.0 67.97355539171373
750.0 67.99056692658277
775.0 67.98598442356088
800.0 67.94597855058682
825.0 67.88782718072382
850.0 67.81894855225143
875.0 67.81915047487935
900.0 67.87104049909829
925.0 67.74499402239422
950.0 67.62661912153006
975.0 67.76602380373576
1000.0 67.8970624981725
1030.0 67.81380027156719
1060.0 67.8616738917925
1090.0 68.01141080661544
1120.0 67.80471763424559
1150.0 67.79644046151058
1180.0 68.23027784992463
1220.0 68.37157447694726
1250.0 68.21210121048536
1280.0 68.1431459152605
1320.0 68.29790558900342
1360.0 68.47858851166667
1400.0 68.85355311125399
1450.0 69.02527769060792
1500.0 69.05977627926957
1550.0 68.99341963350464
1600.0 68.95489943796505
1650.0 68.86658786636075
1700.0 68.73285637534045
1750.0 68.75264131121108
1800.0 68.6185917771413
1850.0 68.65115486461438
1900.0 68.8333287185508
1950.0 69.03372119600247
2000.0 68.97239336513978
2060.0 68.86885185077186
2120.0 68.85975080016526
2180.0 68.87022846374387
2240.0 68.97091885832769
2300.0 69.20949273825036
2360.0 69.22316321488877
2400.0 69.33069130134257
2500.0 69.35283942405141
2580.0 69.12088015825266
2650.0 68.68717601705264
2720.0 68.59042019776327
2800.0 68.89382078153643
2900.0 68.8755534648473
3000.0 68.73816633755595
3070.0 68.50535739944851
3150.0 68.29616925058683
3250.0 68.07353267233515
3350.0 68.08356988111935
3450.0 68.16933191274582
3550.0 67.96505120009083
3650.0 67.61998688837657
3750.0 67.15291909656959
3870.0 66.82179273153778
4000.0 66.51183280869186
4120.0 66.29035345253229
4250.0 66.05692493655035
4370.0 65.77748621155544
4500.0 65.39674813259887
4620.0 64.88173298584455
4750.0 64.34136430022349
4870.0 64.11898524778029
5000.0 64.23119222475832
5150.0 64.38963784624478
5300.0 64.50098277031663
5450.0 64.15199272880976
5600.0 63.591789782465185
5800.0 63.59304057141752
6000.0 63.93481697334167
6150.0 63.98171948669169
6300.0 63.55906230224291
6500.0 63.15813681498561
6700.0 62.758674540689384
6900.0 62.63080110244994
7100.0 62.20043281040249
7300.0 61.59845711444042
7500.0 61.00174283064888
7750.0 59.78731542342729
8000.0 58.87702658106845
8250.0 59.14551001686439
8500.0 59.54471449411457
8750.0 58.53037575720704
9000.0 58.65433212560281
9250.0 58.93389871494
9500.0 59.111729068632215
9750.0 58.34669551902603
10000.0 59.25958080752683
10300.0 60.25237367124262
10600.0 60.07131248629379
10900.0 59.911512864108886
11200.0 61.03974323946977
11500.0 60.729915955677356
11800.0 61.07698618294462
12200.0 63.46524288172445
12500.0 62.23929643012586
12800.0 60.94704459549392
13200.0 60.02633430128891
13600.0 57.535636622726756
14000.0 56.9643260312228
14500.0 55.77469255459073
15000.0 56.86923356747887
15500.0 57.2774505047999
16000.0 59.59021252444764
16500.0 60.40778853462025
17000.0 60.279194194299336
17500.0 59.413972016970376
18000.0 55.69067161928591
18500.0 56.643563517677876
19000.0 56.026781647555026
19500.0 55.739741560388666
