Freq "Ceiling Bounce"
22.4 62.092570114136095
23.0 62.25866027600834
23.6 62.45866027600833
24.0 62.61753803239934
25.0 62.75866027600834
25.8 62.917538032399335
26.5 63.05866027600834
27.2 63.158660276008334
28.0 63.29257011413608
29.0 63.39257011413609
30.0 63.4925701141361
30.7 63.558660276008354
31.5 63.65866027600832
32.5 63.692570114136075
33.5 63.75866027600834
34.5 63.81753803239933
35.5 63.89257011413609
36.5 63.917538032399335
37.5 63.95866027600833
38.7 64.01753803239933
40.0 64.05866027600834
41.2 64.09257011413608
42.5 64.11753803239934
43.7 64.11753803239934
45.0 64.15866027600833
46.2 64.15866027600833
47.5 64.21753803239935
48.7 64.21753803239935
50.0 64.21753803239935
51.5 64.25866027600834
53.0 64.25866027600834
54.5 64.25866027600834
56.0 64.25866027600834
58.0 64.25866027600834
60.0 64.25866027600834
61.5 64.25866027600834
63.0 64.25866027600834
65.0 64.25866027600834
67.0 64.25866027600834
69.0 64.25866027600834
71.0 64.21753803239935
73.0 64.19257011413607
75.0 64.19257011413607
77.5 64.19257011413607
80.0 64.15866027600833
82.5 64.15866027600833
85.0 64.15866027600833
87.5 64.15866027600833
90.0 64.15866027600833
92.5 64.13392832814567
95.0 64.13392832814567
97.5 64.13392832814567
100.0 64.13392832814567
103.0 64.13392832814567
106.0 64.15866027600833
109.0 64.15866027600833
112.0 64.19257011413607
115.0 64.19257011413607
118.0 64.25866027600834
122.0 64.25866027600834
125.0 64.2925701141361
128.0 64.35866027600835
132.0 64.41753803239934
136.0 64.45866027600835
140.0 64.51753803239934
145.0 64.58382334167594
150.0 64.61753803239934
155.0 64.71753803239933
160.0 64.74293979360189
165.0 64.81753803239936
170.0 64.91753803239935
175.0 64.9429397936019
180.0 65.01753803239934
185.0 65.0429397936019
190.0 65.1429397936019
195.0 65.1429397936019
200.0 65.1429397936019
206.0 65.21753803239933
212.0 65.2429397936019
218.0 65.2429397936019
224.0 65.25866027600834
230.0 65.25866027600834
236.0 65.22526453928849
240.0 65.15866027600835
250.0 65.10034112939827
258.0 65.07584607527146
265.0 64.97584607527146
272.0 64.91832544184972
280.0 64.8183254418497
290.0 64.70497668676809
300.0 64.58161208533421
307.0 64.4816120853342
315.0 64.3260245235669
325.0 64.20330383828927
335.0 64.04852015458806
345.0 63.88098490550681
355.0 63.748520154588064
365.0 63.594307445446645
375.0 63.47245249207644
387.0 63.272452492076454
400.0 63.11904449785342
412.0 62.95098823501219
425.0 62.77245249207644
437.0 62.61904449785341
450.0 62.47245249207644
462.0 62.35098823501218
475.0 62.17245249207646
487.0 62.026432977425074
500.0 61.90330383828929
515.0 61.75865724017869
530.0 61.68161208533421
545.0 61.56136837622765
560.0 61.44258273663014
580.0 61.35866027600834
600.0 61.283823341675955
615.0 61.168780339967896
630.0 61.11592538879982
650.0 61.06668552790022
670.0 61.02349685065981
690.0 60.950170752125715
710.0 60.94415774934852
730.0 60.90531806766471
750.0 60.93513059177984
775.0 60.90076749445562
800.0 60.902284613960205
825.0 60.90531806766471
850.0 60.9098662867233
875.0 60.95260953202218
900.0 60.96096514237182
925.0 60.99897445130925
950.0 61.04898359150842
975.0 61.08888547155003
1000.0 61.12934077441656
1030.0 61.211921267533555
1060.0 61.25405093453074
1090.0 61.32285902893766
1120.0 61.365857275952564
1150.0 61.43546091849048
1180.0 61.50554950338956
1220.0 61.576118565317145
1250.0 61.64716357473719
1280.0 61.718679941493306
1320.0 61.79066301838192
1360.0 61.89066301838194
1400.0 61.91867994149332
1450.0 62.0205869308939
1500.0 62.123764509309666
1550.0 62.198250013620864
1600.0 62.3282115720272
1650.0 62.389595285612
1700.0 62.52102614963505
1750.0 62.652955367877766
1800.0 62.74258273663014
1850.0 62.851774375347404
1900.0 62.943915890692395
1950.0 63.10265313251615
2000.0 63.237798216612205
2060.0 63.36996121118247
2120.0 63.53080066193495
2180.0 63.65411829185204
2240.0 63.792187309381646
2300.0 63.91832613468223
2360.0 64.082196718458
2400.0 64.21152326304964
2500.0 64.3429397936019
2580.0 64.50942248426018
2650.0 64.64391724861638
2720.0 64.78042420054253
2800.0 64.94942181474029
2900.0 65.04611403139874
3000.0 65.18691806020396
3070.0 65.28626273845485
3150.0 65.35803522150265
3250.0 65.43221804579375
3350.0 65.50554950338956
3450.0 65.60942076110277
3550.0 65.61458026313015
3650.0 65.68959528561199
3750.0 65.66503937590753
3870.0 65.67269145322595
4000.0 65.62875610128314
4120.0 65.60497668676807
4250.0 65.5377673428554
4370.0 65.4145789575331
4500.0 65.34805664755615
4620.0 65.24805664755615
4750.0 65.08204905670952
4870.0 64.98204905670956
5000.0 64.80488091921369
5150.0 64.63921161314461
5300.0 64.53921161314462
5450.0 64.33921161314463
5600.0 64.16226919657724
5800.0 63.99693704381889
6000.0 63.7969370438189
6150.0 63.62021956404321
6300.0 63.44391589069238
6500.0 63.278729967537885
6700.0 63.10265313251615
6900.0 62.90265313251615
7100.0 62.761947291840855
7300.0 62.58652064166793
7500.0 62.48652064166792
7750.0 62.38652064166793
8000.0 62.211523263049656
8250.0 62.14659692804831
8500.0 62.04659692804832
8750.0 61.97182978310016
9000.0 61.91152326304966
9250.0 61.87182978310017
9500.0 61.811523263049665
9750.0 61.771829783100145
10000.0 61.771829783100145
10300.0 61.71152326304964
10600.0 61.67182978310015
10900.0 61.67182978310015
11200.0 61.61152326304965
11500.0 61.61152326304965
11800.0 61.571829783100156
12200.0 61.54659692804832
12500.0 61.511523263049654
12800.0 61.446596928048336
13200.0 61.41152326304966
13600.0 61.34659692804833
14000.0 61.286520641667934
14500.0 61.211523263049656
15000.0 61.11152326304965
15500.0 60.98652064166792
16000.0 60.84659692804833
16500.0 60.68652064166794
17000.0 60.54659692804832
17500.0 60.38652064166794
18000.0 60.186520641667926
18500.0 59.98652064166792
19000.0 59.74659692804832
19500.0 59.511523263049654
