Freq "Rear Wall Bounce"
22.4 52.261954578268245
23.0 52.457576238814184
23.6 52.65757623881419
24.0 52.794041948180066
25.0 52.98015912983503
25.8 53.09404194818006
26.5 53.226889280492145
27.2 53.361954578268254
28.0 53.46195457826825
29.0 53.58015912983504
30.0 53.66195457826825
30.7 53.75757623881418
31.5 53.8070072723595
32.5 53.894041948180075
33.5 53.980159129835044
34.5 54.004848321169646
35.5 54.087901659745654
36.5 54.12650657698451
37.5 54.19289188146571
38.7 54.22915174453561
40.0 54.29713597140602
41.2 54.320139741350175
42.5 54.397135971406016
43.7 54.41245452286128
45.0 54.42445549065552
46.2 54.450820640204554
47.5 54.51245452286129
48.7 54.51245452286129
50.0 54.531131341185684
51.5 54.531131341185684
53.0 54.531131341185684
54.5 54.531131341185684
56.0 54.520139741350164
58.0 54.520139741350164
60.0 54.50928011499555
61.5 54.48631036708176
63.0 54.457576238814184
65.0 54.39431589782528
67.0 54.36220910139713
69.0 54.32159610744952
71.0 54.24201753410958
73.0 54.210728245474115
75.0 54.13971269032574
77.5 54.09037352748882
80.0 54.038353561096244
82.5 53.965801666135945
85.0 53.94602768165905
87.5 53.904306783787476
90.0 53.86686782484658
92.5 53.82039428713318
95.0 53.81645476521342
97.5 53.81048525150641
100.0 53.81645476521342
103.0 53.82039428713318
106.0 53.894360932064245
109.0 53.92767919197354
112.0 54.01443990482532
115.0 54.09037352748882
118.0 54.210728245474115
122.0 54.33552552979961
125.0 54.49404194818007
128.0 54.65082064020456
132.0 54.85933428603424
136.0 55.07787655876362
140.0 55.34032590002283
145.0 55.59277666601557
150.0 55.85761238788906
155.0 56.12062400422465
160.0 56.398094576386825
165.0 56.699134405852845
170.0 56.976408185187665
175.0 57.27467567188158
180.0 57.54432622202427
185.0 57.79686555227683
190.0 58.058744504834635
195.0 58.299774161984246
200.0 58.51378510340163
206.0 58.70072372164708
212.0 58.86340704438305
218.0 59.01342978202406
224.0 59.119402769710575
230.0 59.170214567389934
236.0 59.178900168344
240.0 59.17292671907367
250.0 59.08971496817989
258.0 58.939859956801996
265.0 58.781874552261684
272.0 58.55398441799855
280.0 58.30461150498685
290.0 57.971250942605934
300.0 57.65102983151482
307.0 57.28292630128746
315.0 56.89575705264383
325.0 56.474765486152165
335.0 56.06075733074228
345.0 55.60428174559311
355.0 55.16634757464149
365.0 54.70700916526384
375.0 54.23509362840805
387.0 53.80984437456419
400.0 53.354675154573314
412.0 52.94386227297912
425.0 52.525006735805874
437.0 52.13106739007591
450.0 51.78765149349188
462.0 51.46524999182034
475.0 51.168051093802106
487.0 50.88939586756214
500.0 50.66137114848601
515.0 50.49834064000984
530.0 50.36411962800544
545.0 50.25738233939839
560.0 50.22955762454535
580.0 50.19533510369746
600.0 50.22443661027246
615.0 50.265618657635315
630.0 50.351044203896436
650.0 50.44215021521124
670.0 50.56653934690482
690.0 50.68808626540178
710.0 50.878641648995625
730.0 51.05604598723829
750.0 51.23271939141796
775.0 51.41001059521918
800.0 51.60561935571067
825.0 51.81814155796437
850.0 52.00472568783623
875.0 52.22299557288237
900.0 52.41190879612539
925.0 52.593048419609474
950.0 52.778698703498335
975.0 52.927397477959516
1000.0 53.07496695410063
1030.0 53.17205883175757
1060.0 53.269232099571695
1090.0 53.33047638915335
1120.0 53.429028468629056
1150.0 53.48829036023716
1180.0 53.48040368647803
1220.0 53.49388167319299
1250.0 53.538605126574964
1280.0 53.48634178200254
1320.0 53.47602526537159
1360.0 53.4677191098892
1400.0 53.41174256503139
1450.0 53.41501317687103
1500.0 53.34047352119444
1550.0 53.29486905493775
1600.0 53.223501796888414
1650.0 53.18154459927008
1700.0 53.11681655641925
1750.0 53.053573982662016
1800.0 52.99484438920021
1850.0 52.87773878778047
1900.0 52.84669824519253
1950.0 52.730970576941246
2000.0 52.68118831324199
2060.0 52.59895694972809
2120.0 52.560015112496984
2180.0 52.455308520872265
2240.0 52.442065553536395
2300.0 52.335238927498295
2360.0 52.26647907250454
2400.0 52.23084466495827
2500.0 52.158833722750614
2580.0 52.06650530609096
2650.0 52.06535217953382
2720.0 51.97087657544644
2800.0 51.90626955573427
2900.0 51.81796605006228
3000.0 51.81346017336111
3070.0 51.727757840018924
3150.0 51.66742770122136
3250.0 51.60926425505727
3350.0 51.58650873957956
3450.0 51.50322978285287
3550.0 51.44755510396527
3650.0 51.36302243737887
3750.0 51.34151871414831
3870.0 51.28369227796719
4000.0 51.200535994708986
4120.0 51.1182585392726
4250.0 51.12159851957172
4370.0 51.036248458072976
4500.0 50.950191974236375
4620.0 50.91809130983363
4750.0 50.83131152099291
4870.0 50.746101996355264
5000.0 50.72166596439098
5150.0 50.62969986908273
5300.0 50.60117902703004
5450.0 50.51259676291028
5600.0 50.4814571972918
5800.0 50.39243035506303
6000.0 50.365731530383556
6150.0 50.26930066546369
6300.0 50.24178269589572
6500.0 50.154115361105184
6700.0 50.11983995319591
6900.0 50.1154802255719
7100.0 50.02823858063691
7300.0 49.99404482199165
7500.0 49.906175371995616
7750.0 49.906175371995616
8000.0 49.87938028343302
8250.0 49.8052722788006
8500.0 49.7831800492621
8750.0 49.77938552183396
9000.0 49.757306907072646
9250.0 49.682583522405835
9500.0 49.65927615768544
9750.0 49.65927615768544
10000.0 49.645086218841925
10300.0 49.56066064552894
10600.0 49.559276157685446
10900.0 49.486375257917274
11200.0 49.48066997303695
11500.0 49.45730690707265
11800.0 49.37957532696586
12200.0 49.28669783412657
12500.0 49.2831800492621
12800.0 49.18318004926212
13200.0 49.08350286287697
13600.0 49.08143624484285
14000.0 48.98125083975883
14500.0 48.881436244842845
15000.0 48.77125657959219
15500.0 48.608069350002125
16000.0 48.481436244842854
16500.0 48.30806935000213
17000.0 48.17990427193921
17500.0 47.98143624484284
18000.0 47.78143624484285
18500.0 47.58143624484285
19000.0 47.37990427193921
19500.0 47.108069350002125
