Freq,Floor Bounce,Ceiling Bounce,Front Wall Bounce,Side Wall Bounce,Rear Wall Bounce,Total Early Reflection
20.5078,49.82109961721251,42.61999294510146,46.3366541536178,46.74258234501319,47.55317214212262,47.183788993071275
21.9727,50.91695606397745,45.104654395714974,47.5624710707625,48.05898878304207,49.17199099627349,48.56790921555445
23.4375,53.40960831223269,48.49961133617926,50.88679079974172,50.99472374610998,50.9946337799543,51.2331512604368
24.9023,52.92587213268813,48.416092592486635,50.082755616658474,50.23757866836813,50.58995010138774,50.70175373783563
26.3672,55.122710642830114,49.916052434431194,52.43649148397448,52.539883106316566,52.71985524837622,52.85626066075268
27.832,56.74761476972124,52.36002682800172,54.4915583558667,54.46053301964223,54.310909933416255,54.699661244166336
29.2969,58.38622904236239,54.41854559832866,56.39158811930834,56.29253444062242,55.95770928310152,56.47775919364035
30.7617,59.54588785715485,55.91616008701773,57.69645916979452,57.569962420342065,57.17790820607941,57.74253455445945
32.2266,60.82949672909079,57.582477504946425,59.148070807887834,59.00877669583646,58.5905737455776,59.163758883277794
33.6914,62.29325626810693,59.1441696415548,60.74104098123833,60.57690074427238,60.07607006233273,60.691153937979166
35.1562,63.26627263571724,60.40145352009982,61.73756624687,61.77984959365749,61.88261050398732,61.90858617659235
36.6211,64.97438369164009,62.053265724509785,63.58128427656793,63.42401679190685,63.041007997705876,63.519212258297344
38.0859,66.50273690320125,64.27937605868694,65.41878345664803,65.21446158937304,64.71518576720437,65.29295202547472
39.5508,67.78841024070529,65.3750877327402,66.67252511433514,66.48578203133745,65.99875756076331,66.53927958861472
41.0156,68.7175890788658,66.75084844998909,67.73147016571896,67.59385648457526,67.2753822834922,67.66310391187555
42.4805,69.99863162579653,68.0482794263798,69.06128925577312,68.89678528645588,68.53814939733272,68.95773583186782
43.9453,71.20969683173838,69.23544543956662,70.30148109024236,70.0928041778402,69.59660624411637,70.14063795116738
45.4102,72.63816920528281,70.821983240895,71.83272724231591,71.60054765128903,71.04814397149947,71.63621729769415
46.875,73.83603969652978,72.17389986516639,73.10605242171886,72.86796223241747,72.2774840651851,72.8950093602649
48.3398,74.99965492483759,73.43172633409249,74.32031128166886,74.07655986299757,73.45986600551731,74.09752907950453
51.2695,76.78577225349788,75.4616169373321,76.17694165434902,76.0410804918984,75.77641895600836,76.07120191851774
52.7344,77.92022120499091,76.55675442107017,77.3065024397848,77.15394683568202,76.9618528455269,77.20315505881537
54.1992,79.19122462079184,77.83733323217061,78.63839656240376,78.37530519011625,77.8338484601663,78.40595110851966
55.6641,80.0806776059651,78.81034210644987,79.56521065833647,79.31366848607924,78.76401787884812,79.334883439483
58.5938,81.80936104407566,80.6064690563487,81.33452796156236,81.08783570667225,80.58538278992152,81.10950780191725
60.0586,82.57822188694645,81.39954000939242,82.12254749150183,81.87000357712779,81.36569363877594,81.89140252191982
62.9883,83.88100372668592,82.76848300903079,83.47108549722127,83.20928746260981,82.70828989010367,83.23002698671847
64.4531,84.37239277145225,83.29408992704724,83.99096713825863,83.70290039002205,83.14431546894579,83.72432233690793
67.3828,85.20748513434246,84.23746231324039,84.8755920664408,84.59338994784697,84.00536298497322,84.60527704140353
68.8477,85.49770303017323,84.54172977768302,85.17132142064462,84.89934203610082,84.35887108843063,84.91346700550406
71.7773,85.9317476914347,85.00090078676973,85.6269865060163,85.34794590674493,84.82926043387992,85.3660301731966
74.707,86.17466686155733,85.27099012140359,85.89277247627798,85.60067724280289,85.07520145435443,85.62130343583809
77.6367,86.3022449849882,85.41856264867864,86.0398299556915,85.73725578531568,85.20300876194645,85.7585585775136
79.1016,86.34436194619826,85.4616757013264,86.08758008873927,85.78052400670391,85.24691997317538,85.80260712438621
82.0312,86.40860067060736,85.51663264656439,86.16140842638816,85.84238712399272,85.30394395918587,85.86544033653954
84.9609,86.46357041242193,85.58126548616156,86.23384379175133,85.89895553114299,85.34663899835165,85.92410490760597
87.8906,86.55345484064439,85.70445644002174,86.34041955289807,86.00421206756438,85.51359114689727,86.04035741072896
90.8203,86.74057258302162,85.9501275152449,86.56283955439078,86.20997368559084,85.74370695391917,86.25724268227782
95.2148,86.93994479176662,86.22320148560482,86.81128751876057,86.41763104588681,85.86234964835107,86.46846818010174
98.1445,87.03537667284313,86.3469061293609,86.92433706970054,86.51954221864416,85.96147956399558,86.5749933366472
101.074,87.13372314095007,86.45388586147128,87.03813904399942,86.60922968451138,86.03251934196277,86.67190039795747
105.469,87.31515265083621,86.6774622493332,87.2560288161905,86.78104692094789,86.08075300968747,86.8448081846395
108.398,87.46035876304832,86.85896323107652,87.40845491304712,86.94235980500132,86.25512570040708,87.00667391155483
112.793,87.56502912911262,86.9388216357535,87.50778082659697,87.04207531014848,86.47669593740984,87.12432629267514
117.188,87.64088142559517,86.96042523787884,87.5977370981263,87.06308072686896,86.40913818725052,87.15772565017444
120.117,87.98098411678298,87.3302216854656,87.96453238031955,87.4065366731772,86.64875293711557,87.4933815693972
124.512,88.31862747118636,87.70311197219387,88.31033548244811,87.76639074859186,87.14325075585523,87.87014972367953
128.906,88.53636747521828,87.9237727296553,88.55080752718395,87.96103649857974,87.3321435142108,88.08413302883103
133.301,88.75915266462327,88.14995622429912,88.80420188491671,88.1432940989463,87.29643856948074,88.26415172037049
139.16,88.9154383992013,88.31865908722366,88.94771497764769,88.3384732943343,87.5088918324898,88.43658853273381
143.555,88.91478165709393,88.27793770850373,88.96471779386526,88.27902444813215,87.50327396342425,88.41990173820015
147.949,89.41979877401988,88.80157035638375,89.50753893122089,88.74382741874282,87.78933748220255,88.89470427450914
153.809,89.65343314606255,89.11247815731534,89.76094315569281,89.0428579599347,88.24970975323143,89.19644717165487
159.668,89.54612984416282,89.04289344339743,89.66872109578465,88.92571271493013,87.93493514638082,89.06547168887093
165.527,89.57364393407408,89.03354289453104,89.70690286421532,88.83793232137667,88.01389038587561,89.07403784963533
171.387,90.05452881525747,89.52582472655978,90.2361921396388,89.21575489082899,87.87097798775247,89.45701677887764
177.246,90.12850337884043,89.64984974786529,90.30743408190472,89.41714327410368,88.36818025198573,89.62569594788475
183.105,90.33454241938077,89.8046363056761,90.5085335259431,89.58186277842027,88.44640387548695,89.79346793352586
188.965,90.30305856435193,89.80145526803041,90.52338704648531,89.53207232211759,88.53180433181709,89.79245093052047
196.289,90.4338317857932,89.91308718384391,90.66640095878083,89.61597456388068,88.49111707250682,89.88822276637997
203.613,90.118190736821,89.56593930506136,90.38575897930974,89.18764927562476,87.96644633213442,89.52391942818184
210.938,90.51246847397668,89.98156509661216,90.81580158940876,89.5516746477915,87.75989822517967,89.8467089924141
218.262,90.53770259026585,90.01661460894663,90.77881345516816,89.69270951469758,87.80714270997495,89.88317080766808
225.586,90.22010175057288,89.67198111370054,90.4828372134654,89.34176931432657,88.20758850799541,89.65488138233991
232.91,90.03767820326193,89.39093728638295,90.35742021904642,88.9637878055146,87.58947466480979,89.37058427027874
241.699,90.29251044918537,89.77195473188893,90.6708746372132,89.2408850492061,87.20917519951196,89.59147475624515
250.488,89.69932380777524,89.03577601000772,90.08183342426982,88.62433722640168,86.70396527422959,88.97593951966853
259.277,90.38973426175363,89.64218197681765,90.79737308151027,89.07642441034498,86.56754146097845,89.52158090160596
268.066,90.75160812682999,90.08008885685096,91.03670612462899,89.73311610564467,87.2730135861499,89.95746461071248
276.855,89.77737053481759,88.96280422841967,90.05227876250966,88.51108249912939,87.16570541264164,89.00927053200297
287.109,89.8098021055554,89.06521376462992,90.16688548230339,88.5094553288806,85.8379027003576,88.9161346957771
297.363,90.09585850324375,89.38530311750971,90.51875635465906,88.81687634724128,85.5517989724515,89.1780108965649
307.617,89.91929512178775,89.15023701127866,90.25386463381855,88.88924719025144,86.38986878215715,89.11040269910677
319.336,89.28632257140161,88.5471339686566,89.61678209695661,88.11909464264441,85.4990853628391,88.42972554759378
329.59,88.94784329330986,88.24831122858767,89.37316322608528,87.7643241732834,85.53914508125071,88.16133078700325
341.309,89.0616086547492,88.38004591148685,89.4261852874444,87.70951883735138,84.67918859502358,88.13502661484974
353.027,89.00461353686659,88.08419867654503,89.42896022624606,87.37983584727651,84.60791119675062,87.99505551941866
366.211,89.36353824547247,88.47134392441937,89.72444685618122,88.27150918939941,83.83752088455796,88.34944502286606
379.395,88.91761462056371,87.92811032082166,89.24255877839454,87.6684208562053,84.12509025008565,87.90012242213409
392.578,88.79546226728809,87.48555840590039,89.04262975696376,87.51595240689205,83.54078446414681,87.65045138028377
405.762,88.95557586754566,87.3380776446934,89.12455261229742,87.45607164862598,83.94017351382931,87.70834107046585
420.41,88.48568882267698,86.92342269291734,88.68269184653191,86.941009475651,82.74625696940534,87.19171163612764
435.059,88.38468901080978,86.45478241499393,88.44543375267155,86.6428657886745,82.94706463188018,86.97105636743625
451.172,87.96412624413172,86.4582517272052,88.23219026715408,86.67316244902344,81.8549637794804,86.72453176807397
465.82,87.72042437742626,86.55141430265543,88.14036191135823,86.70845323593248,81.94382761077895,86.66593655637107
483.398,88.3900385442077,86.73066594793474,88.72298062947586,86.92591352078084,83.05945148667743,87.16258014830848
499.512,88.86241034439783,86.9484334739477,89.15729779015744,87.48184043990558,83.43554502537309,87.58764084047651
517.09,89.00288468525532,87.01433077861721,89.47412515365534,87.16810444231139,82.71498758296006,87.62149624082375
536.133,88.94478250891882,86.82656088936521,89.68358667548262,87.6486693689078,83.00270717439622,87.74833423346765
555.176,89.29330346212953,87.47673686936997,89.76618352578603,87.47858681010057,82.54273162395886,87.91818460165223
574.219,89.30027664628864,87.10722890268092,90.02740998151711,87.179046899185,82.26189878681768,87.87015595246943
594.727,88.9756970164107,87.15509127448117,89.46790146749186,87.33006022286222,81.74955469220491,87.61079801545242
615.234,88.70328173414948,86.53964224935413,89.26363119631363,86.2514191083139,82.65232220644029,87.23077916691699
637.207,89.79412320016529,86.39965050698832,90.39115603148649,86.6487679542289,81.36927358899023,87.90108398097976
659.18,88.87738036660605,86.5854141985116,89.49546693453931,86.75911066430575,81.20537716903672,87.36273019654737
682.617,89.37043451636588,87.10756297645678,90.67116139897335,86.73118503915275,82.53925618746653,88.05701975847278
707.52,90.89189074441121,88.21413486654727,91.85265286077255,87.54053798529759,82.39090849388391,89.20527742543398
732.422,90.69913014296701,87.37455113054132,91.56815358672812,87.87427772432754,81.3199546657386,88.9257795588742
757.324,91.25365795901614,88.02137529305874,92.26496757792803,88.43845602755732,82.64571110833971,89.57625974525912
785.156,91.05326494563108,87.25695906594727,91.88751831142811,87.70152134860966,80.92805880223557,89.09924124576418
811.523,90.59904346595785,86.77800737996749,91.55140640302993,87.71312328583643,81.21516871604203,88.78105979556321
840.82,90.8428779427539,85.60325860781523,91.49917641712186,87.4520595359876,81.20148735471322,88.66624274059542
870.117,90.26158063045303,84.83399485871196,90.87808346325073,86.8360131530524,79.37134660862338,88.00671097002235
900.879,89.79101071806097,84.09649672958908,90.13516060103889,86.42179772377081,78.41587124364123,87.40301114302082
933.105,88.69703261198629,83.8239844861293,89.07862515516788,84.74097946243698,77.83279600103906,86.33364815024896
965.332,87.94435147559902,83.07408756280579,87.97378318282182,83.76937872680588,76.18394809968557,85.39771991810848
1000.49,87.46332978871325,82.6436581414392,87.12220310019426,82.65198889068624,75.7564268351051,84.70913799764813
1035.64,87.0422080703397,82.07183277409005,87.12072102326363,82.7154926649421,74.99482979124151,84.474643987633
1072.27,86.67767186967221,81.80962924897759,86.70879989546579,82.48522171891327,74.64805810513779,84.12325312203423
1108.89,87.663665763195,82.80428620899104,87.03657526228778,82.43776003221672,75.34899473272054,84.74118435167196
1148.44,88.8118979011221,85.0744036101486,87.28927132443621,83.05880421355313,75.53305248387075,85.69621091446348
1189.45,89.54544519222483,87.3989007299946,88.07105687957348,83.38469153531099,75.87753134326702,86.71747254585011
1230.47,89.12377241245822,88.13837758784705,87.16405027063634,83.06854214190697,75.3003344606728,86.48505482841014
1274.41,88.44025180189296,87.88917724468708,87.5173948695495,82.98363213157867,74.88033074291468,86.24791479461742
1319.82,87.85317486671313,87.8924255099231,88.07941560938363,83.12548102140616,74.28937455545581,86.23317379550662
1366.7,87.5722337504114,87.59629978851329,88.48790637852652,83.68157390754843,75.07363976927476,86.27016147939767
1413.57,87.87576116635186,87.84209776796816,88.43304108381876,83.6696721768407,74.77976824208751,86.3979661364763
1463.38,87.10816943655591,87.52797297676747,88.00706486695718,83.53912190508385,74.65133640968115,85.948051717116
1516.11,85.90395658273528,86.92341349961379,88.12916731401148,83.67679312449776,72.64078776229009,85.5227230373602
1568.85,84.91519374688937,82.564214795961,91.32916158044122,84.58563678544513,71.05711583262335,86.33235586421696
1624.51,87.74023637251894,78.47636302023771,92.5653351906288,85.05780737524537,71.15644764282854,87.4872823403435
1681.64,90.07551149873099,86.06531966177151,90.94357267588497,84.13935359276414,73.13263185381065,87.70012670753628
1741.7,90.59324113004159,87.39677034126063,89.8977195215451,83.96290581199767,73.48605334811482,87.6990767852789
1803.22,90.53435718067885,87.88285869256087,89.83246107537032,84.15785468336719,74.05750015737836,87.77164829859124
1866.21,90.16858176941464,87.8337573590172,90.4976403796618,85.14109248478688,73.94702698162719,87.95147762932463
1932.13,90.11564339319783,86.62948342929359,90.2843462958143,84.9841364795333,73.2352809937956,87.62076530668283
1999.51,89.29300795558989,86.28181911428055,89.32650396319106,83.81463335942249,72.45451932906592,86.79283405461823
2069.82,87.57393874872459,85.20553905413979,88.56295452444344,83.21032200006671,72.29321646351269,85.67782806634905
2143.07,86.79955922373809,84.08498791041208,88.43196022478662,83.0536693942042,70.74694427592952,85.17343466739254
2219.24,86.25890512139388,83.5677370433869,86.869753258812,82.04498039058069,68.96507492155162,84.16424761151724
2296.88,85.26042160721917,82.56423881732826,85.90645314319792,80.58829120097882,67.50320628314775,83.12179683862006
2378.91,84.3709291581695,81.88198497104662,86.3381419964998,80.764365653009,67.06515443112548,82.93362565118419
2462.4,84.44549765174418,81.39988903890027,86.12635750140997,80.45847233653663,67.18580674256333,82.75349854195629
2548.83,84.24326109232145,81.5019372849067,85.50783261111033,79.61253479317715,66.50726036401302,82.34704337188062
2639.65,84.15680644096584,81.35600617024129,86.20812871798363,80.26462204553526,67.49873917054138,82.67934339828818
2731.93,84.85884699350098,81.86439061876295,86.42061668449406,80.89873846775026,68.03689271005443,83.12887690611758
2828.61,85.19258137258267,82.09943260149312,86.53727221034137,81.70872088731214,69.907870390421,83.42918943295791
2928.22,85.44591492415525,81.8027377896493,86.08197901558158,82.07285783867259,70.92657686857088,83.34902220587699
3030.76,85.02852275834078,83.58230758909914,86.17649574685326,82.13746837721921,70.10221454659137,83.55991662109562
3137.7,84.1615623146981,84.14839078299305,86.04879532222097,82.00110624436168,70.48005531567878,83.39623361914026
3249.02,85.02258204330323,84.80732982218808,87.35475702788578,82.88556251654886,70.59763752203314,84.37763233892876
3363.28,86.44143397856848,84.55368202655453,88.1555659494647,83.11374597708435,69.63184823234623,85.0352387942475
3481.93,86.86430088783892,83.40030193218095,89.13657871959421,81.71928043472779,68.0150746044611,85.2612380920461
3604.98,86.09393970092172,82.2157663185136,88.4232687032243,80.61103172067307,66.39876436193047,84.43542533462242
3732.42,85.85293615776028,81.84917928813593,88.73349025804745,80.58316239774467,66.6223460548985,84.48380441503423
3864.26,85.62258065939768,81.40860011111356,88.29164985954937,80.09576321209533,66.66892368192912,84.09913064186968
4000.49,85.74275502886202,81.98375043283382,88.77573163974286,80.56823234223569,66.68634499041706,84.49046230502074
4141.11,86.3404729703298,82.08126956246875,89.28744554497273,80.98718995363369,67.97549782691439,84.97629910059294
4287.6,87.26152298253344,82.65732209304448,90.31073930315733,81.84429618972824,70.46063186299402,85.92150473327159
4438.48,87.52563892197686,82.25710531855314,90.32618902057513,83.7674997283388,72.47993992172785,86.16501200957109
4595.21,87.8263590018286,83.02208927966507,88.93284897730665,84.84182733703005,74.07145240982366,85.8418769593884
4756.35,87.32551535062187,83.13938877512047,88.59305171132851,85.60472453016284,73.98662565179764,85.70081067799896
4924.8,86.6727742012582,84.30308949289983,87.71642616484971,85.44651947116783,73.64551477356453,85.31185812743193
5097.66,85.68596859358183,84.66966838081117,87.94928344234745,86.11714806934192,73.38430828000203,85.36009262027318
5277.83,85.17512049191207,85.54619035770895,87.14720155199691,86.61284689400598,73.05839517915649,85.2762414988229
5463.87,85.89601691227219,87.42506010357978,87.53339135747912,87.44191516329009,73.18634414280982,86.19883716993895
5657.23,88.66334207763845,89.24129115382941,88.37916026141913,87.95730825001354,73.3174714069368,87.64857194889434
5856.45,90.90050543311831,90.44367285690215,89.66270620624786,88.3998758018691,72.942453372381,89.00339567198436
6062.99,91.72841990742467,90.6209735687252,89.82204628718227,88.47977453325747,72.76848963694589,89.37112222706561
6276.86,91.02949518557794,89.56647000530488,88.62762586495028,88.02356426436849,72.76900297856865,88.5185363618195
6498.05,89.40927567400045,88.10592147761935,88.78137887180648,87.34331036635656,72.6835588340709,87.53683791824348
6726.56,88.87239953381643,86.6449255826088,89.06249355448426,86.47318886680932,70.76001729146361,86.98075922890378
6963.87,88.56005643909494,85.34366313154389,88.54452716611836,85.61638867328317,69.02991252679429,86.330161697234
7209.96,88.4231565955533,84.95081781614432,88.24505187256814,85.30746851366037,66.63251358926975,86.06340932116166
7464.84,89.09261156196112,85.22990924838702,88.83615107903206,85.22790566572743,64.73273383066301,86.52444756920508
7727.05,90.1163403542645,85.75121590498473,90.02168766857118,85.45803872300891,64.57585813153388,87.42311694908472
7999.51,90.18950844769029,85.67668197644207,90.63416685495652,84.9852929841248,65.27867802662011,87.6191285183058
8282.23,88.7934832016682,83.56895767619208,89.8429372902727,82.99724374915142,63.823344733859344,86.33708324636412
8573.73,87.26927183643706,81.25430482832935,88.65667080432782,81.04068439621284,60.90096775495384,84.85434320485246
8876.95,86.36953614992684,79.3410840454883,87.85410384326883,79.52013002398101,56.920039512759715,83.87223098490838
9188.96,86.33394249253637,78.43044464663467,87.85528017823363,78.63341005515926,51.5968650350183,83.74022902648669
9514.16,87.56747270609576,79.603687537818,89.24281459818518,79.41310236240352,49.92525296069978,85.02396184075072
9849.61,88.74287105416651,80.47981082160068,90.49535359458774,80.05976980488971,54.46413527835516,86.19683755345865
