Freq,Floor Bounce,Ceiling Bounce,Front Wall Bounce,Side Wall Bounce,Rear Wall Bounce,Total Early Reflection
20.5078,49.82109961721255,42.61999294510147,46.336654153617815,46.742582345013204,47.553172142122605,47.18378899307129
21.9727,50.91695606397744,45.10465439571493,47.562471070762484,48.058988783042054,49.17199099627351,48.56790921555444
23.4375,53.409608312232706,48.49961133617927,50.88679079974173,50.99472374611,50.99463377995431,51.23315126043681
24.9023,52.92587213268814,48.41609259248665,50.08275561665849,50.237578668368144,50.58995010138773,50.701753737835645
26.3672,55.12271064283013,49.91605243443118,52.436491483974464,52.53988310631658,52.719855248376234,52.856260660752696
27.832,56.747614769721224,52.36002682800171,54.491558355866715,54.46053301964224,54.31090993341624,54.69966124416635
29.2969,58.38622904236237,54.41854559832868,56.39158811930835,56.29253444062243,55.957709283101536,56.47775919364037
30.7617,59.54588785715484,55.916160087017715,57.696459169794565,57.56996242034208,57.177908206079394,57.74253455445944
32.2266,60.829496729090806,57.58247750494641,59.14807080788782,59.008776695836445,58.590573745577615,59.16375888327781
33.6914,62.293256268106916,59.14416964155481,60.74104098123837,60.57690074427239,60.07607006233272,60.69115393797918
35.1562,63.26627263571726,60.401453520099835,61.73756624687002,61.7798495936575,61.88261050398734,61.908586176592365
36.6211,64.97438369164007,62.05326572450977,63.581284276567914,63.42401679190684,63.04100799770586,63.51921225829733
38.0859,66.50273690320125,64.27937605868695,65.41878345664804,65.21446158937306,64.71518576720439,65.2929520254747
39.5508,67.7884102407053,65.37508773274018,66.67252511433514,66.48578203133744,65.99875756076332,66.53927958861473
41.0156,68.71758907886581,66.75084844998909,67.73147016571897,67.59385648457526,67.2753822834922,67.66310391187555
42.4805,69.99863162579653,68.0482794263798,69.06128925577312,68.8967852864559,68.53814939733272,68.95773583186782
43.9453,71.20969683173837,69.23544543956662,70.30148109024236,70.09280417784021,69.59660624411637,70.14063795116736
45.4102,72.63816920528281,70.821983240895,71.83272724231591,71.60054765128905,71.04814397149947,71.63621729769415
46.875,73.83603969652978,72.17389986516639,73.10605242171886,72.86796223241747,72.27748406518509,72.8950093602649
48.3398,74.99965492483759,73.43172633409249,74.32031128166886,74.07655986299758,73.45986600551731,74.09752907950453
51.2695,76.78577225349788,75.46161693733211,76.17694165434902,76.04108049189838,75.77641895600836,76.07120191851773
52.7344,77.92022120499092,76.55675442107017,77.3065024397848,77.15394683568202,76.96185284552692,77.20315505881538
54.1992,79.19122462079184,77.83733323217061,78.63839656240376,78.37530519011625,77.83384846016631,78.40595110851966
55.6641,80.08067760596512,78.81034210644987,79.56521065833647,79.31366848607924,78.76401787884812,79.334883439483
58.5938,81.80936104407566,80.6064690563487,81.33452796156236,81.08783570667225,80.58538278992154,81.10950780191725
60.0586,82.57822188694647,81.39954000939242,82.12254749150182,81.87000357712779,81.36569363877594,81.89140252191982
62.9883,83.8810037266859,82.76848300903077,83.47108549722127,83.20928746260981,82.70828989010369,83.23002698671847
64.4531,84.37239277145225,83.29408992704724,83.99096713825864,83.70290039002205,83.14431546894578,83.72432233690793
67.3828,85.20748513434246,84.2374623132404,84.8755920664408,84.59338994784697,84.0053629849732,84.60527704140353
68.8477,85.49770303017323,84.54172977768303,85.17132142064463,84.89934203610082,84.35887108843063,84.91346700550406
71.7773,85.9317476914347,85.00090078676976,85.6269865060163,85.34794590674494,84.82926043387992,85.3660301731966
74.707,86.17466686155733,85.27099012140357,85.892772476278,85.60067724280287,85.07520145435444,85.62130343583807
77.6367,86.30224498498819,85.41856264867864,86.0398299556915,85.73725578531568,85.20300876194645,85.7585585775136
79.1016,86.34436194619826,85.4616757013264,86.08758008873929,85.78052400670391,85.24691997317538,85.80260712438621
82.0312,86.40860067060737,85.51663264656437,86.16140842638816,85.84238712399272,85.30394395918587,85.86544033653954
84.9609,86.46357041242193,85.58126548616156,86.23384379175131,85.89895553114299,85.34663899835166,85.92410490760597
87.8906,86.55345484064438,85.70445644002173,86.34041955289807,86.00421206756438,85.51359114689726,86.04035741072894
90.8203,86.74057258302162,85.9501275152449,86.56283955439079,86.20997368559084,85.74370695391917,86.25724268227782
95.2148,86.93994479176662,86.22320148560482,86.81128751876057,86.41763104588681,85.86234964835108,86.46846818010175
98.1445,87.03537667284313,86.34690612936092,86.92433706970054,86.51954221864416,85.96147956399558,86.5749933366472
101.074,87.13372314095005,86.45388586147129,87.03813904399942,86.60922968451138,86.03251934196275,86.67190039795747
105.469,87.31515265083621,86.6774622493332,87.2560288161905,86.78104692094789,86.08075300968747,86.8448081846395
108.398,87.46035876304832,86.85896323107652,87.40845491304712,86.94235980500133,86.25512570040708,87.00667391155483
112.793,87.5650291291126,86.93882163575348,87.50778082659697,87.04207531014848,86.47669593740986,87.12432629267512
117.188,87.64088142559517,86.96042523787884,87.5977370981263,87.06308072686896,86.40913818725053,87.15772565017446
120.117,87.98098411678296,87.3302216854656,87.96453238031955,87.4065366731772,86.64875293711557,87.4933815693972
124.512,88.31862747118635,87.70311197219387,88.31033548244812,87.76639074859186,87.14325075585522,87.87014972367952
128.906,88.53636747521828,87.9237727296553,88.55080752718393,87.96103649857974,87.33214351421078,88.08413302883105
133.301,88.75915266462329,88.14995622429913,88.80420188491671,88.1432940989463,87.29643856948074,88.26415172037049
139.16,88.91543839920132,88.31865908722365,88.94771497764768,88.3384732943343,87.50889183248981,88.4365885327338
143.555,88.91478165709393,88.27793770850373,88.96471779386525,88.27902444813215,87.50327396342423,88.41990173820017
147.949,89.41979877401988,88.80157035638376,89.50753893122088,88.74382741874281,87.78933748220254,88.89470427450912
153.809,89.65343314606255,89.11247815731534,89.76094315569281,89.04285795993468,88.24970975323143,89.19644717165487
159.668,89.54612984416282,89.04289344339742,89.66872109578465,88.92571271493013,87.93493514638082,89.06547168887093
165.527,89.57364393407407,89.03354289453105,89.70690286421532,88.83793232137667,88.01389038587561,89.07403784963535
171.387,90.05452881525746,89.52582472655978,90.23619213963879,89.21575489082899,87.87097798775247,89.45701677887764
177.246,90.12850337884043,89.64984974786529,90.3074340819047,89.41714327410368,88.36818025198573,89.62569594788474
183.105,90.33454241938077,89.8046363056761,90.50853352594311,89.58186277842026,88.44640387548695,89.79346793352586
188.965,90.30305856435193,89.80145526803042,90.5233870464853,89.53207232211759,88.53180433181707,89.79245093052047
196.289,90.4338317857932,89.9130871838439,90.66640095878083,89.61597456388068,88.49111707250682,89.88822276637995
203.613,90.118190736821,89.56593930506136,90.38575897930973,89.18764927562478,87.96644633213442,89.52391942818183
210.938,90.51246847397668,89.98156509661216,90.81580158940876,89.55167464779151,87.75989822517967,89.8467089924141
218.262,90.53770259026587,90.01661460894663,90.77881345516816,89.69270951469758,87.80714270997495,89.88317080766808
225.586,90.2201017505729,89.67198111370054,90.4828372134654,89.34176931432656,88.20758850799541,89.65488138233991
232.91,90.03767820326192,89.39093728638294,90.35742021904642,88.9637878055146,87.58947466480979,89.37058427027874
241.699,90.29251044918539,89.77195473188891,90.67087463721322,89.2408850492061,87.20917519951195,89.59147475624515
250.488,89.69932380777524,89.03577601000772,90.08183342426983,88.62433722640166,86.7039652742296,88.97593951966854
259.277,90.38973426175363,89.64218197681765,90.79737308151027,89.07642441034498,86.56754146097845,89.52158090160596
268.066,90.75160812682999,90.08008885685096,91.036706124629,89.73311610564467,87.2730135861499,89.95746461071249
276.855,89.7773705348176,88.96280422841969,90.05227876250966,88.5110824991294,87.16570541264164,89.00927053200297
287.109,89.8098021055554,89.06521376462992,90.16688548230339,88.50945532888062,85.8379027003576,88.9161346957771
297.363,90.09585850324373,89.38530311750971,90.51875635465906,88.81687634724128,85.55179897245148,89.1780108965649
307.617,89.91929512178775,89.15023701127868,90.25386463381855,88.88924719025144,86.38986878215715,89.11040269910677
319.336,89.2863225714016,88.5471339686566,89.61678209695663,88.1190946426444,85.49908536283908,88.42972554759376
329.59,88.94784329330986,88.24831122858765,89.37316322608528,87.7643241732834,85.53914508125071,88.16133078700327
341.309,89.0616086547492,88.38004591148683,89.42618528744441,87.70951883735138,84.67918859502358,88.13502661484975
353.027,89.0046135368666,88.08419867654501,89.42896022624605,87.3798358472765,84.6079111967506,87.99505551941864
366.211,89.36353824547248,88.47134392441939,89.72444685618123,88.2715091893994,83.83752088455796,88.34944502286606
379.395,88.91761462056371,87.92811032082166,89.24255877839454,87.6684208562053,84.12509025008565,87.90012242213409
392.578,88.79546226728809,87.48555840590038,89.04262975696378,87.51595240689207,83.54078446414681,87.65045138028378
405.762,88.95557586754566,87.33807764469341,89.12455261229742,87.456071648626,83.94017351382931,87.70834107046585
420.41,88.48568882267699,86.92342269291733,88.68269184653191,86.941009475651,82.74625696940534,87.19171163612762
435.059,88.38468901080978,86.45478241499391,88.44543375267155,86.64286578867448,82.94706463188018,86.97105636743625
451.172,87.96412624413173,86.45825172720518,88.23219026715408,86.67316244902344,81.85496377948041,86.72453176807397
465.82,87.72042437742627,86.55141430265544,88.14036191135821,86.70845323593247,81.94382761077895,86.66593655637105
483.398,88.3900385442077,86.73066594793472,88.72298062947587,86.92591352078084,83.05945148667743,87.16258014830848
499.512,88.86241034439783,86.9484334739477,89.15729779015744,87.48184043990558,83.43554502537307,87.58764084047651
517.09,89.00288468525531,87.01433077861722,89.47412515365534,87.16810444231139,82.71498758296005,87.62149624082375
536.133,88.94478250891882,86.82656088936521,89.6835866754826,87.6486693689078,83.00270717439622,87.74833423346765
555.176,89.29330346212951,87.47673686936997,89.76618352578602,87.47858681010055,82.54273162395886,87.91818460165221
574.219,89.30027664628864,87.10722890268092,90.02740998151711,87.179046899185,82.26189878681767,87.87015595246943
594.727,88.9756970164107,87.15509127448117,89.46790146749186,87.3300602228622,81.74955469220492,87.6107980154524
615.234,88.7032817341495,86.53964224935412,89.26363119631363,86.2514191083139,82.65232220644029,87.23077916691699
637.207,89.7941232001653,86.39965050698834,90.39115603148647,86.6487679542289,81.36927358899021,87.90108398097975
659.18,88.87738036660603,86.58541419851159,89.49546693453931,86.75911066430575,81.20537716903672,87.36273019654736
682.617,89.37043451636588,87.10756297645678,90.67116139897337,86.73118503915276,82.53925618746653,88.05701975847279
707.52,90.89189074441123,88.21413486654728,91.85265286077255,87.54053798529759,82.39090849388391,89.20527742543399
732.422,90.69913014296702,87.37455113054133,91.56815358672813,87.87427772432754,81.31995466573859,88.9257795588742
757.324,91.25365795901615,88.02137529305875,92.26496757792803,88.43845602755732,82.64571110833971,89.57625974525912
785.156,91.0532649456311,87.25695906594726,91.88751831142811,87.70152134860966,80.92805880223557,89.09924124576416
811.523,90.59904346595786,86.77800737996748,91.55140640302993,87.71312328583643,81.21516871604203,88.78105979556321
840.82,90.84287794275389,85.60325860781523,91.49917641712187,87.4520595359876,81.20148735471322,88.66624274059542
870.117,90.26158063045301,84.83399485871197,90.87808346325073,86.8360131530524,79.37134660862338,88.00671097002237
900.879,89.79101071806099,84.09649672958906,90.13516060103888,86.42179772377081,78.41587124364125,87.4030111430208
933.105,88.69703261198629,83.82398448612932,89.07862515516788,84.74097946243698,77.83279600103906,86.33364815024896
965.332,87.944351475599,83.0740875628058,87.97378318282182,83.76937872680588,76.18394809968555,85.39771991810846
1000.49,87.46332978871325,82.6436581414392,87.12220310019427,82.65198889068624,75.7564268351051,84.70913799764813
1035.64,87.04220807033971,82.07183277409004,87.12072102326363,82.7154926649421,74.99482979124153,84.47464398763302
1072.27,86.67767186967221,81.80962924897759,86.70879989546579,82.48522171891325,74.6480581051378,84.12325312203423
1108.89,87.663665763195,82.80428620899103,87.03657526228778,82.43776003221672,75.34899473272054,84.74118435167196
1148.44,88.81189790112208,85.0744036101486,87.28927132443621,83.05880421355313,75.53305248387073,85.69621091446346
1189.45,89.54544519222483,87.39890072999458,88.07105687957346,83.38469153531099,75.87753134326704,86.7174725458501
1230.47,89.12377241245822,88.13837758784705,87.16405027063634,83.06854214190697,75.3003344606728,86.48505482841014
1274.41,88.44025180189296,87.88917724468708,87.5173948695495,82.98363213157867,74.88033074291467,86.2479147946174
1319.82,87.85317486671313,87.8924255099231,88.07941560938363,83.12548102140615,74.28937455545581,86.23317379550662
1366.7,87.57223375041139,87.5962997885133,88.4879063785265,83.68157390754843,75.07363976927476,86.27016147939767
1413.57,87.87576116635188,87.84209776796814,88.43304108381876,83.66967217684072,74.77976824208753,86.39796613647628
1463.38,87.10816943655591,87.52797297676747,88.00706486695718,83.53912190508385,74.65133640968115,85.948051717116
1516.11,85.90395658273528,86.92341349961377,88.12916731401148,83.67679312449776,72.64078776229009,85.52272303736018
1568.85,84.91519374688937,82.564214795961,91.32916158044122,84.58563678544512,71.05711583262335,86.33235586421696
1624.51,87.74023637251892,78.47636302023773,92.5653351906288,85.05780737524537,71.15644764282854,87.48728234034348
1681.64,90.07551149873099,86.06531966177153,90.94357267588495,84.13935359276414,73.13263185381064,87.7001267075363
1741.7,90.59324113004158,87.39677034126063,89.8977195215451,83.96290581199766,73.48605334811482,87.69907678527889
1803.22,90.53435718067884,87.88285869256087,89.83246107537032,84.15785468336719,74.05750015737837,87.77164829859123
1866.21,90.16858176941464,87.8337573590172,90.4976403796618,85.1410924847869,73.94702698162719,87.95147762932463
1932.13,90.11564339319781,86.62948342929359,90.28434629581429,84.9841364795333,73.2352809937956,87.62076530668283
1999.51,89.29300795558989,86.28181911428054,89.32650396319106,83.81463335942249,72.45451932906592,86.79283405461823
2069.82,87.57393874872457,85.20553905413979,88.56295452444343,83.21032200006671,72.29321646351269,85.67782806634904
2143.07,86.79955922373809,84.08498791041208,88.43196022478662,83.0536693942042,70.74694427592954,85.17343466739254
2219.24,86.25890512139388,83.56773704338688,86.86975325881201,82.04498039058069,68.96507492155162,84.16424761151723
2296.88,85.26042160721917,82.56423881732826,85.90645314319792,80.58829120097883,67.50320628314776,83.12179683862007
2378.91,84.3709291581695,81.88198497104662,86.33814199649979,80.764365653009,67.06515443112548,82.93362565118417
2462.4,84.44549765174416,81.39988903890028,86.12635750140997,80.45847233653662,67.18580674256332,82.75349854195628
2548.83,84.24326109232145,81.50193728490672,85.50783261111032,79.61253479317715,66.50726036401304,82.34704337188063
2639.65,84.15680644096584,81.35600617024129,86.20812871798364,80.26462204553526,67.4987391705414,82.67934339828818
2731.93,84.85884699350098,81.86439061876295,86.42061668449406,80.89873846775026,68.03689271005442,83.1288769061176
2828.61,85.19258137258265,82.09943260149312,86.53727221034137,81.70872088731213,69.907870390421,83.4291894329579
2928.22,85.44591492415523,81.80273778964931,86.08197901558158,82.07285783867258,70.92657686857089,83.34902220587699
3030.76,85.02852275834078,83.58230758909914,86.17649574685325,82.1374683772192,70.10221454659136,83.55991662109561
3137.7,84.1615623146981,84.14839078299305,86.04879532222097,82.00110624436168,70.48005531567878,83.39623361914026
3249.02,85.02258204330323,84.80732982218808,87.35475702788578,82.88556251654886,70.59763752203314,84.37763233892876
3363.28,86.44143397856848,84.55368202655453,88.15556594946472,83.11374597708433,69.63184823234621,85.0352387942475
3481.93,86.86430088783894,83.40030193218095,89.13657871959421,81.71928043472779,68.01507460446112,85.2612380920461
3604.98,86.09393970092171,82.21576631851359,88.4232687032243,80.61103172067307,66.39876436193046,84.43542533462244
3732.42,85.85293615776028,81.84917928813593,88.73349025804745,80.58316239774467,66.62234605489851,84.48380441503423
3864.26,85.62258065939768,81.40860011111354,88.29164985954935,80.09576321209532,66.66892368192913,84.09913064186968
4000.49,85.742755028862,81.9837504328338,88.77573163974286,80.56823234223569,66.68634499041707,84.49046230502074
4141.11,86.3404729703298,82.08126956246875,89.28744554497273,80.98718995363367,67.97549782691439,84.97629910059294
4287.6,87.26152298253344,82.65732209304448,90.31073930315733,81.84429618972824,70.46063186299402,85.9215047332716
4438.48,87.52563892197686,82.25710531855313,90.32618902057513,83.7674997283388,72.47993992172785,86.16501200957109
4595.21,87.82635900182862,83.02208927966507,88.93284897730666,84.84182733703005,74.07145240982368,85.8418769593884
4756.35,87.32551535062187,83.13938877512047,88.5930517113285,85.60472453016284,73.98662565179762,85.70081067799896
4924.8,86.67277420125822,84.30308949289983,87.71642616484971,85.44651947116785,73.64551477356453,85.31185812743193
5097.66,85.68596859358183,84.66966838081116,87.94928344234745,86.11714806934192,73.38430828000203,85.36009262027318
5277.83,85.17512049191207,85.54619035770895,87.14720155199691,86.61284689400598,73.05839517915649,85.2762414988229
5463.87,85.89601691227217,87.42506010357977,87.53339135747912,87.4419151632901,73.18634414280982,86.19883716993897
5657.23,88.66334207763845,89.24129115382941,88.37916026141913,87.95730825001354,73.3174714069368,87.64857194889434
5856.45,90.9005054331183,90.44367285690215,89.66270620624786,88.3998758018691,72.942453372381,89.00339567198435
6062.99,91.72841990742467,90.62097356872522,89.82204628718227,88.47977453325748,72.7684896369459,89.37112222706561
6276.86,91.02949518557794,89.5664700053049,88.62762586495028,88.02356426436849,72.76900297856865,88.51853636181951
6498.05,89.40927567400047,88.10592147761933,88.78137887180647,87.34331036635656,72.68355883407091,87.53683791824346
6726.56,88.87239953381643,86.64492558260879,89.06249355448426,86.47318886680932,70.76001729146361,86.98075922890378
6963.87,88.56005643909494,85.34366313154389,88.54452716611836,85.61638867328315,69.02991252679429,86.330161697234
7209.96,88.4231565955533,84.95081781614432,88.24505187256814,85.30746851366035,66.63251358926976,86.06340932116166
7464.84,89.09261156196112,85.229909248387,88.83615107903205,85.22790566572742,64.73273383066302,86.52444756920508
7727.05,90.1163403542645,85.75121590498473,90.02168766857116,85.4580387230089,64.57585813153386,87.4231169490847
7999.51,90.18950844769027,85.67668197644205,90.63416685495653,84.9852929841248,65.27867802662013,87.61912851830581
8282.23,88.79348320166821,83.56895767619207,89.84293729027272,82.99724374915144,63.82334473385936,86.33708324636412
8573.73,87.26927183643706,81.25430482832935,88.65667080432782,81.04068439621284,60.900967754953825,84.85434320485246
8876.95,86.36953614992686,79.34108404548832,87.85410384326883,79.520130023981,56.92003951275973,83.87223098490838
9188.96,86.33394249253637,78.43044464663467,87.85528017823363,78.63341005515926,51.59686503501831,83.7402290264867
9514.16,87.56747270609576,79.60368753781802,89.24281459818518,79.41310236240352,49.925252960699794,85.02396184075072
