Freq,Floor Bounce,Ceiling Bounce,Front Wall Bounce,Side Wall Bounce,Rear Wall Bounce,Total Early Reflection
20.5078,50.327098102061,43.12599142994995,46.84265263846629,47.24858082986168,48.05917062697111,47.689787477919765
21.9727,51.42295454882594,45.610652880563464,48.06846955561099,48.56498726789056,49.67798948112198,49.07390770040294
23.4375,53.91560679708118,49.00560982102775,51.39278928459021,51.50072223095847,51.50063226480279,51.73914974528529
24.9023,53.43187061753662,48.922091077335125,50.588754101506964,50.74357715321662,51.09594858623623,51.20775222268412
26.3672,55.628709127678604,50.422050919279684,52.94248996882297,53.045881591165056,53.22585373322471,53.36225914560117
27.832,57.25361325456973,52.86602531285021,54.99755684071519,54.96653150449072,54.816908418264745,55.205659729014826
29.2969,58.89222752721088,54.92454408317715,56.89758660415683,56.79853292547091,56.46370776795001,56.98375767848884
30.7617,60.05188634200334,56.42215857186622,58.20245765464301,58.075960905190556,57.6839066909279,58.248533039307944
32.2266,61.33549521393928,58.088475989794915,59.654069292736324,59.51477518068495,59.09657223042609,59.669757368126284
33.6914,62.79925475295542,59.65016812640329,61.24703946608682,61.08289922912087,60.58206854718122,61.197152422827656
35.1562,63.77227112056573,60.90745200494831,62.24356473171849,62.28584807850598,62.38860898883581,62.41458466144084
36.6211,65.48038217648858,62.559264209358275,64.08728276141642,63.93001527675534,63.547006482554366,64.02521074314583
38.0859,67.00873538804974,64.78537454353543,65.92478194149652,65.72046007422153,65.22118425205286,65.79895051032321
39.5508,68.29440872555378,65.88108621758869,67.17852359918363,66.99178051618594,66.5047560456118,67.04527807346321
41.0156,69.22358756371429,67.25684693483758,68.23746865056745,68.09985496942375,67.7813807683407,68.16910239672404
42.4805,70.50463011064502,68.5542779112283,69.56728774062161,69.40278377130437,69.0441478821812,69.46373431671631
43.9453,71.71569531658687,69.74144392441511,70.80747957509085,70.59880266268868,70.10260472896486,70.64663643601587
45.4102,73.1441676901313,71.32798172574348,72.3387257271644,72.10654613613752,71.55414245634796,72.14221578254264
46.875,74.34203818137827,72.67989835001488,73.61205090656735,73.37396071726596,72.7834825500336,73.40100784511338
48.3398,75.50565340968608,73.93772481894098,74.82630976651735,74.58255834784606,73.9658644903658,74.60352756435302
51.2695,77.29177073834637,75.96761542218059,76.68294013919751,76.54707897674689,76.28241744085685,76.57720040336623
52.7344,78.4262196898394,77.06275290591866,77.81250092463328,77.65994532053051,77.4678513303754,77.70915354366386
54.1992,79.69722310564033,78.3433317170191,79.14439504725225,78.88130367496474,78.33984694501478,78.91194959336815
55.6641,80.5866760908136,79.31634059129836,80.07120914318496,79.81966697092773,79.27001636369661,79.84088192433148
58.5938,82.31535952892415,81.11246754119719,81.84052644641085,81.59383419152074,81.09138127477001,81.61550628676574
60.0586,83.08422037179494,81.90553849424091,82.62854597635032,82.37600206197628,81.87169212362443,82.3974010067683
62.9883,84.38700221153441,83.27448149387928,83.97708398206976,83.7152859474583,83.21428837495216,83.73602547156696
64.4531,84.87839125630074,83.80008841189573,84.49696562310712,84.20889887487054,83.65031395379428,84.23032082175642
67.3828,85.71348361919095,84.74346079808888,85.38159055128929,85.09938843269546,84.51136146982171,85.11127552625202
68.8477,86.00370151502172,85.0477282625315,85.6773199054931,85.40534052094931,84.86486957327912,85.41946549035255
71.7773,86.43774617628318,85.50689927161822,86.13298499086478,85.85394439159342,85.33525891872841,85.8720286580451
74.707,86.68066534640582,85.77698860625208,86.39877096112647,86.10667572765138,85.58119993920292,86.12730192068658
77.6367,86.8082434698367,85.92456113352713,86.54582844053999,86.24325427016417,85.70900724679494,86.26455706236209
79.1016,86.85036043104675,85.96767418617489,86.59357857358776,86.2865224915524,85.75291845802387,86.3086056092347
82.0312,86.91459915545585,86.02263113141288,86.66740691123665,86.34838560884121,85.80994244403436,86.37143882138803
84.9609,86.96956889727042,86.08726397101005,86.73984227659982,86.40495401599148,85.85263748320014,86.43010339245446
87.8906,87.05945332549288,86.21045492487023,86.84641803774656,86.51021055241287,86.01958963174576,86.54635589557745
90.8203,87.24657106787011,86.45612600009339,87.06883803923927,86.71597217043933,86.24970543876766,86.76324116712631
95.2148,87.44594327661511,86.72919997045331,87.31728600360906,86.9236295307353,86.36834813319956,86.97446666495023
98.1445,87.54137515769162,86.8529046142094,87.43033555454903,87.02554070349265,86.46747804884407,87.08099182149569
101.074,87.63972162579856,86.95988434631977,87.54413752884791,87.11522816935987,86.53851782681126,87.17789888280596
105.469,87.8211511356847,87.1834607341817,87.76202730103898,87.28704540579638,86.58675149453596,87.350806669488
108.398,87.96635724789681,87.364961715925,87.91445339789561,87.4483582898498,86.76112418525557,87.51267239640332
112.793,88.0710276139611,87.44482012060199,88.01377931144546,87.54807379499697,86.98269442225833,87.63032477752363
117.188,88.14687991044366,87.46642372272733,88.10373558297479,87.56907921171745,86.91513667209901,87.66372413502293
120.117,88.48698260163147,87.83622017031409,88.47053086516804,87.91253515802569,87.15475142196406,87.99938005424569
124.512,88.82462595603485,88.20911045704236,88.8163339672966,88.27238923344035,87.64924924070372,88.37614820852802
128.906,89.04236596006677,88.42977121450379,89.05680601203244,88.46703498342823,87.83814199905929,88.59013151367952
133.301,89.26515114947176,88.65595470914761,89.3102003697652,88.64929258379479,87.80243705432923,88.77015020521898
139.16,89.4214368840498,88.82465757207216,89.45371346249618,88.8444717791828,88.01489031733828,88.9425870175823
143.555,89.42078014194242,88.78393619335222,89.47071627871375,88.78502293298064,88.00927244827274,88.92590022304864
147.949,89.92579725886837,89.30756884123224,90.01353741606938,89.24982590359132,88.29533596705105,89.40070275935763
153.809,90.15943163091104,89.61847664216383,90.2669416405413,89.54885644478318,88.75570823807992,89.70244565650336
159.668,90.05212832901131,89.54889192824592,90.17471958063314,89.43171119977862,88.44093363122931,89.57147017371942
165.527,90.07964241892257,89.53954137937953,90.21290134906381,89.34393080622516,88.5198888707241,89.58003633448382
171.387,90.56052730010596,90.03182321140827,90.74219062448729,89.72175337567748,88.37697647260096,89.96301526372613
177.246,90.63450186368893,90.15584823271378,90.8134325667532,89.92314175895217,88.87417873683422,90.13169443273324
183.105,90.84054090422926,90.31063479052459,91.01453201079158,90.08786126326876,88.95240236033544,90.29946641837435
188.965,90.80905704920042,90.3074537528789,91.0293855313338,90.03807080696608,89.03780281666558,90.29844941536896
196.289,90.93983027064169,90.4190856686924,91.17239944362932,90.12197304872917,88.99711555735531,90.39422125122846
203.613,90.6241892216695,90.07193778990985,90.89175746415823,89.69364776047325,88.47244481698291,90.02991791303033
210.938,91.01846695882517,90.48756358146065,91.32180007425725,90.05767313263999,88.26589671002816,90.35270747726258
218.262,91.04370107511434,90.52261309379512,91.28481194001665,90.19870799954607,88.31314119482344,90.38916929251657
225.586,90.72610023542137,90.17797959854903,90.98883569831389,89.84776779917506,88.7135869928439,90.1608798671884
232.91,90.54367668811042,89.89693577123144,90.86341870389491,89.46978629036309,88.09547314965828,89.87658275512723
241.699,90.79850893403386,90.27795321673742,91.17687312206169,89.74688353405459,87.71517368436045,90.09747324109364
250.488,90.20532229262373,89.54177449485621,90.58783190911831,89.13033571125017,87.20996375907808,89.48193800451702
259.277,90.89573274660212,90.14818046166614,91.30337156635876,89.58242289519347,87.07353994582694,90.02757938645445
268.066,91.25760661167848,90.58608734169945,91.54270460947748,90.23911459049316,87.77901207099839,90.46346309556097
276.855,90.28336901966608,89.46880271326816,90.55827724735815,89.01708098397788,87.67170389749013,89.51526901685146
287.109,90.3158005904039,89.5712122494784,90.67288396715188,89.0154538137291,86.3439011852061,89.4221331806256
297.363,90.60185698809224,89.8913016023582,91.02475483950755,89.32287483208977,86.05779745729998,89.68400938141339
307.617,90.42529360663625,89.65623549612715,90.75986311866704,89.39524567509993,86.89586726700564,89.61640118395526
319.336,89.7923210562501,89.05313245350509,90.1227805818051,88.6250931274929,86.00508384768759,88.93572403244227
329.59,89.45384177815835,88.75430971343616,89.87916171093377,88.27032265813189,86.0451435660992,88.66732927185174
341.309,89.56760713959768,88.88604439633534,89.93218377229289,88.21551732219987,85.18518707987207,88.64102509969823
353.027,89.51061202171508,88.59019716139352,89.93495871109455,87.885834332125,85.11390968159911,88.50105400426715
366.211,89.86953673032096,88.97734240926786,90.23044534102971,88.7775076742479,84.34351936940645,88.85544350771455
379.395,89.4236131054122,88.43410880567015,89.74855726324303,88.17441934105379,84.63108873493414,88.40612090698258
392.578,89.30146075213658,87.99155689074888,89.54862824181225,88.02195089174054,84.0467829489953,88.15644986513226
405.762,89.46157435239415,87.84407612954189,89.63055109714591,87.96207013347447,84.4461719986778,88.21433955531434
420.41,88.99168730752547,87.42942117776583,89.1886903313804,87.44700796049949,83.25225545425383,87.69771012097613
435.059,88.89068749565827,86.96078089984242,88.95143223752004,87.14886427352299,83.45306311672867,87.47705485228474
451.172,88.47012472898021,86.96425021205368,88.73818875200257,87.17916093387193,82.36096226432889,87.23053025292246
465.82,88.22642286227475,87.05741278750392,88.64636039620672,87.21445172078097,82.44982609562744,87.17193504121956
483.398,88.89603702905619,87.23666443278323,89.22897911432435,87.43191200562933,83.56544997152592,87.66857863315697
499.512,89.36840882924632,87.45443195879619,89.66329627500593,87.98783892475407,83.94154351022158,88.093639325325
517.09,89.50888317010381,87.5203292634657,89.98012363850383,87.67410292715988,83.22098606780855,88.12749472567224
536.133,89.45078099376731,87.3325593742137,90.1895851603311,88.1546678537563,83.50870565924471,88.25433271831614
555.176,89.79930194697802,87.98273535421846,90.27218201063452,87.98458529494906,83.04873010880735,88.42418308650072
574.219,89.80627513113713,87.6132273875294,90.5334084663656,87.68504538403349,82.76789727166617,88.37615443731792
594.727,89.4816955012592,87.66108975932966,89.97389995234035,87.8360587077107,82.2555531770534,88.11679650030091
615.234,89.20928021899797,87.04564073420262,89.76962968116212,86.75741759316239,83.15832069128878,87.73677765176548
637.207,90.30012168501378,86.90564899183681,90.89715451633498,87.15476643907739,81.87527207383872,88.40708246582825
659.18,89.38337885145454,87.09141268336009,90.0014654193878,87.26510914915424,81.71137565388521,87.86872868139587
682.617,89.87643300121437,87.61356146130527,91.17715988382184,87.23718352400124,83.04525467231502,88.56301824332127
707.52,91.3978892292597,88.72013335139576,92.35865134562104,88.04653647014608,82.8969069787324,89.71127591028247
732.422,91.2051286278155,87.88054961538981,92.0741520715766,88.38027620917603,81.8259531505871,89.43177804372269
757.324,91.75965644386463,88.52737377790723,92.77096606277652,88.94445451240581,83.1517095931882,90.08225823010761
785.156,91.55926343047958,87.76295755079576,92.3935167962766,88.20751983345815,81.43405728708406,89.60523973061267
811.523,91.10504195080634,87.28400586481598,92.05740488787842,88.21912177068492,81.72116720089052,89.2870582804117
840.82,91.34887642760239,86.10925709266373,92.00517490197035,87.95805802083609,81.70748583956171,89.17224122544391
870.117,90.76757911530152,85.33999334356045,91.38408194809922,87.3420116379009,79.87734509347187,88.51270945487084
900.879,90.29700920290946,84.60249521443757,90.64115908588738,86.9277962086193,78.92186972848972,87.90900962786931
933.105,89.20303109683478,84.3299829709778,89.58462364001637,85.24697794728547,78.33879448588755,86.83964663509745
965.332,88.45034996044751,83.58008604765428,88.47978166767031,84.27537721165437,76.68994658453406,85.90371840295697
1000.49,87.96932827356174,83.1496566262877,87.62820158504275,83.15798737553473,76.26242531995359,85.21513648249662
1035.64,87.54820655518819,82.57783125893855,87.62671950811212,83.2214911497906,75.50082827609,84.98064247248149
1072.27,87.1836703545207,82.31562773382608,87.21479838031428,82.99122020376176,75.15405658998628,84.62925160688272
1108.89,88.16966424804349,83.31028469383953,87.54257374713627,82.9437585170652,75.85499321756903,85.24718283652045
1148.44,89.31789638597058,85.58040209499708,87.7952698092847,83.56480269840162,76.03905096871924,86.20220939931197
1189.45,90.05144367707332,87.90489921484308,88.57705536442197,83.89069002015948,76.38352982811551,87.2234710306986
1230.47,89.62977089730671,88.64437607269554,87.67004875548483,83.57454062675546,75.80633294552129,86.99105331325863
1274.41,88.94625028674145,88.39517572953557,88.023393354398,83.48963061642716,75.38632922776317,86.7539132794659
1319.82,88.35917335156162,88.39842399477159,88.58541409423212,83.63147950625465,74.7953730403043,86.7391722803551
1366.7,88.07823223525989,88.10229827336178,88.99390486337501,84.18757239239692,75.57963825412325,86.77615996424616
1413.57,88.38175965120035,88.34809625281665,88.93903956866725,84.1756706616892,75.285766726936,86.90396462132479
1463.38,87.6141679214044,88.03397146161596,88.51306335180567,84.04512038993234,75.15733489452964,86.45405020196449
1516.11,86.40995506758377,87.42941198446228,88.63516579885997,84.18279160934625,73.14678624713858,86.02872152220868
1568.85,85.42119223173786,83.0702132808095,91.83516006528971,85.09163527029362,71.56311431747184,86.83835434906545
1624.51,88.24623485736743,78.9823615050862,93.07133367547729,85.56380586009386,71.66244612767703,87.99328082519199
1681.64,90.58150998357948,86.57131814662,91.44957116073346,84.64535207761263,73.63863033865914,88.20612519238477
1741.7,91.09923961489008,87.90276882610912,90.40371800639359,84.46890429684616,73.99205183296331,88.2050752701274
1803.22,91.04035566552734,88.38885717740936,90.33845956021881,84.66385316821568,74.56349864222685,88.27764678343974
1866.21,90.67458025426313,88.33975584386569,91.0036388645103,85.64709096963537,74.45302546647568,88.45747611417312
1932.13,90.62164187804632,87.13548191414208,90.79034478066279,85.4901349643818,73.74127947864409,88.12676379153132
1999.51,89.79900644043838,86.78781759912904,89.83250244803955,84.32063184427098,72.96051781391441,87.29883253946672
2069.82,88.07993723357308,85.71153753898828,89.06895300929193,83.7163204849152,72.79921494836118,86.18382655119754
2143.07,87.30555770858658,84.59098639526057,88.93795870963511,83.5596678790527,71.25294276077801,85.67943315224103
2219.24,86.76490360624237,84.07373552823539,87.37575174366049,82.55097887542918,69.47107340640011,84.67024609636573
2296.88,85.76642009206766,83.07023730217675,86.41245162804641,81.0942896858273,68.00920476799624,83.62779532346855
2378.91,84.87692764301799,82.38798345589511,86.84414048134829,81.27036413785748,67.57115291597397,83.43962413603268
2462.4,84.95149613659267,81.90588752374876,86.63235598625846,80.96447082138512,67.69180522741182,83.25949702680478
2548.83,84.74925957716994,82.00793576975519,86.01383109595882,80.11853327802564,67.01325884886151,82.8530418567291
2639.65,84.66280492581433,81.86200465508978,86.71412720283212,80.77062053038375,68.00473765538987,83.18534188313667
2731.93,85.36484547834947,82.37038910361144,86.92661516934255,81.40473695259875,68.54289119490292,83.63487539096607
2828.61,85.69857985743116,82.60543108634161,87.04327069518986,82.21471937216063,70.41386887526949,83.9351879178064
2928.22,85.95191340900374,82.30873627449779,86.58797750043007,82.57885632352108,71.43257535341937,83.85502069072548
3030.76,85.53452124318927,84.08830607394763,86.68249423170175,82.6434668620677,70.60821303143986,84.06591510594411
3137.7,84.66756079954659,84.65438926784154,86.55479380706946,82.50710472921017,70.98605380052727,83.90223210398875
3249.02,85.52858052815172,85.31332830703657,87.86075551273427,83.39156100139735,71.10363600688163,84.88363082377725
3363.28,86.94743246341697,85.05968051140302,88.66156443431319,83.61974446193284,70.13784671719472,85.541237279096
3481.93,87.37029937268741,83.90630041702944,89.6425772044427,82.22527891957628,68.5210730893096,85.76723657689459
3604.98,86.59993818577021,82.72176480336209,88.92926718807279,81.11703020552156,66.90476284677897,84.94142381947091
3732.42,86.35893464260877,82.35517777298442,89.23948874289594,81.08916088259316,67.12834453974699,84.98980289988272
3864.26,86.12857914424617,81.91459859596205,88.79764834439786,80.60176169694383,67.1749221667776,84.60512912671817
4000.49,86.24875351371051,82.4897489176823,89.28173012459135,81.07423082708418,67.19234347526555,84.99646078986923
4141.11,86.84647145517829,82.58726804731724,89.79344402982122,81.49318843848218,68.48149631176288,85.48229758544143
4287.6,87.76752146738193,83.16332057789297,90.81673778800582,82.35029467457673,70.96663034784251,86.42750321812008
4438.48,88.03163740682535,82.76310380340163,90.83218750542362,84.2734982131873,72.98593840657634,86.67101049441958
4595.21,88.3323574866771,83.52808776451356,89.43884746215514,85.34782582187854,74.57745089467215,86.34787544423689
4756.35,87.83151383547036,83.64538725996896,89.099050196177,86.11072301501133,74.49262413664613,86.20680916284745
4924.8,87.1787726861067,84.80908797774832,88.2224246496982,85.95251795601632,74.15151325841302,85.81785661228042
5097.66,86.19196707843032,85.17566686565966,88.45528192719594,86.62314655419041,73.89030676485052,85.86609110512167
5277.83,85.68111897676056,86.05218884255744,87.6532000368454,87.11884537885447,73.56439366400498,85.78223998367139
5463.87,86.40201539712068,87.93105858842827,88.03938984232761,87.94791364813858,73.6923426276583,86.70483565478744
5657.23,89.16934056248694,89.7472896386779,88.88515874626762,88.46330673486203,73.8234698917853,88.15457043374283
5856.45,91.4065039179668,90.94967134175064,90.16870469109635,88.90587428671759,73.44845185722949,89.50939415683285
6062.99,92.23441839227316,91.1269720535737,90.32804477203076,88.98577301810596,73.27448812179438,89.8771207119141
6276.86,91.53549367042643,90.07246849015337,89.13362434979877,88.52956274921698,73.27500146341714,89.02453484666799
6498.05,89.91527415884894,88.61191996246784,89.28737735665497,87.84930885120505,73.18955731891938,88.04283640309197
6726.56,89.37839801866492,87.1509240674573,89.56849203933275,86.97918735165781,71.2660157763121,87.48675771375227
6963.87,89.06605492394343,85.84966161639238,89.05052565096685,86.12238715813166,69.53591101164278,86.8361601820825
7209.96,88.92915508040178,85.45681630099281,88.75105035741663,85.81346699850886,67.13851207411824,86.56940780601015
7464.84,89.59861004680961,85.7359077332355,89.34214956388055,85.73390415057592,65.2387323155115,87.03044605405357
7727.05,90.62233883911298,86.25721438983322,90.52768615341967,85.9640372078574,65.08185661638237,87.9291154339332
7999.51,90.69550693253878,86.18268046129056,91.14016533980501,85.49129146897329,65.7846765114686,88.12512700315429
8282.23,89.29948168651669,84.07495616104057,90.34893577512119,83.50324223399991,64.32934321870783,86.8430817312126
8573.73,87.77527032128555,81.76030331317784,89.1626692891763,81.54668288106133,61.40696623980233,85.36034168970095
8876.95,86.87553463477533,79.84708253033679,88.36010232811732,80.0261285088295,57.426037997608205,84.37822946975687
9188.96,86.83994097738486,78.93644313148316,88.36127866308212,79.13940854000775,52.10286351986679,84.24622751133518
9514.16,88.07347119094425,80.1096860226665,89.74881308303367,79.91910084725201,50.43125144554827,85.5299603255992
