Freq "Floor Bounce"
20.5078 50.327098102061
21.9727 51.42295454882594
23.4375 53.91560679708118
24.9023 53.43187061753662
26.3672 55.628709127678604
27.832 57.25361325456973
29.2969 58.89222752721088
30.7617 60.05188634200334
32.2266 61.33549521393928
33.6914 62.79925475295542
35.1562 63.77227112056573
36.6211 65.48038217648858
38.0859 67.00873538804974
39.5508 68.29440872555378
41.0156 69.22358756371429
42.4805 70.50463011064502
43.9453 71.71569531658687
45.4102 73.1441676901313
46.875 74.34203818137827
48.3398 75.50565340968608
51.2695 77.29177073834637
52.7344 78.4262196898394
54.1992 79.69722310564033
55.6641 80.5866760908136
58.5938 82.31535952892415
60.0586 83.08422037179494
62.9883 84.38700221153441
64.4531 84.87839125630074
67.3828 85.71348361919095
68.8477 86.00370151502172
71.7773 86.43774617628318
74.707 86.68066534640582
77.6367 86.8082434698367
79.1016 86.85036043104675
82.0312 86.91459915545585
84.9609 86.96956889727042
87.8906 87.05945332549288
90.8203 87.24657106787011
95.2148 87.44594327661511
98.1445 87.54137515769162
101.074 87.63972162579856
105.469 87.8211511356847
108.398 87.96635724789681
112.793 88.0710276139611
117.188 88.14687991044366
120.117 88.48698260163147
124.512 88.82462595603485
128.906 89.04236596006677
133.301 89.26515114947176
139.16 89.4214368840498
143.555 89.42078014194242
147.949 89.92579725886837
153.809 90.15943163091104
159.668 90.05212832901131
165.527 90.07964241892257
171.387 90.56052730010596
177.246 90.63450186368893
183.105 90.84054090422926
188.965 90.80905704920042
196.289 90.93983027064169
203.613 90.6241892216695
210.938 91.01846695882517
218.262 91.04370107511434
225.586 90.72610023542137
232.91 90.54367668811042
241.699 90.79850893403386
250.488 90.20532229262373
259.277 90.89573274660212
268.066 91.25760661167848
276.855 90.28336901966608
287.109 90.3158005904039
297.363 90.60185698809224
307.617 90.42529360663625
319.336 89.7923210562501
329.59 89.45384177815835
341.309 89.56760713959768
353.027 89.51061202171508
366.211 89.86953673032096
379.395 89.4236131054122
392.578 89.30146075213658
405.762 89.46157435239415
420.41 88.99168730752547
435.059 88.89068749565827
451.172 88.47012472898021
465.82 88.22642286227475
483.398 88.89603702905619
499.512 89.36840882924632
517.09 89.50888317010381
536.133 89.45078099376731
555.176 89.79930194697802
574.219 89.80627513113713
594.727 89.4816955012592
615.234 89.20928021899797
637.207 90.30012168501378
659.18 89.38337885145454
682.617 89.87643300121437
707.52 91.3978892292597
732.422 91.2051286278155
757.324 91.75965644386463
785.156 91.55926343047958
811.523 91.10504195080634
840.82 91.34887642760239
870.117 90.76757911530152
900.879 90.29700920290946
933.105 89.20303109683478
965.332 88.45034996044751
1000.49 87.96932827356174
1035.64 87.54820655518819
1072.27 87.1836703545207
1108.89 88.16966424804349
1148.44 89.31789638597058
1189.45 90.05144367707332
1230.47 89.62977089730671
1274.41 88.94625028674145
1319.82 88.35917335156162
1366.7 88.07823223525989
1413.57 88.38175965120035
1463.38 87.6141679214044
1516.11 86.40995506758377
1568.85 85.42119223173786
1624.51 88.24623485736743
1681.64 90.58150998357948
1741.7 91.09923961489008
1803.22 91.04035566552734
1866.21 90.67458025426313
1932.13 90.62164187804632
1999.51 89.79900644043838
2069.82 88.07993723357308
2143.07 87.30555770858658
2219.24 86.76490360624237
2296.88 85.76642009206766
2378.91 84.87692764301799
2462.4 84.95149613659267
2548.83 84.74925957716994
2639.65 84.66280492581433
2731.93 85.36484547834947
2828.61 85.69857985743116
2928.22 85.95191340900374
3030.76 85.53452124318927
3137.7 84.66756079954659
3249.02 85.52858052815172
3363.28 86.94743246341697
3481.93 87.37029937268741
3604.98 86.59993818577021
3732.42 86.35893464260877
3864.26 86.12857914424617
4000.49 86.24875351371051
4141.11 86.84647145517829
4287.6 87.76752146738193
4438.48 88.03163740682535
4595.21 88.3323574866771
4756.35 87.83151383547036
4924.8 87.1787726861067
5097.66 86.19196707843032
5277.83 85.68111897676056
5463.87 86.40201539712068
5657.23 89.16934056248694
5856.45 91.4065039179668
6062.99 92.23441839227316
6276.86 91.53549367042643
6498.05 89.91527415884894
6726.56 89.37839801866492
6963.87 89.06605492394343
7209.96 88.92915508040178
7464.84 89.59861004680961
7727.05 90.62233883911298
7999.51 90.69550693253878
8282.23 89.29948168651669
8573.73 87.77527032128555
8876.95 86.87553463477533
9188.96 86.83994097738486
9514.16 88.07347119094425
9849.61 89.248869539015
10196.8 88.22534588561699
10555.7 87.78763257010101
10927.7 86.58973906078235
11313.0 88.06007749964475
11712.9 85.47184930753961
12126.0 84.18411717408621
12553.7 85.05873709270223
12996.1 82.64114514333203
13454.6 81.73193592083773
13929.2 81.54416971904605
14419.9 79.73218036385306
14928.2 77.90026752958373
15455.6 79.01873169500477
16000.5 78.75793205731537
16564.5 79.44190697961635
17148.9 79.6431261279811
17752.4 75.01851188349823
18379.4 77.25435600785433
19026.9 78.9901948463638
19697.8 75.63413745595813
19999.5 76.6772446737408
