Freq "Front Wall Bounce"
20.5078 46.336654153617815
21.9727 47.562471070762484
23.4375 50.88679079974173
24.9023 50.08275561665849
26.3672 52.436491483974464
27.832 54.491558355866715
29.2969 56.39158811930835
30.7617 57.696459169794565
32.2266 59.14807080788782
33.6914 60.74104098123837
35.1562 61.73756624687002
36.6211 63.581284276567914
38.0859 65.41878345664804
39.5508 66.67252511433514
41.0156 67.73147016571897
42.4805 69.06128925577312
43.9453 70.30148109024236
45.4102 71.83272724231591
46.875 73.10605242171886
48.3398 74.32031128166886
51.2695 76.17694165434902
52.7344 77.3065024397848
54.1992 78.63839656240376
55.6641 79.56521065833647
58.5938 81.33452796156236
60.0586 82.12254749150182
62.9883 83.47108549722127
64.4531 83.99096713825864
67.3828 84.8755920664408
68.8477 85.17132142064463
71.7773 85.6269865060163
74.707 85.892772476278
77.6367 86.0398299556915
79.1016 86.08758008873929
82.0312 86.16140842638816
84.9609 86.23384379175131
87.8906 86.34041955289807
90.8203 86.56283955439079
95.2148 86.81128751876057
98.1445 86.92433706970054
101.074 87.03813904399942
105.469 87.2560288161905
108.398 87.40845491304712
112.793 87.50778082659697
117.188 87.5977370981263
120.117 87.96453238031955
124.512 88.31033548244812
128.906 88.55080752718393
133.301 88.80420188491671
139.16 88.94771497764768
143.555 88.96471779386525
147.949 89.50753893122088
153.809 89.76094315569281
159.668 89.66872109578465
165.527 89.70690286421532
171.387 90.23619213963879
177.246 90.3074340819047
183.105 90.50853352594311
188.965 90.5233870464853
196.289 90.66640095878083
203.613 90.38575897930973
210.938 90.81580158940876
218.262 90.77881345516816
225.586 90.4828372134654
232.91 90.35742021904642
241.699 90.67087463721322
250.488 90.08183342426983
259.277 90.79737308151027
268.066 91.036706124629
276.855 90.05227876250966
287.109 90.16688548230339
297.363 90.51875635465906
307.617 90.25386463381855
319.336 89.61678209695663
329.59 89.37316322608528
341.309 89.42618528744441
353.027 89.42896022624605
366.211 89.72444685618123
379.395 89.24255877839454
392.578 89.04262975696378
405.762 89.12455261229742
420.41 88.68269184653191
435.059 88.44543375267155
451.172 88.23219026715408
465.82 88.14036191135821
483.398 88.72298062947587
499.512 89.15729779015744
517.09 89.47412515365534
536.133 89.6835866754826
555.176 89.76618352578602
574.219 90.02740998151711
594.727 89.46790146749186
615.234 89.26363119631363
637.207 90.39115603148647
659.18 89.49546693453931
682.617 90.67116139897337
707.52 91.85265286077255
732.422 91.56815358672813
757.324 92.26496757792803
785.156 91.88751831142811
811.523 91.55140640302993
840.82 91.49917641712187
870.117 90.87808346325073
900.879 90.13516060103888
933.105 89.07862515516788
965.332 87.97378318282182
1000.49 87.12220310019427
1035.64 87.12072102326363
1072.27 86.70879989546579
1108.89 87.03657526228778
1148.44 87.28927132443621
1189.45 88.07105687957346
1230.47 87.16405027063634
1274.41 87.5173948695495
1319.82 88.07941560938363
1366.7 88.4879063785265
1413.57 88.43304108381876
1463.38 88.00706486695718
1516.11 88.12916731401148
1568.85 91.32916158044122
1624.51 92.5653351906288
1681.64 90.94357267588495
1741.7 89.8977195215451
1803.22 89.83246107537032
1866.21 90.4976403796618
1932.13 90.28434629581429
1999.51 89.32650396319106
2069.82 88.56295452444343
2143.07 88.43196022478662
2219.24 86.86975325881201
2296.88 85.90645314319792
2378.91 86.33814199649979
2462.4 86.12635750140997
2548.83 85.50783261111032
2639.65 86.20812871798364
2731.93 86.42061668449406
2828.61 86.53727221034137
2928.22 86.08197901558158
3030.76 86.17649574685325
3137.7 86.04879532222097
3249.02 87.35475702788578
3363.28 88.15556594946472
3481.93 89.13657871959421
3604.98 88.4232687032243
3732.42 88.73349025804745
3864.26 88.29164985954935
4000.49 88.77573163974286
4141.11 89.28744554497273
4287.6 90.31073930315733
4438.48 90.32618902057513
4595.21 88.93284897730666
4756.35 88.5930517113285
4924.8 87.71642616484971
5097.66 87.94928344234745
5277.83 87.14720155199691
5463.87 87.53339135747912
5657.23 88.37916026141913
5856.45 89.66270620624786
6062.99 89.82204628718227
6276.86 88.62762586495028
6498.05 88.78137887180647
6726.56 89.06249355448426
6963.87 88.54452716611836
7209.96 88.24505187256814
7464.84 88.83615107903205
7727.05 90.02168766857116
7999.51 90.63416685495653
8282.23 89.84293729027272
8573.73 88.65667080432782
8876.95 87.85410384326883
9188.96 87.85528017823363
9514.16 89.24281459818518
9849.61 90.49535359458774
10196.8 89.73064074428481
10555.7 89.20219792384445
10927.7 87.80969879016871
11313.0 89.4445341800341
11712.9 87.8166252616003
12126.0 86.81766231938161
12553.7 87.75752661790067
12996.1 87.3989755124092
13454.6 87.1252756559783
13929.2 86.75809909437088
14419.9 86.01198781876073
14928.2 84.87766966964202
15455.6 85.7912662713898
16000.5 86.62212308864389
16564.5 87.98340227183058
17148.9 88.63163166916489
17752.4 86.01173047805982
18379.4 86.74743943403917
19026.9 88.21873064580383
19697.8 87.19476995895785
19999.5 87.52340677656339
