Freq "Rear Wall Bounce"
20.5078 47.553172142122605
21.9727 49.17199099627351
23.4375 50.99463377995431
24.9023 50.58995010138773
26.3672 52.719855248376234
27.832 54.31090993341624
29.2969 55.957709283101536
30.7617 57.177908206079394
32.2266 58.590573745577615
33.6914 60.07607006233272
35.1562 61.88261050398734
36.6211 63.04100799770586
38.0859 64.71518576720439
39.5508 65.99875756076332
41.0156 67.2753822834922
42.4805 68.53814939733272
43.9453 69.59660624411637
45.4102 71.04814397149947
46.875 72.27748406518509
48.3398 73.45986600551731
51.2695 75.77641895600836
52.7344 76.96185284552692
54.1992 77.83384846016631
55.6641 78.76401787884812
58.5938 80.58538278992154
60.0586 81.36569363877594
62.9883 82.70828989010369
64.4531 83.14431546894578
67.3828 84.0053629849732
68.8477 84.35887108843063
71.7773 84.82926043387992
74.707 85.07520145435444
77.6367 85.20300876194645
79.1016 85.24691997317538
82.0312 85.30394395918587
84.9609 85.34663899835166
87.8906 85.51359114689726
90.8203 85.74370695391917
95.2148 85.86234964835108
98.1445 85.96147956399558
101.074 86.03251934196275
105.469 86.08075300968747
108.398 86.25512570040708
112.793 86.47669593740986
117.188 86.40913818725053
120.117 86.64875293711557
124.512 87.14325075585522
128.906 87.33214351421078
133.301 87.29643856948074
139.16 87.50889183248981
143.555 87.50327396342423
147.949 87.78933748220254
153.809 88.24970975323143
159.668 87.93493514638082
165.527 88.01389038587561
171.387 87.87097798775247
177.246 88.36818025198573
183.105 88.44640387548695
188.965 88.53180433181707
196.289 88.49111707250682
203.613 87.96644633213442
210.938 87.75989822517967
218.262 87.80714270997495
225.586 88.20758850799541
232.91 87.58947466480979
241.699 87.20917519951195
250.488 86.7039652742296
259.277 86.56754146097845
268.066 87.2730135861499
276.855 87.16570541264164
287.109 85.8379027003576
297.363 85.55179897245148
307.617 86.38986878215715
319.336 85.49908536283908
329.59 85.53914508125071
341.309 84.67918859502358
353.027 84.6079111967506
366.211 83.83752088455796
379.395 84.12509025008565
392.578 83.54078446414681
405.762 83.94017351382931
420.41 82.74625696940534
435.059 82.94706463188018
451.172 81.85496377948041
465.82 81.94382761077895
483.398 83.05945148667743
499.512 83.43554502537307
517.09 82.71498758296005
536.133 83.00270717439622
555.176 82.54273162395886
574.219 82.26189878681767
594.727 81.74955469220492
615.234 82.65232220644029
637.207 81.36927358899021
659.18 81.20537716903672
682.617 82.53925618746653
707.52 82.39090849388391
732.422 81.31995466573859
757.324 82.64571110833971
785.156 80.92805880223557
811.523 81.21516871604203
840.82 81.20148735471322
870.117 79.37134660862338
900.879 78.41587124364125
933.105 77.83279600103906
965.332 76.18394809968555
1000.49 75.7564268351051
1035.64 74.99482979124153
1072.27 74.6480581051378
1108.89 75.34899473272054
1148.44 75.53305248387073
1189.45 75.87753134326704
1230.47 75.3003344606728
1274.41 74.88033074291467
1319.82 74.28937455545581
1366.7 75.07363976927476
1413.57 74.77976824208753
1463.38 74.65133640968115
1516.11 72.64078776229009
1568.85 71.05711583262335
1624.51 71.15644764282854
1681.64 73.13263185381064
1741.7 73.48605334811482
1803.22 74.05750015737837
1866.21 73.94702698162719
1932.13 73.2352809937956
1999.51 72.45451932906592
2069.82 72.29321646351269
2143.07 70.74694427592954
2219.24 68.96507492155162
2296.88 67.50320628314776
2378.91 67.06515443112548
2462.4 67.18580674256332
2548.83 66.50726036401304
2639.65 67.4987391705414
2731.93 68.03689271005442
2828.61 69.907870390421
2928.22 70.92657686857089
3030.76 70.10221454659136
3137.7 70.48005531567878
3249.02 70.59763752203314
3363.28 69.63184823234621
3481.93 68.01507460446112
3604.98 66.39876436193046
3732.42 66.62234605489851
3864.26 66.66892368192913
4000.49 66.68634499041707
4141.11 67.97549782691439
4287.6 70.46063186299402
4438.48 72.47993992172785
4595.21 74.07145240982368
4756.35 73.98662565179762
4924.8 73.64551477356453
5097.66 73.38430828000203
5277.83 73.05839517915649
5463.87 73.18634414280982
5657.23 73.3174714069368
5856.45 72.942453372381
6062.99 72.7684896369459
6276.86 72.76900297856865
6498.05 72.68355883407091
6726.56 70.76001729146361
6963.87 69.02991252679429
7209.96 66.63251358926976
7464.84 64.73273383066302
7727.05 64.57585813153386
7999.51 65.27867802662013
8282.23 63.82334473385936
8573.73 60.900967754953825
8876.95 56.92003951275973
9188.96 51.59686503501831
9514.16 49.925252960699794
9849.61 54.46413527835517
10196.8 55.89604909217428
10555.7 56.68285041855691
10927.7 55.88266256873678
11313.0 58.64950549059108
11712.9 59.10879748561982
12126.0 59.65110323294496
12553.7 57.36952004910137
12996.1 54.13687690134614
13454.6 53.65798936581001
13929.2 56.25379582281977
14419.9 55.448136399323744
14928.2 49.809308095658935
15455.6 49.90546226366925
16000.5 50.75768446811344
16564.5 51.089723440947466
17148.9 50.32997463818148
17752.4 48.91306681445377
18379.4 52.360642444745
19026.9 51.93304294934603
19697.8 51.65918534536064
19999.5 54.03153978263771
