Freq "Side Wall Bounce"
20.5078 47.24858082986168
21.9727 48.56498726789056
23.4375 51.50072223095847
24.9023 50.74357715321662
26.3672 53.045881591165056
27.832 54.96653150449072
29.2969 56.79853292547091
30.7617 58.075960905190556
32.2266 59.51477518068495
33.6914 61.08289922912087
35.1562 62.28584807850598
36.6211 63.93001527675534
38.0859 65.72046007422153
39.5508 66.99178051618594
41.0156 68.09985496942375
42.4805 69.40278377130437
43.9453 70.59880266268868
45.4102 72.10654613613752
46.875 73.37396071726596
48.3398 74.58255834784606
51.2695 76.54707897674689
52.7344 77.65994532053051
54.1992 78.88130367496474
55.6641 79.81966697092773
58.5938 81.59383419152074
60.0586 82.37600206197628
62.9883 83.7152859474583
64.4531 84.20889887487054
67.3828 85.09938843269546
68.8477 85.40534052094931
71.7773 85.85394439159342
74.707 86.10667572765138
77.6367 86.24325427016417
79.1016 86.2865224915524
82.0312 86.34838560884121
84.9609 86.40495401599148
87.8906 86.51021055241287
90.8203 86.71597217043933
95.2148 86.9236295307353
98.1445 87.02554070349265
101.074 87.11522816935987
105.469 87.28704540579638
108.398 87.4483582898498
112.793 87.54807379499697
117.188 87.56907921171745
120.117 87.91253515802569
124.512 88.27238923344035
128.906 88.46703498342823
133.301 88.64929258379479
139.16 88.8444717791828
143.555 88.78502293298064
147.949 89.24982590359132
153.809 89.54885644478318
159.668 89.43171119977862
165.527 89.34393080622516
171.387 89.72175337567748
177.246 89.92314175895217
183.105 90.08786126326876
188.965 90.03807080696608
196.289 90.12197304872917
203.613 89.69364776047325
210.938 90.05767313263999
218.262 90.19870799954607
225.586 89.84776779917506
232.91 89.46978629036309
241.699 89.74688353405459
250.488 89.13033571125017
259.277 89.58242289519347
268.066 90.23911459049316
276.855 89.01708098397788
287.109 89.0154538137291
297.363 89.32287483208977
307.617 89.39524567509993
319.336 88.6250931274929
329.59 88.27032265813189
341.309 88.21551732219987
353.027 87.885834332125
366.211 88.7775076742479
379.395 88.17441934105379
392.578 88.02195089174054
405.762 87.96207013347447
420.41 87.44700796049949
435.059 87.14886427352299
451.172 87.17916093387193
465.82 87.21445172078097
483.398 87.43191200562933
499.512 87.98783892475407
517.09 87.67410292715988
536.133 88.1546678537563
555.176 87.98458529494906
574.219 87.68504538403349
594.727 87.8360587077107
615.234 86.75741759316239
637.207 87.15476643907739
659.18 87.26510914915424
682.617 87.23718352400124
707.52 88.04653647014608
732.422 88.38027620917603
757.324 88.94445451240581
785.156 88.20751983345815
811.523 88.21912177068492
840.82 87.95805802083609
870.117 87.3420116379009
900.879 86.9277962086193
933.105 85.24697794728547
965.332 84.27537721165437
1000.49 83.15798737553473
1035.64 83.2214911497906
1072.27 82.99122020376176
1108.89 82.9437585170652
1148.44 83.56480269840162
1189.45 83.89069002015948
1230.47 83.57454062675546
1274.41 83.48963061642716
1319.82 83.63147950625465
1366.7 84.18757239239692
1413.57 84.1756706616892
1463.38 84.04512038993234
1516.11 84.18279160934625
1568.85 85.09163527029362
1624.51 85.56380586009386
1681.64 84.64535207761263
1741.7 84.46890429684616
1803.22 84.66385316821568
1866.21 85.64709096963537
1932.13 85.4901349643818
1999.51 84.32063184427098
2069.82 83.7163204849152
2143.07 83.5596678790527
2219.24 82.55097887542918
2296.88 81.0942896858273
2378.91 81.27036413785748
2462.4 80.96447082138512
2548.83 80.11853327802564
2639.65 80.77062053038375
2731.93 81.40473695259875
2828.61 82.21471937216063
2928.22 82.57885632352108
3030.76 82.6434668620677
3137.7 82.50710472921017
3249.02 83.39156100139735
3363.28 83.61974446193284
3481.93 82.22527891957628
3604.98 81.11703020552156
3732.42 81.08916088259316
3864.26 80.60176169694383
4000.49 81.07423082708418
4141.11 81.49318843848218
4287.6 82.35029467457673
4438.48 84.2734982131873
4595.21 85.34782582187854
4756.35 86.11072301501133
4924.8 85.95251795601632
5097.66 86.62314655419041
5277.83 87.11884537885447
5463.87 87.94791364813858
5657.23 88.46330673486203
5856.45 88.90587428671759
6062.99 88.98577301810596
6276.86 88.52956274921698
6498.05 87.84930885120505
6726.56 86.97918735165781
6963.87 86.12238715813166
7209.96 85.81346699850886
7464.84 85.73390415057592
7727.05 85.9640372078574
7999.51 85.49129146897329
8282.23 83.50324223399991
8573.73 81.54668288106133
8876.95 80.0261285088295
9188.96 79.13940854000775
9514.16 79.91910084725201
9849.61 80.5657682897382
10196.8 78.6923423279489
10555.7 77.13707841082413
10927.7 75.29550381021213
11313.0 78.01616767310651
11712.9 76.98292312146594
12126.0 76.93856104188599
12553.7 75.88486512595254
12996.1 72.62385179525336
13454.6 69.21686495132629
13929.2 67.83378972480772
14419.9 70.95427024431304
14928.2 68.86183216530812
15455.6 67.41118928683036
16000.5 71.0764606289363
16564.5 75.29907511527853
17148.9 74.34177467944284
17752.4 71.6536263638974
18379.4 72.39649776332053
19026.9 69.82340242724065
19697.8 67.53017006346728
19999.5 68.16630655324207
