Freq "Ceiling Bounce"
22.4 27.904041641136544
23.0 28.526249691307427
23.6 29.327804547733663
24.0 31.31927023736823
25.0 32.7894423834105
25.8 34.07716694333395
26.5 35.209500231473314
27.2 36.15350234690676
28.0 36.93275252066154
29.0 37.713567236487464
30.0 38.84883229213237
30.7 40.678655275227996
31.5 42.23129363697585
32.5 43.58450566201485
33.5 44.73829050246992
34.5 45.78515143080351
35.5 46.864306321607884
36.5 48.66430632160787
37.5 50.244960009965595
38.7 51.60144850831803
40.0 52.79623702278799
41.2 53.9532387757731
42.5 55.37980156157572
43.7 56.8492895482524
45.0 58.1068159250875
46.2 59.30415638300475
47.5 60.404156383004775
48.7 61.76221856028856
50.0 63.03228210183393
51.5 64.21948455244551
53.0 65.39061630150609
54.5 66.4194845524455
56.0 67.57865092704375
58.0 68.73837239899132
60.0 69.83837239899132
61.5 70.83837239899132
63.0 71.69864648888337
65.0 72.6295151163498
67.0 73.55947058840796
69.0 74.49061792796608
71.0 75.39061792796608
73.0 76.25226657605756
75.0 77.01445814056093
77.5 77.71445814056092
80.0 78.34665914767184
82.5 79.04665914767185
85.0 79.70966707290975
87.5 80.30966707290973
90.0 80.80966707290975
92.5 81.17321005155517
95.0 81.47321005155517
97.5 81.87321005155518
100.0 82.23728475719001
103.0 82.50647150132764
106.0 82.70647150132764
109.0 83.03728475719002
112.0 83.23728475719001
115.0 83.33728475719003
118.0 83.43728475719003
122.0 83.57082142629035
125.0 83.63728475719002
128.0 83.67082142629035
132.0 83.77082142629034
136.0 83.87082142629033
140.0 83.97082142629033
145.0 84.03728475719004
150.0 84.10647150132765
155.0 84.17082142629033
160.0 84.23728475719001
165.0 84.30188775470482
170.0 84.30188775470482
175.0 84.30188775470482
180.0 84.30188775470482
185.0 84.30188775470482
190.0 84.23344931787794
195.0 84.16859104572286
200.0 84.13344931787795
206.0 84.06859104572287
212.0 84.06859104572287
218.0 83.96859104572286
224.0 83.96859104572286
230.0 83.90188775470482
236.0 83.93728475719001
240.0 83.93728475719001
250.0 83.93728475719001
258.0 83.97321005155517
265.0 83.90647150132764
272.0 83.94265152999161
280.0 83.94265152999161
290.0 83.91257942015847
300.0 83.91257942015847
307.0 83.78298927885761
315.0 83.64954680186297
325.0 83.52020831357015
335.0 83.35796693967136
345.0 83.19134488920724
355.0 83.02935419814467
365.0 82.86790751983571
375.0 82.7679075198357
387.0 82.56790751983571
400.0 82.30700772937449
412.0 82.11926521838546
425.0 81.85972052125199
437.0 81.53303425023883
450.0 81.30073168470898
462.0 81.01611890332514
475.0 80.7585020835838
487.0 80.37621121840941
500.0 80.0762112184094
515.0 79.91997503244743
530.0 79.75140589647047
545.0 79.59541912274295
560.0 79.49541912274294
580.0 79.34000049438379
600.0 79.11611578547749
615.0 78.83829050246992
630.0 78.48450566201485
650.0 78.139758037486
670.0 77.74432917596148
690.0 77.52121923798447
710.0 77.56379114471672
730.0 77.87923110600849
750.0 78.21443436258483
775.0 78.36441021598358
800.0 78.11833473457844
825.0 77.6024900048288
850.0 77.5024900048288
875.0 78.4024900048288
900.0 79.34836715632561
925.0 80.3110582830863
950.0 80.12761569115085
975.0 78.85794608829235
1000.0 79.12510192334015
1030.0 80.01268624640386
1060.0 79.7073375029846
1090.0 78.65681272426052
1120.0 79.16648682660892
1150.0 80.34495870436854
1180.0 80.62486843615831
1220.0 79.62486843615832
1250.0 78.92486843615833
1280.0 79.00144718957462
1320.0 78.83368358512472
1360.0 78.05681272426052
1400.0 78.04942424468886
1450.0 78.64942424468884
1500.0 78.7028322389119
1550.0 77.92468719228208
1600.0 77.86958956794687
1650.0 78.10138586695025
1700.0 77.50283223891188
1750.0 77.2549596837144
1800.0 77.02522639139004
1850.0 76.43760681589114
1900.0 76.18722411236452
1950.0 75.75649900936203
2000.0 75.30749133792698
2060.0 75.30511114820335
2120.0 75.37745464359189
2180.0 74.97320796606958
2240.0 74.18863123895586
2300.0 73.72479419655748
2360.0 73.42789724524741
2400.0 73.30953421354734
2500.0 73.94416971439134
2580.0 74.99931590987929
2650.0 75.832378778457
2720.0 75.932378778457
2800.0 75.51294040183078
2900.0 75.19386006921641
3000.0 75.16050151905196
3070.0 75.07972864853264
3150.0 75.19931590987929
3250.0 75.3993159098793
3350.0 75.54702565014004
3450.0 75.3993159098793
3550.0 75.17972864853263
3650.0 75.84162945405302
3750.0 77.07165701983932
3870.0 78.25291308566204
4000.0 78.97311272108054
4120.0 78.832909485063
4250.0 78.31365203414974
4370.0 77.91435924386128
4500.0 77.61950226404467
4620.0 77.23945861388076
4750.0 76.87320796606956
4870.0 76.5324237910629
5000.0 76.0067809911254
5150.0 75.33161601884824
5300.0 75.40860054475061
5450.0 77.05552982402159
5600.0 78.56733083400468
5800.0 78.66946913386009
6000.0 78.43070036888138
6150.0 77.33562378111543
6300.0 77.10021731327853
6500.0 78.40021731327853
6700.0 78.50021731327853
6900.0 78.61310752091039
7100.0 79.69390530185677
7300.0 79.47566968551787
7500.0 78.93527322804401
7750.0 78.77916675416459
8000.0 79.19438093966957
8250.0 79.90989452967393
8500.0 80.15710183600447
8750.0 80.9413981690114
9000.0 81.34139816901141
9250.0 81.66326067340064
9500.0 81.21719937898878
9750.0 80.14183872726092
10000.0 78.76828042275875
10300.0 77.72467992161359
10600.0 78.30991618463102
10900.0 79.06707374492858
11200.0 79.63877992142999
11500.0 79.72504789146413
11800.0 78.61158636133597
12200.0 77.1983908176746
12500.0 76.88545679037931
12800.0 77.6017665143775
13200.0 78.07733053973529
13600.0 77.3245560814055
14000.0 75.30187503736444
14500.0 74.88010367024071
15000.0 75.65920979489839
15500.0 76.10975305858105
16000.0 76.16132689011046
16500.0 75.5232274986334
17000.0 74.3139149380952
17500.0 72.38566962974585
18000.0 71.1764901462702
18500.0 66.18566962974583
19000.0 64.76732198801827
19500.0 61.61438542013694
