Freq "Rear Wall Bounce"
22.4 16.244258792489163
23.0 16.889863286873506
23.6 17.72160891282256
24.0 19.804643512835312
25.0 21.44215335602435
25.8 22.834891788255376
26.5 24.04694293211317
27.2 25.148360367714915
28.0 26.107873831463976
29.0 27.070377867629915
30.0 28.337854461678702
30.7 30.284125375994094
31.5 32.00208236157441
32.5 33.53144665809732
33.5 34.881767148498895
34.5 36.161219254213975
35.5 37.487572541895204
36.5 39.525766106984875
37.5 41.377005200022424
38.7 43.03554682019599
40.0 44.4743327885631
41.2 45.890887647962344
42.5 47.631764521216056
43.7 49.35909427801012
45.0 50.88520751424501
46.2 52.23668774736687
47.5 53.57796449000084
48.7 55.13383234166538
50.0 56.61717755228604
51.5 58.00397512594567
53.0 59.30124864219722
54.5 60.546731604919174
56.0 61.82681235204326
58.0 63.1557529363465
60.0 64.34558580490445
61.5 65.47112865285021
63.0 66.48994172258722
65.0 67.43327390651068
67.0 68.38154470851005
69.0 69.3613066680603
71.0 70.23235172377007
73.0 71.06673461262535
75.0 71.804469492275
77.5 72.44953078145562
80.0 73.0285364234321
82.5 73.63264227562875
85.0 74.26956596114589
87.5 74.80593013529909
90.0 75.23861500010148
92.5 75.583433959884
95.0 75.83954358746053
97.5 76.16646545498422
100.0 76.51536032283423
103.0 76.73357989934641
106.0 76.89247114665118
109.0 77.13093528201505
112.0 77.3135882776704
115.0 77.3460509159059
118.0 77.34875744208448
122.0 77.35482072239205
125.0 77.30303226810292
128.0 77.20618722068794
132.0 77.1725890381354
136.0 77.10955829278231
140.0 77.05781430783173
145.0 77.02488808961013
150.0 76.96289342096298
155.0 76.87361515013019
160.0 76.80498837614807
165.0 76.73321939772606
170.0 76.62088146163258
175.0 76.47769861142106
180.0 76.38164105722127
185.0 76.26040529174259
190.0 76.12849864267967
195.0 75.987107825769
200.0 75.82153773756168
206.0 75.70099596816303
212.0 75.58322615699254
218.0 75.46462701540958
224.0 75.34511578258373
230.0 75.24707092849582
236.0 75.18276226906146
240.0 75.13987528768733
250.0 75.10230185537928
258.0 75.10788706547378
265.0 75.06732512390359
272.0 75.09684065878642
280.0 75.09157081658947
290.0 75.15765577556903
300.0 75.18841564538731
307.0 75.15797293700219
315.0 75.10540386433628
325.0 75.07565918536419
335.0 75.0220806357589
345.0 74.93076623387464
355.0 74.82541447698316
365.0 74.69162768095033
375.0 74.53200525774115
387.0 74.33761083555125
400.0 74.02397884910206
412.0 73.77861384291877
425.0 73.41610870996234
437.0 72.94779811030679
450.0 72.59507677319102
462.0 72.18188603327704
475.0 71.79123549556562
487.0 71.25699291648085
500.0 70.85415779313139
515.0 70.58718938934587
530.0 70.34877470017345
545.0 70.164210787227
560.0 70.05618061399473
580.0 69.98080022403583
600.0 69.82184388990528
615.0 69.58870857528673
630.0 69.31975161468516
650.0 69.00508198155997
670.0 68.62188359284949
690.0 68.36739687836537
710.0 68.36984760580229
730.0 68.6897676288829
750.0 69.03858617356472
775.0 69.20809926373231
800.0 69.0370162974224
825.0 68.70479281532354
850.0 68.85181150860234
875.0 70.17877932811855
900.0 71.51188457381734
925.0 72.89738965108138
950.0 73.13550019048994
975.0 72.29280149291753
1000.0 72.78414689946914
1030.0 73.35093130429631
1060.0 72.13897075561586
1090.0 69.75929415714081
1120.0 68.98209662576008
1150.0 69.22932855647954
1180.0 68.57185214511006
1220.0 66.77209682529154
1250.0 65.39031684088293
1280.0 65.2409094028199
1320.0 65.19411239484846
1360.0 64.85160895608071
1400.0 65.14727370691243
1450.0 65.8291846431623
1500.0 65.66657952656497
1550.0 64.3992658099038
1600.0 63.87310633425187
1650.0 63.573631514796176
1700.0 62.33578834565991
1750.0 61.379075535159146
1800.0 60.52423675334775
1850.0 59.583088906451266
1900.0 59.27698313954342
1950.0 59.04964898451529
2000.0 58.98478463417008
2060.0 59.3855441732202
2120.0 60.06790651813405
2180.0 60.449013618825106
2240.0 60.54853211350358
2300.0 60.7525200817599
2360.0 60.893408767044164
2400.0 61.07271684868125
2500.0 61.76675008253521
2580.0 62.71152290047094
2650.0 63.20771752264834
2720.0 62.88271302114846
2800.0 62.097612501035755
2900.0 61.45809617677217
3000.0 61.23928924959269
3070.0 60.951269390765376
3150.0 60.88371838790626
3250.0 60.80797340534765
3350.0 60.6304427357433
3450.0 60.148293911239776
3550.0 59.57357684039097
3650.0 59.93963100590902
3750.0 60.92212500390478
3870.0 61.864931999192024
4000.0 62.27957686353152
4120.0 61.76633663599024
4250.0 60.777183668627046
4370.0 59.81098932165902
4500.0 59.06760245134943
4620.0 58.35612546982894
4750.0 57.72822766746525
4870.0 57.182247307212194
5000.0 56.46371814935843
5150.0 55.65141106862502
5300.0 55.617952431618434
5450.0 57.09841206616632
5600.0 58.44237608362094
5800.0 58.33582964081346
6000.0 57.77055525061765
6150.0 56.26597179627491
6300.0 55.67834326037216
6500.0 56.790737940204096
6700.0 56.55473171860773
6900.0 56.42861912025457
7100.0 57.24318899013811
7300.0 56.77765573399806
7500.0 56.09972484424627
7750.0 55.82103875633753
8000.0 56.06121029637653
8250.0 56.55551383073082
8500.0 56.58845863964736
8750.0 57.003604865464965
9000.0 57.05638580293065
9250.0 57.14943402180121
9500.0 56.432034929639556
9750.0 55.1179507331846
10000.0 53.413348248735346
10300.0 52.06635812590862
10600.0 52.341453795450136
10900.0 52.62574199965836
11200.0 52.7172959395558
11500.0 52.33849700959415
11800.0 50.64087998468641
12200.0 48.64396759152886
12500.0 47.75689814130418
12800.0 48.13919715988196
13200.0 48.29507207847861
13600.0 47.34545427029782
14000.0 45.19044517986303
14500.0 44.61324821501678
15000.0 45.13606960892905
15500.0 45.258510000542614
16000.0 45.14050103755794
16500.0 44.53295312316699
17000.0 43.60838888250116
17500.0 42.24528326894783
18000.0 41.65320183527912
18500.0 37.34353090816201
19000.0 36.74069939187727
19500.0 34.65676804891787
