Freq "Total Early Reflection"
22.4 24.48410871629092
23.0 25.31023754046244
23.6 26.33543149603365
24.0 28.577743718972172
25.0 30.32679510827232
25.8 31.837399160684626
26.5 33.169672951700974
27.2 34.350707940712184
28.0 35.362366365997886
29.0 36.324777200109494
30.0 37.62152481120397
30.7 39.56200201074394
31.5 41.24785654223042
32.5 42.70637789234213
33.5 43.96945263843169
34.5 45.10567600256199
35.5 46.289784365239726
36.5 48.169466453202645
37.5 49.80681209209534
38.7 51.228914933287925
40.0 52.50096482441974
41.2 53.704287290960664
42.5 55.216394659650845
43.7 56.71822724809418
45.0 58.01559531000929
46.2 59.226125170897504
47.5 60.38413789843561
48.7 61.78710283539938
50.0 63.08266994056417
51.5 64.31603814002086
53.0 65.48527778206024
54.5 66.5641131105913
56.0 67.74414392096102
58.0 68.97983156552016
60.0 70.06394812582022
61.5 71.09857363575277
63.0 72.0386128164286
65.0 72.93501927726388
67.0 73.86729171505117
69.0 74.8067254204425
71.0 75.67843379971379
73.0 76.4842108429712
75.0 77.22925329852283
77.5 77.89177259608319
80.0 78.48239585849879
82.5 79.12651202001466
85.0 79.76329979578894
87.5 80.30458051723956
90.0 80.75856171803322
92.5 81.09641527188141
95.0 81.38383955984717
97.5 81.71683047120801
100.0 82.06838264771271
103.0 82.32120177225408
106.0 82.51770914890282
109.0 82.80272074021771
112.0 83.02309650262094
115.0 83.10847811549012
118.0 83.19634404555072
122.0 83.28446184139051
125.0 83.3489309336737
128.0 83.34377134994651
132.0 83.4282822620908
136.0 83.50332910965113
140.0 83.55915277380701
145.0 83.61048727446317
150.0 83.66243819429381
155.0 83.69399619308463
160.0 83.71208919260307
165.0 83.75509040126896
170.0 83.73186202139314
175.0 83.70805444868834
180.0 83.7028803668844
185.0 83.6977891887691
190.0 83.63713437721164
195.0 83.58540056695217
200.0 83.53974492809506
206.0 83.5058478672626
212.0 83.48668064184892
218.0 83.4068273747416
224.0 83.39982117975933
230.0 83.36261712771201
236.0 83.37275529306287
240.0 83.37642315490413
250.0 83.36359122433838
258.0 83.37655636853658
265.0 83.33617321258016
272.0 83.34911899513513
280.0 83.3286896040835
290.0 83.3199030551533
300.0 83.30797754750725
307.0 83.20649555839992
315.0 83.10249685643419
325.0 83.01255177405486
335.0 82.90557992470511
345.0 82.80208610556433
355.0 82.70954602985468
365.0 82.60504969376512
375.0 82.58118855540341
387.0 82.48937057587331
400.0 82.34708569900918
412.0 82.30082915401033
425.0 82.20086501702887
437.0 82.01403936235609
450.0 81.93505297190346
462.0 81.78168392081915
475.0 81.66875253161626
487.0 81.47078685779293
500.0 81.36009387649229
515.0 81.30528798979243
530.0 81.3016879134936
545.0 81.32248629272337
560.0 81.3836969096658
580.0 81.43531028876778
600.0 81.4347931369288
615.0 81.33110394319748
630.0 81.17096865926969
650.0 80.99849404991409
670.0 80.74682286572069
690.0 80.63251279114111
710.0 80.81861161404241
730.0 81.21644882663115
750.0 81.58071617592564
775.0 81.68068794844292
800.0 81.38422387311839
825.0 80.74187538936202
850.0 80.4164644643677
875.0 81.10187039777098
900.0 81.77623877806744
925.0 82.51029573080805
950.0 82.04462187095466
975.0 80.45717757285296
1000.0 80.41936010270608
1030.0 80.97984818054492
1060.0 80.35051070850496
1090.0 78.99399833271585
1120.0 79.2719103474747
1150.0 80.41665222236571
1180.0 80.69021292403984
1220.0 79.87102682926093
1250.0 79.41709657883636
1280.0 79.91566697801798
1320.0 80.29710863915517
1360.0 80.23809276558403
1400.0 80.73057008538836
1450.0 81.64565030340496
1500.0 81.76111006259359
1550.0 80.84957496158245
1600.0 80.67423450724155
1650.0 80.72987967049887
1700.0 79.94582575556025
1750.0 79.56960796363347
1800.0 79.24220791514806
1850.0 78.70654486874177
1900.0 78.7227606830012
1950.0 78.69372408226862
2000.0 78.72239314345988
2060.0 79.05947790105635
2120.0 79.57677926953448
2180.0 79.63015758642241
2240.0 79.34629733540284
2300.0 79.19647249261166
2360.0 78.99599122409121
2400.0 78.86674236237849
2500.0 79.34909234477958
2580.0 80.19129286327482
2650.0 80.66622809123265
2720.0 80.42655200746053
2800.0 79.67335723166524
2900.0 79.03963596583286
3000.0 78.74445493696588
3070.0 78.38731030311698
3150.0 78.2687269447376
3250.0 78.24256700082155
3350.0 78.21337823762816
3450.0 77.96316088161
3550.0 77.63130835825119
3650.0 78.18746234180334
3750.0 79.32513494166663
3870.0 80.4876252957606
4000.0 81.14230279191095
4120.0 81.0301671787055
4250.0 80.56313418140724
4370.0 80.22560945026113
4500.0 79.99428864443432
4620.0 79.70715073612486
4750.0 79.35676719352607
4870.0 79.02795748487901
5000.0 78.51675297004549
5150.0 77.80954304742598
5300.0 77.82476205225448
5450.0 79.3721285361057
5600.0 80.76123153041182
5800.0 80.73701518347819
6000.0 80.3274425145241
6150.0 79.00480774550111
6300.0 78.59592354861141
6500.0 79.79953481977476
6700.0 79.73110466036087
6900.0 79.7712081026072
7100.0 80.75182862678615
7300.0 80.41502215757144
7500.0 79.79499332049377
7750.0 79.51303519135185
8000.0 79.81712251135754
8250.0 80.41438437729246
8500.0 80.63271656487237
8750.0 81.32177325061302
9000.0 81.67618070839829
9250.0 82.01242669175302
9500.0 81.61066216845413
9750.0 80.62525808325962
10000.0 79.35327802159108
10300.0 78.39097494921164
10600.0 79.04344256651883
10900.0 79.81713266597838
11200.0 80.4029862962655
11500.0 80.47301113803717
11800.0 79.3477515107178
12200.0 77.92569904888236
12500.0 77.68085178434288
12800.0 78.5571622350565
13200.0 79.34390295490239
13600.0 79.04667071850984
14000.0 77.44123597492923
14500.0 77.35264784821052
15000.0 78.4224642657831
15500.0 79.13481469547638
16000.0 79.36932447476626
16500.0 78.84292929554822
17000.0 77.65969303039479
17500.0 75.68735207553868
18000.0 74.35125450505822
18500.0 69.19076150919825
19000.0 67.5109763112073
19500.0 64.06832819240877
