Freq "Ceiling Bounce"
20.5078 54.45966706802675
21.9727 51.826443047746565
23.4375 54.81556422669031
24.9023 57.49199234364674
26.3672 58.15025678703741
27.832 59.47013723045934
29.2969 61.64092549086338
30.7617 62.34779077321001
32.2266 63.88889659246634
33.6914 65.10401279344329
35.1562 66.37840511146918
36.6211 68.1804440822955
38.0859 69.7924245018491
39.5508 71.0596129181136
41.0156 72.43339422301486
42.4805 73.61519217657597
43.9453 75.14333717427112
45.4102 76.49960463058714
46.875 77.92797447196857
48.3398 79.37046688597886
51.2695 82.06666745694689
52.7344 83.39165862664052
54.1992 84.62402927882357
55.6641 85.72675519806815
58.5938 87.50689365547994
60.0586 88.17657250710175
62.9883 89.20839850524128
64.4531 89.49597046329477
67.3828 89.78736717787932
68.8477 89.86840044843784
71.7773 89.99072010109393
74.707 90.05888975855753
77.6367 90.07416392951049
79.1016 90.07505926174785
82.0312 90.11235223408397
84.9609 90.17864599802766
87.8906 90.1856798718748
90.8203 90.29707053372469
95.2148 90.5380673261701
98.1445 90.63376546126565
101.074 90.62471281817733
105.469 90.93983115590085
108.398 91.2148465114395
112.793 91.51167742978804
117.188 91.79302700366684
120.117 91.97229332448364
124.512 92.17312355738498
128.906 92.29142936289773
133.301 92.34203335349777
139.16 92.37348742371994
143.555 92.36404955598447
147.949 92.34384695579216
153.809 92.41408506575489
159.668 92.55562099005196
165.527 92.63164101833998
171.387 92.3563168262763
177.246 92.12538864426845
183.105 91.82943356176737
188.965 91.8549951635726
196.289 91.94623347908801
203.613 91.65529064859078
210.938 91.62328376527917
218.262 91.18589360967904
225.586 91.05056645533757
232.91 90.88753799022315
241.699 90.64536746052893
250.488 90.5717370932303
259.277 90.71434978207597
268.066 90.05420222508646
276.855 89.9051091902699
287.109 89.80255899966946
297.363 90.32127128052164
307.617 89.91531052222028
319.336 89.8154688842311
329.59 89.3702720034377
341.309 88.55709207723343
353.027 87.85869768441576
366.211 89.64543242351282
379.395 89.52439534437097
392.578 88.96605417502211
405.762 88.77050143020098
420.41 89.34173246162791
435.059 88.66709722530793
451.172 88.44938333486961
465.82 88.4262495971921
483.398 87.91356708267519
499.512 87.62987852794784
517.09 87.23092550661936
536.133 86.48209910908639
555.176 87.03716602353155
574.219 88.58306221309132
594.727 90.31994912969044
615.234 90.40075164920941
637.207 89.74948619742018
659.18 89.91063534385535
682.617 89.32855005715972
707.52 89.06501495554859
732.422 88.41649081745079
757.324 88.30709080977424
785.156 87.08233453643278
811.523 86.23839693880339
840.82 86.44287512243065
870.117 85.8959625830475
900.879 86.02568274614474
933.105 85.60965080740037
965.332 87.57634521201688
1000.49 87.43652279559717
1035.64 86.33848331955885
1072.27 89.81556464278717
1108.89 90.47703307737865
1148.44 91.02175201127396
1189.45 90.38853967218544
1230.47 89.89608958417332
1274.41 90.88930879201789
1319.82 91.01880650461298
1366.7 89.26376321025958
1413.57 86.9321462763333
1463.38 86.04574061249154
1516.11 84.94852704401679
1568.85 83.80249594625039
1624.51 83.0016667486009
1681.64 83.26282757521017
1741.7 83.182750938846
1803.22 83.1187780320645
1866.21 83.51827120760304
1932.13 83.76673222948644
1999.51 84.33325438920066
2069.82 84.80920104052676
2143.07 85.27249130650799
2219.24 85.8087441616661
2296.88 85.97025089795416
2378.91 85.94503428065825
2462.4 86.3739036719035
2548.83 86.51919376189956
2639.65 87.11956101403067
2731.93 86.96463114852962
2828.61 86.83584291785205
2928.22 86.15151056660129
3030.76 86.17234149328414
3137.7 85.62603933423486
3249.02 85.69705071206853
3363.28 85.64042348138484
3481.93 85.3449338859324
3604.98 84.61181285342441
3732.42 84.47662370535356
3864.26 84.18997620250501
4000.49 84.62573745960997
4141.11 83.76615721177001
4287.6 82.30636962123334
4438.48 81.76264233987413
4595.21 82.63490806575153
4756.35 84.84279473769828
4924.8 84.63282233443003
5097.66 82.72862758520633
5277.83 81.12530618081766
5463.87 80.19182026537456
5657.23 80.61037512032239
5856.45 80.60840637172747
6062.99 81.09789479114276
6276.86 81.31078168452639
6498.05 80.58868398928152
6726.56 80.8190642680577
6963.87 81.68243431722064
7209.96 82.0734765138195
7464.84 81.60108623730402
7727.05 81.34086453854171
7999.51 82.12949420346332
8282.23 82.3481857980954
8573.73 81.93500456975637
8876.95 82.25919877131855
9188.96 82.40190137179209
9514.16 81.5737714620356
9849.61 80.21132479949019
10196.8 77.18614558314971
10555.7 75.62809832500263
10927.7 78.70530949687709
11313.0 80.02725599802677
11712.9 79.67853249478998
12126.0 79.35319623929998
12553.7 77.52891282816633
12996.1 76.79082585292052
13454.6 78.46787614314034
13929.2 77.97047893614923
14419.9 76.20519173692185
14928.2 69.6713566178711
15455.6 70.66141750821079
16000.5 67.18208267663441
16564.5 67.16696755943404
17148.9 66.6585918962772
17752.4 66.20983087270973
18379.4 67.57829520446276
19026.9 71.19981774209172
19697.8 73.06358839393378
19999.5 75.41169790058542
