Freq "Front Wall Bounce"
20.5078 56.47890017315849
21.9727 55.123382785771284
23.4375 57.09351467722986
24.9023 59.252396962682624
26.3672 60.03325107215311
27.832 61.12982248175912
29.2969 62.88214403015634
30.7617 63.51677391479366
32.2266 64.76679481367692
33.6914 65.76283601720279
35.1562 66.839496356451
36.6211 68.33221947907406
38.0859 69.69203114887293
39.5508 70.84896843221969
41.0156 72.10380454345596
42.4805 73.1309268547571
43.9453 74.52247414508453
45.4102 75.74051893004645
46.875 77.04955615220621
48.3398 78.39558967811784
51.2695 80.92940145105747
52.7344 82.18016672114268
54.1992 83.37550948887652
55.6641 84.48863117956243
58.5938 86.17677824523123
60.0586 86.80052805933137
62.9883 87.77288240966357
64.4531 88.05284008348076
67.3828 88.3251683628768
68.8477 88.39845870378404
71.7773 88.49972330278918
74.707 88.5359234960474
77.6367 88.53255640302119
79.1016 88.52655760709477
82.0312 88.56016455626147
84.9609 88.63709763787556
87.8906 88.63118013352064
90.8203 88.74176594119248
95.2148 88.99647995707014
98.1445 89.07055027595817
101.074 89.03607121473237
105.469 89.38810801690788
108.398 89.73071449225549
112.793 90.01360677238004
117.188 90.29741011745874
120.117 90.49013873574454
124.512 90.73826740994095
128.906 90.8705450217864
133.301 90.96635416361879
139.16 91.04725869686072
143.555 91.07698892354472
147.949 91.09031070716331
153.809 91.24793083404096
159.668 91.35589718492204
165.527 91.38037215614158
171.387 91.24493601002548
177.246 91.06526204308825
183.105 90.72062863381116
188.965 90.81381434395293
196.289 90.88048510206671
203.613 90.7526990103457
210.938 90.72730106474886
218.262 90.2386571657467
225.586 90.31683203169594
232.91 90.22297193869015
241.699 90.0828222930268
250.488 90.34403170960577
259.277 90.1454069669622
268.066 89.62820963115774
276.855 89.46870569975567
287.109 89.19525666163403
297.363 89.83118123702481
307.617 89.29162286393783
319.336 89.37415812217694
329.59 88.79977184085415
341.309 88.43533443052347
353.027 89.09220704868393
366.211 90.64190792965867
379.395 89.65502456335187
392.578 89.27531888579692
405.762 89.18160040237858
420.41 89.43011148362358
435.059 89.0985263973118
451.172 89.54275598678164
465.82 89.08277426024246
483.398 88.74766736859479
499.512 88.94755996339292
517.09 89.23644853699761
536.133 89.68771197119631
555.176 89.4321102091916
574.219 90.48846075907298
594.727 91.57803987872379
615.234 91.75889805135832
637.207 92.26105920283301
659.18 91.60994343019583
682.617 90.87086029580642
707.52 90.93880488842127
732.422 90.25441187350533
757.324 89.7170022043307
785.156 89.26772594257974
811.523 89.07190154809996
840.82 88.53546527968136
870.117 88.50203309227034
900.879 88.47766512796683
933.105 89.15137844358632
965.332 89.56266744865796
1000.49 90.20110984107907
1035.64 90.7041088886423
1072.27 92.5644643751008
1108.89 93.00589782321217
1148.44 92.36307809934735
1189.45 91.95741831994312
1230.47 92.61450589688451
1274.41 93.61196259122464
1319.82 92.71109380073602
1366.7 90.36675822388864
1413.57 88.28544229780339
1463.38 85.58063992365041
1516.11 84.42630404889367
1568.85 83.8965430377309
1624.51 82.59333342971324
1681.64 81.92036788257637
1741.7 82.40913757275487
1803.22 82.88651927037812
1866.21 82.99317591269747
1932.13 83.09378559299802
1999.51 84.24854421930412
2069.82 85.41537198747947
2143.07 85.61677618342942
2219.24 85.67784917671071
2296.88 86.86969300624952
2378.91 87.15985009570521
2462.4 86.48035419906967
2548.83 87.81679436543807
2639.65 89.00595681002136
2731.93 88.35059945406059
2828.61 88.68681757556487
2928.22 89.09227108444516
3030.76 88.69881467442497
3137.7 88.48985031466165
3249.02 89.15312856596886
3363.28 89.23617648573305
3481.93 89.38501407282553
3604.98 89.26500150837518
3732.42 89.44286889482727
3864.26 88.74825388871496
4000.49 89.83142624409693
4141.11 90.4762278858559
4287.6 90.713104993742
4438.48 90.60572811420022
4595.21 91.0075267595028
4756.35 91.14382373584884
4924.8 90.79692636938869
5097.66 90.10716101877539
5277.83 89.38452666141407
5463.87 89.995987406837
5657.23 89.66990755241652
5856.45 89.54210587233774
6062.99 89.08810912727836
6276.86 89.81226059120651
6498.05 90.11647513745042
6726.56 90.91802192574315
6963.87 92.06153011573454
7209.96 92.16578493217703
7464.84 91.42360114073593
7727.05 90.39295212738308
7999.51 89.6344031259237
8282.23 89.50939155963368
8573.73 89.87064394980358
8876.95 90.16372519666595
9188.96 90.32222332119231
9514.16 90.27099346587073
9849.61 90.94098405452088
10196.8 92.1328645735266
10555.7 92.84166331800408
10927.7 92.30109842499985
11313.0 91.67328181426866
11712.9 91.53642088949296
12126.0 91.65629330702494
12553.7 91.67531961924021
12996.1 92.09074021284029
13454.6 90.66605769688442
13929.2 89.09914585271183
14419.9 88.70684370892288
14928.2 88.1596313505714
15455.6 87.37103606213842
16000.5 87.85091654232379
16564.5 87.69331821058822
17148.9 86.79319694083391
17752.4 87.2930597254691
18379.4 85.48658427412194
19026.9 83.98950369330448
19697.8 85.6781014988919
19999.5 85.7646263812154
