Freq,Floor Bounce,Ceiling Bounce,Front Wall Bounce,Side Wall Bounce,Rear Wall Bounce,Total Early Reflection
22.4,-7.699232505544359,-8.499232505544398,-8.170205002440952,-9.014226342764857,-12.04340280797723,-8.850687099010543
23.0,-6.099232505544364,-6.899232505544404,-6.513155538369432,-7.382089772940134,-10.353367654674713,-7.222409945588964
23.6,-4.433078148839513,-5.266410173120022,-4.913155538369438,-5.682089772940117,-8.658998423813017,-5.569586610299012
24.0,-2.833078148839462,-3.666410173119999,-3.3131555383694717,-4.06611445330941,-6.977127865347711,-3.95836650082569
25.0,-1.2330781488394962,-2.066410173120005,-1.656860604662171,-2.466114453309416,-5.325168408996802,-2.34004089171529
25.8,0.3007674944555845,-0.49923250554437004,-0.11315553836945469,-0.8661144533093932,-3.7077176667687297,-0.7754255564448727
26.5,1.9007674944556072,1.0335898268799895,1.486844461630568,0.7107752224427486,-2.091281557444148,0.8074953843318724
27.2,3.400767494455607,2.600767494455596,3.01508314243884,2.266775576949925,-0.4912815574441538,2.349583355394259
28.0,4.933589826879967,4.100767494455624,4.543139395337818,3.8438400721822745,1.1075861210319715,3.890004924006263
29.0,6.5007674944556015,5.633589826879984,6.115083142438863,5.383315548986047,2.740671771779489,5.452638869557717
30.0,8.00076749445563,7.200767494455619,7.64313939533784,6.960467456999027,4.340671771779483,6.999218345404785
30.7,9.566921851160487,8.700767494455619,9.215083142438829,8.516970903996565,5.931870014654834,8.553759279325476
31.5,11.133589826879984,10.300767494455584,10.800657860694258,10.116970903996588,7.5745007333286765,10.146698627699976
32.5,12.700767494455619,11.900767494455607,12.415083142438846,11.716970903996582,9.226193685433941,11.747601931406194
33.5,14.366921851160527,13.500767494455602,14.01508314243884,13.372029523591124,10.92041996237171,13.385702990689396
34.5,15.966921851160492,15.100767494455596,15.64313939533784,15.011508381926063,12.624754746881507,15.012009060184084
35.5,17.633589826879984,16.70076749445562,17.315083142438823,16.668522558049148,14.330753584641315,16.66901428879129
36.5,19.266921851160504,18.400767494455607,18.971662753918906,18.34611951545824,16.08238743685743,18.343987969946852
37.5,20.933589826879967,20.00076749445563,20.64313939533784,20.024114208098098,17.784710998066373,20.00488135392382
38.7,22.566921851160487,21.70076749445562,22.243139395337835,21.663924315229025,19.499790686034743,21.655113098150167
40.0,24.166921851160538,23.300767494455613,23.900657860694253,23.32411420809811,21.215916823570183,23.294668098939525
41.2,25.833589826879972,24.900767494455607,25.51508314243884,24.94200926603449,22.91017380869718,24.92969340196595
42.5,27.400000000000006,26.5007674944556,27.115083142438863,26.559426032706995,24.59309272758796,26.53546622414308
43.7,29.0,28.03513059177982,28.71508314243883,28.177589071812605,26.254680764369027,28.13413317969912
45.0,30.599999999999994,29.635130591779813,30.31508314243885,29.777589071812628,27.918543068063485,29.74247209092775
46.2,32.20000000000002,31.235130591779836,31.943139395337823,31.39932576096669,29.602156178752494,31.364327695676337
47.5,33.86692185116053,32.83513059177983,33.5716627539189,33.05574304178967,31.31983920604077,33.01427860713747
48.7,35.5,34.50076749445563,35.243139395337835,34.7136983727963,33.03880361097799,34.67906434664485
50.0,37.20000000000002,36.168450838054326,36.915083142438846,36.43428759235064,34.79397773184641,36.37828774112674
51.5,38.900000000000006,37.86845083805434,38.64313939533781,38.19203367991861,36.57469762914576,38.10764968510668
53.0,40.70000000000002,39.63513059177981,40.44313939533782,39.970757208172984,38.40759327879539,39.901674613480054
54.5,42.5,41.40306957104252,42.243139395337806,41.770757208172995,40.27052453061842,41.7046527958976
56.0,44.29999999999998,43.235130591779836,44.0716627539189,43.65034056676339,42.20385925717713,43.55264411821332
58.0,46.20000000000002,45.10306957104251,45.971662753918906,45.52885834471027,44.1215215323098,45.444910375089734
60.0,48.099999999999994,47.003069571042516,47.87166275391891,47.470757208172984,46.08566415406892,47.36298641074265
61.5,50.066921851160515,48.90306957104252,49.84313939533783,49.40776195459904,48.07309378756932,49.31563507930977
63.0,52.0,50.8030695710425,51.814427463397436,51.40776195459901,50.11655239955178,51.28183329624153
65.0,54.06692185116049,52.8030695710425,53.8431393953378,53.42885834471031,52.17902694221331,53.31808561433249
67.0,56.066921851160515,54.80306957104253,55.8431393953378,55.4865625857353,54.24870139301561,55.34075089345606
69.0,58.06692185116049,56.8030695710425,57.886184505019486,57.52614189391599,56.33338437270754,57.37187582701034
71.0,60.0669218511605,58.738211298887435,59.87166275391891,59.526141893916005,58.36892293608855,59.36292685202085
73.0,61.96692185116049,60.63821129888743,61.814427463397465,61.46574531555092,60.3568726857753,61.29486824757561
75.0,63.86692185116051,62.438211298887424,63.71442746339747,63.40503227205076,62.307456936864384,63.194280244229745
77.5,65.63435140868503,64.2069050103546,65.48618450501948,65.18430355678365,64.14342131177703,64.97662616385823
80.0,67.30076749445563,65.80690501035458,67.1716627539189,66.88430355678364,65.89551327935975,66.65763042207217
82.5,68.86845083805434,67.30690501035458,68.74313939533782,68.46395064819495,67.51447232009131,68.22630571882962
85.0,70.30076749445561,68.70690501035459,70.21442746339747,69.94302444611574,69.02885964238413,69.68613897032495
87.5,71.60076749445561,69.97609175449222,71.54313939533782,71.30365179665252,70.41724567522928,71.01594656129767
90.0,72.83513059177983,71.14283030471972,72.7716627539189,72.52247670301969,71.69365179564983,72.24246895782676
92.5,73.93663575667186,72.17928732607432,73.87166275391891,73.66255705027366,72.87125503128064,73.35539142376123
95.0,74.93663575667185,73.11227178315617,74.91442746339747,74.70183128020241,73.94795353461247,74.37718408233498
97.5,75.83663575667187,73.94898514879551,75.84313939533781,75.66119474234183,74.94795353461247,75.30543169420771
100.0,76.63663575667186,74.6489851487955,76.67166275391891,76.50183128020241,75.84795353461246,76.12489417287242
103.0,77.37150800786938,75.31916705502752,77.44313939533782,77.28156054014522,76.65777100656574,76.88292128643903
106.0,78.03663575667186,75.91916705502754,78.14313939533781,77.96119474234183,77.39241430885343,77.56346155049452
109.0,78.6069050103546,76.42758719283592,78.74313939533782,78.60046051294916,78.0533763887722,78.16489124814285
112.0,79.14044167945491,76.82758719283594,79.27166275391892,79.14073299106127,78.65851282035086,78.69521547292032
115.0,79.57609175449221,77.16588846059688,79.74313939533782,79.60046051294918,79.16853433889533,79.14675542805989
118.0,79.94044167945492,77.46588846059689,80.17166275391891,80.0201850554159,79.61427821935654,79.54658527343594
122.0,80.24576719438468,77.63752777300027,80.54313939533782,80.36027588070905,80.00340390786809,79.87590633400367
125.0,80.5457671943847,77.77662798253905,80.84313939533781,80.64027672897046,80.33401609271488,80.15887052848622
128.0,80.71592692226706,77.84898359150841,81.0716627539189,80.84027672897047,80.59127652040439,80.35653474238454
132.0,80.91592692226706,77.88888547155003,81.2716627539189,81.0201850554159,80.8169148755312,80.53980218548213
136.0,81.05260953202217,77.86194867563765,81.44313939533782,81.16074062498237,80.97427239741644,80.67259285904896
140.0,81.12349685065979,77.8026545034034,81.5716627539189,81.26074062498236,81.10604717223441,80.76354472460045
145.0,81.26096514237182,77.7179278976485,81.71508314243884,81.3018524816124,81.16928225946195,80.84285243726511
150.0,81.33257218046558,77.592378988098,81.81508314243884,81.34260029820791,81.20109907622407,80.88719013249043
155.0,81.37082970284297,77.47757950460712,81.9437907541973,81.38436742920607,81.20666923465365,80.92777413138666
160.0,81.40464502318535,77.32875610128315,82.04379075419729,81.4463016485018,81.19626670199045,80.95916567326422
165.0,81.48219812790056,77.14915203998831,82.14379075419728,81.46819510296835,81.14459676508346,80.98123038830455
170.0,81.55521969308379,76.97100612011482,82.2874892989204,81.51250022107087,81.09301649255467,81.02063890548081
175.0,81.62869245367797,76.76268190818898,82.38748929892043,81.55604134921288,81.00901980370314,81.04130765104382
180.0,81.66878033996791,76.51904449785343,82.51508314243884,81.60229885570998,80.90972900877796,81.05909185161795
185.0,81.64293979360191,76.1931748750689,82.58748929892042,81.62391252849704,80.78962063747733,81.03345122851388
190.0,81.65866027600833,75.9017460112477,82.68748929892041,81.66813431484034,80.68057825194742,81.03733861924997
195.0,81.63392832814569,75.48246753146327,82.72979499755904,81.68991825853371,80.57035146042371,81.00445465411862
200.0,81.5517743753474,75.04885135917306,82.72979499755904,81.68991825853371,80.46027906260198,80.9423842128052
206.0,81.42812100489948,74.52057765478031,82.68748929892041,81.65153631355072,80.30330633673543,80.83809877693221
212.0,81.29179815677408,73.89751749841196,82.60229476693692,81.62851997340488,80.17336554430759,80.72477867824344
218.0,81.06941986366729,73.25126502581492,82.55840584504061,81.58668237198825,80.01701114120591,80.59784158035998
224.0,80.8708338338135,72.55269579506134,82.45840584504062,81.54520600354644,79.86054053426307,80.46032791744747
230.0,80.6752382379475,71.7988231392986,82.35840584504061,81.4807878949703,79.73509929912879,80.32449485918454
236.0,80.40199903162157,71.07610694060922,82.22979499755904,81.41689929523903,79.60209156685006,80.16559463461935
240.0,80.21124970721758,70.42997394682727,82.15840584504062,81.33700614024073,79.43681245854624,80.03710695296061
250.0,80.02330268140095,69.86937334571007,82.08748929892042,81.23700614024071,79.28058786016271,79.9091057531133
258.0,79.8380832135172,69.42602931574095,82.01508314243884,81.15945612203076,79.13333410100827,79.79232461674907
265.0,79.6555162679561,69.18509485802375,81.98748929892042,81.08078789497029,78.96149275405341,79.69122167006954
272.0,79.46035296980749,69.1827942682777,81.98748929892042,81.0067529730592,78.82965478477662,79.61040541501788
280.0,79.30489348120857,69.37882682230878,81.98748929892042,80.91313953999232,78.66556533342694,79.5313672583394
290.0,79.11832710287034,69.7465455524053,82.01508314243884,80.84088907971778,78.51257115533824,79.4690806482393
300.0,78.93571312990129,70.26948999020775,82.01508314243884,80.80700992835956,78.38209417049427,79.4177537394025
307.0,78.80316376986723,70.85840416724977,82.01508314243884,80.73122730884782,78.25050746685021,79.36834282363816
315.0,78.58881761960129,71.47334521843885,81.98748929892042,80.71524218999727,78.15925987887792,79.32153971739054
325.0,78.38023038165939,72.03694108962635,81.98748929892042,80.65523826903811,78.01474339605404,79.26838152228594
335.0,78.16879501847296,72.66423540208854,81.92979499755904,80.63276641677855,77.93838323803631,79.2210665489891
345.0,77.93583270715516,73.17610294583498,81.88748929892041,80.58636069648989,77.82026678766228,79.16325424023587
355.0,77.64493320431455,73.65810399432428,81.80229476693692,80.55876922673914,77.72277795151021,79.09256741696386
365.0,77.40606687155638,74.06615422006834,81.67525122642458,80.49609597562674,77.57838068461378,78.99782163099235
375.0,77.04298983639973,74.41125159582658,81.57525122642457,80.43093977004216,77.42001051864833,78.89406244249723
387.0,76.74624641566646,74.72496449391053,81.43175513861905,80.3491171708724,77.23012117398827,78.7762998030606
400.0,76.39078318005505,74.98021043702585,81.24675150375353,80.20736755478993,77.00121799372923,78.61312021848788
412.0,76.03335968845377,75.18715219471243,81.07525122642456,80.07049966243878,76.70448350304082,78.44706129611626
425.0,75.61896578503735,75.26784633169402,80.88748929892043,79.87331519860933,76.40540376329648,78.24262816717204
437.0,75.29707244895025,75.33779821661223,80.68748929892041,79.6617730885644,76.07495267956324,78.03737423958266
450.0,74.92365523867267,75.27182978310015,80.51508314243884,79.52796736189015,75.78751002144338,77.8524427847288
462.0,74.66013040727711,75.13647412390415,80.31508314243884,79.35613274588381,75.50438793946137,77.6512836680998
475.0,74.40815253786566,74.9098662867233,80.21442746339747,79.28558067032841,75.29739668681253,77.51778350006883
487.0,74.22230786812673,74.64576719438469,80.17166275391891,79.18558067032842,75.13232170053013,77.40548354940093
500.0,74.1090009308823,74.40722417372365,80.2,79.2330323829488,75.08805608753437,77.39002723125077
515.0,74.13315940024854,74.21832676913883,80.21442746339747,79.32520313583444,75.1191342638813,77.41132040509252
530.0,74.19168843870095,74.12129830443602,80.4,79.47516879937908,75.22786599215678,77.53849161181185
545.0,74.28368519854635,74.08327228731432,80.5716627539189,79.62456733754284,75.40400060037854,77.6776761991377
560.0,74.510055742993,74.00137892277061,80.77166275391889,79.87528593102965,75.6294221420921,77.87523302204728
580.0,74.67347432014796,73.87833425668983,80.9716627539189,80.08372910476362,75.86387921509191,78.05310550262288
600.0,74.86795072971059,73.56604114575636,81.11508314243883,80.27590847828134,76.09264693354413,78.19422077084273
615.0,75.05578947403316,72.99071920437908,81.22979499755904,80.38804608481396,76.2901541250162,78.2812167638934
630.0,75.16308234883941,72.18099763229999,81.32979499755905,80.48434662681626,76.46335765386294,78.34131162281295
650.0,75.27366189430111,71.11715250571447,81.33175513861906,80.52342518384303,76.57159916979391,78.33426129872942
670.0,75.28346763951382,69.80566895210032,81.33175513861906,80.5018524816124,76.65071699761603,78.29560765613553
690.0,75.09126490972916,68.32165173158812,81.27525122642457,80.44212273735354,76.74106294102364,78.21058766082552
710.0,74.75810399432427,66.6769614835558,81.24675150375353,80.44165599637157,76.81893926832834,78.15034739241933
730.0,74.24281972990212,64.91003436195219,81.31998423401444,80.4224767030197,76.96271841077447,78.13028640335409
750.0,73.41442050468812,63.25859064383599,81.39366590096782,80.46211340960693,77.08138644448627,78.11842185303206
775.0,72.48918406427573,62.83878157203446,81.51998423401443,80.5023023206405,77.26023458787563,78.15632720960137
800.0,71.64708769025233,64.0557796667664,81.66528715999551,80.56213480580067,77.40672867551736,78.23144921958695
825.0,70.99194749617875,65.84116609315839,81.79366590096782,80.58390520653757,77.45772164903518,78.29457610843903
850.0,70.578425699414,67.40182050037645,81.89366590096782,80.52816699501686,77.44110645081281,78.32492190524513
875.0,70.26354988163304,68.47722017270897,81.89366590096782,80.41273747553458,77.33190306326793,78.2787695314664
900.0,69.83040938851346,69.1405876018136,81.89366590096782,80.2193124843692,77.12575133396659,78.18553492056252
925.0,69.27503428220238,69.36164828862923,81.77848478147017,80.00893710646703,76.87437484134705,78.01540281949461
950.0,68.68472181991268,69.36583510321339,81.65000634017072,79.76261531004641,76.57566284248331,77.8158376848092
975.0,68.04503046635384,69.12347613728205,81.5048949937362,79.51756043366302,76.29831000560627,77.60555619248319
1000.0,67.29500059240536,68.85081528908938,81.34865957364794,79.31571365418267,76.05239590692715,77.40633676137325
1030.0,66.60780688674015,68.69610594191717,81.23175513861906,79.15117667519372,75.8560274854339,77.2515635426227
1060.0,66.1496837787603,68.5912022555899,81.16035311823195,79.02037887624799,75.67810179005686,77.1391232059309
1090.0,65.98177997241297,68.51575424577993,81.06035311823196,78.9396974375363,75.54318517952628,77.03974142697982
1120.0,66.2299114115576,68.1780292568075,80.98748929892042,78.89519170277805,75.39883034883866,76.963645480521
1150.0,66.92618710391504,67.5267414815038,80.93108675663174,78.82422155826883,75.23389137630664,76.88688081427283
1180.0,67.97296429705676,66.33026843592366,80.88748929892043,78.7818581113348,75.05782895736561,76.82735596970089
1220.0,69.19503865849019,64.72005017382767,80.7874892989204,78.72360305457225,74.80799107532921,76.73838486631641
1250.0,70.47333854596832,62.76260830985814,80.7874892989204,78.6155882582597,74.47842565725362,76.69632028053105
1280.0,71.67673555651385,61.209223255668505,80.68748929892041,78.49150344822617,74.09373712517043,76.6182790057617
1320.0,72.67296429705677,60.93726217437671,80.60229476693692,78.33321147308396,73.61103632361736,76.54593282919106
1360.0,73.35741285590576,61.63051373337541,80.56035311823194,78.19584294004392,73.11883893980286,76.50120967990452
1400.0,73.77789079450554,62.547440336974745,80.50489499373622,78.06506807430449,72.61895019620653,76.44078944655679
1450.0,74.03513059177982,63.255478380345494,80.47848478147016,77.90360445221557,72.11669454210349,76.37645127258176
1500.0,74.18652064166793,63.850021874896285,80.49366590096781,77.79322443576119,71.67740436975825,76.34603138007006
1550.0,74.36810685779119,64.52015721102289,80.49366590096781,77.68305667228299,71.25541159417733,76.31884957662662
1600.0,74.60284542601579,65.26945312561708,80.5136394060688,77.6129955913727,70.95005755376363,76.33348133969898
1650.0,74.80055227763727,66.19643568420723,80.5136394060688,77.52309358362498,70.7001573899063,76.33885916875184
1700.0,75.06923444013117,66.96803106656233,80.56005936857912,77.47843932097848,70.51293851634574,76.39645136014687
1750.0,75.28727125020183,67.58888547155004,80.58847217927516,77.38885469295306,70.38284744904259,76.42999875053751
1800.0,75.43851033412415,67.87928732607432,80.63516047995819,77.35561516803439,70.28318882730673,76.47259553840763
1850.0,75.5471614350532,68.03435140868501,80.6106896630263,77.26657817795521,70.20050499289582,76.45600515155023
1900.0,75.6163172782191,67.97215664893682,80.58242230727826,77.17776797377451,70.13923728533365,76.4267004965019
1950.0,75.64936014792421,67.79340724183763,80.558217088195,77.08918864511193,70.09580078864468,76.39161594397649
2000.0,75.56656188191197,67.42153112641279,80.52683455312959,77.00084433034517,70.0211345140923,76.32713492708976
2060.0,75.5246995783384,67.0381037597138,80.47455785944568,76.91256700363263,69.91087768426293,76.25729863381787
2120.0,75.4806595633978,66.4917523226712,80.45086213388186,76.82442986925892,69.8340279046501,76.20093552925138
2180.0,75.38901571264104,65.80395845013105,80.45086213388186,76.76718228055803,69.71998930233586,76.15338140686087
2240.0,75.25942156664028,65.00810982179615,80.45086213388186,76.69792789481033,69.62027107813802,76.09788486665192
2300.0,75.21729398557127,64.01115762596616,80.45086213388186,76.68626436923492,69.55567870838343,76.0714695661421
2360.0,75.1403116717635,63.18602474296816,80.45086213388186,76.71059738480201,69.55065489555616,76.05494825805805
2400.0,75.07560549298628,62.5378395430439,80.45086213388186,76.72939227391912,69.51324237900482,76.0410141602621
2500.0,75.02304107952823,62.19517009172155,80.46761108534183,76.81807697570096,69.57274883975882,76.06257985838396
2580.0,74.9973538633012,62.216576774053266,80.5228558880836,76.9326484372748,69.67991629405118,76.12148456658326
2650.0,74.91142547763792,62.547735812445154,80.55086213388185,77.03264843727482,69.76523397714666,76.15479974426543
2720.0,74.90700053842448,62.99352251585725,80.65086213388184,77.17776797377451,69.90759753718493,76.25549657447746
2800.0,74.81838289653008,63.48980513870198,80.67455785944568,77.33631643203202,70.04698323371021,76.30687108849875
2900.0,74.72689216844304,63.85359059894199,80.77455785944568,77.48218256754129,70.16079657721814,76.39544833725977
3000.0,74.54460809313535,64.07283899448727,80.79867242696348,77.64146382424266,70.2636768008638,76.433358840625
3070.0,74.36377341277216,64.15033981283419,80.79867242696348,77.74146382424266,70.32937876878742,76.44124787712514
3150.0,74.18988236549818,63.988218351634416,80.83516047995819,77.83043715305537,70.35838934417629,76.46384651845389
3250.0,73.91423455486665,63.622570592307525,80.7600593685791,77.90432908690207,70.32398574535253,76.40584464041153
3350.0,73.66959103308045,63.18905961262348,80.73924275721991,77.95874831080552,70.21098395362768,76.3732161776642
