Freq "Rear Wall Bounce"
22.4 -12.04340280797723
23.0 -10.353367654674713
23.6 -8.658998423813017
24.0 -6.977127865347711
25.0 -5.325168408996802
25.8 -3.7077176667687297
26.5 -2.091281557444148
27.2 -0.4912815574441538
28.0 1.1075861210319715
29.0 2.740671771779489
30.0 4.340671771779483
30.7 5.931870014654834
31.5 7.5745007333286765
32.5 9.226193685433941
33.5 10.92041996237171
34.5 12.624754746881507
35.5 14.330753584641315
36.5 16.08238743685743
37.5 17.784710998066373
38.7 19.499790686034743
40.0 21.215916823570183
41.2 22.91017380869718
42.5 24.59309272758796
43.7 26.254680764369027
45.0 27.918543068063485
46.2 29.602156178752494
47.5 31.31983920604077
48.7 33.03880361097799
50.0 34.79397773184641
51.5 36.57469762914576
53.0 38.40759327879539
54.5 40.27052453061842
56.0 42.20385925717713
58.0 44.1215215323098
60.0 46.08566415406892
61.5 48.07309378756932
63.0 50.11655239955178
65.0 52.17902694221331
67.0 54.24870139301561
69.0 56.33338437270754
71.0 58.36892293608855
73.0 60.3568726857753
75.0 62.307456936864384
77.5 64.14342131177703
80.0 65.89551327935975
82.5 67.51447232009131
85.0 69.02885964238413
87.5 70.41724567522928
90.0 71.69365179564983
92.5 72.87125503128064
95.0 73.94795353461247
97.5 74.94795353461247
100.0 75.84795353461246
103.0 76.65777100656574
106.0 77.39241430885343
109.0 78.0533763887722
112.0 78.65851282035086
115.0 79.16853433889533
118.0 79.61427821935654
122.0 80.00340390786809
125.0 80.33401609271488
128.0 80.59127652040439
132.0 80.8169148755312
136.0 80.97427239741644
140.0 81.10604717223441
145.0 81.16928225946195
150.0 81.20109907622407
155.0 81.20666923465365
160.0 81.19626670199045
165.0 81.14459676508346
170.0 81.09301649255467
175.0 81.00901980370314
180.0 80.90972900877796
185.0 80.78962063747733
190.0 80.68057825194742
195.0 80.57035146042371
200.0 80.46027906260198
206.0 80.30330633673543
212.0 80.17336554430759
218.0 80.01701114120591
224.0 79.86054053426307
230.0 79.73509929912879
236.0 79.60209156685006
240.0 79.43681245854624
250.0 79.28058786016271
258.0 79.13333410100827
265.0 78.96149275405341
272.0 78.82965478477662
280.0 78.66556533342694
290.0 78.51257115533824
300.0 78.38209417049427
307.0 78.25050746685021
315.0 78.15925987887792
325.0 78.01474339605404
335.0 77.93838323803631
345.0 77.82026678766228
355.0 77.72277795151021
365.0 77.57838068461378
375.0 77.42001051864833
387.0 77.23012117398827
400.0 77.00121799372923
412.0 76.70448350304082
425.0 76.40540376329648
437.0 76.07495267956324
450.0 75.78751002144338
462.0 75.50438793946137
475.0 75.29739668681253
487.0 75.13232170053013
500.0 75.08805608753437
515.0 75.1191342638813
530.0 75.22786599215678
545.0 75.40400060037854
560.0 75.6294221420921
580.0 75.86387921509191
600.0 76.09264693354413
615.0 76.2901541250162
630.0 76.46335765386294
650.0 76.57159916979391
670.0 76.65071699761603
690.0 76.74106294102364
710.0 76.81893926832834
730.0 76.96271841077447
750.0 77.08138644448627
775.0 77.26023458787563
800.0 77.40672867551736
825.0 77.45772164903518
850.0 77.44110645081281
875.0 77.33190306326793
900.0 77.12575133396659
925.0 76.87437484134705
950.0 76.57566284248331
975.0 76.29831000560627
1000.0 76.05239590692715
1030.0 75.8560274854339
1060.0 75.67810179005686
1090.0 75.54318517952628
1120.0 75.39883034883866
1150.0 75.23389137630664
1180.0 75.05782895736561
1220.0 74.80799107532921
1250.0 74.47842565725362
1280.0 74.09373712517043
1320.0 73.61103632361736
1360.0 73.11883893980286
1400.0 72.61895019620653
1450.0 72.11669454210349
1500.0 71.67740436975825
1550.0 71.25541159417733
1600.0 70.95005755376363
1650.0 70.7001573899063
1700.0 70.51293851634574
1750.0 70.38284744904259
1800.0 70.28318882730673
1850.0 70.20050499289582
1900.0 70.13923728533365
1950.0 70.09580078864468
2000.0 70.0211345140923
2060.0 69.91087768426293
2120.0 69.8340279046501
2180.0 69.71998930233586
2240.0 69.62027107813802
2300.0 69.55567870838343
2360.0 69.55065489555616
2400.0 69.51324237900482
2500.0 69.57274883975882
2580.0 69.67991629405118
2650.0 69.76523397714666
2720.0 69.90759753718493
2800.0 70.04698323371021
2900.0 70.16079657721814
3000.0 70.2636768008638
3070.0 70.32937876878742
3150.0 70.35838934417629
3250.0 70.32398574535253
3350.0 70.21098395362768
3450.0 70.07175628505047
3550.0 69.92257470513697
3650.0 69.74411471134138
3750.0 69.55242344852397
3870.0 69.37071326239908
4000.0 69.20945675248016
4120.0 69.05543336184422
4250.0 68.92592744429491
4370.0 68.83707602773273
4500.0 68.7549024323121
4620.0 68.6796945523129
4750.0 68.59957196218316
4870.0 68.54845167556408
5000.0 68.45879580681506
5150.0 68.40488460513366
5300.0 68.31893943844642
5450.0 68.21216599467479
5600.0 68.11623579593922
5800.0 68.03291238657886
6000.0 67.90938713034676
6150.0 67.79711387593534
6300.0 67.68892078678948
6500.0 67.54574228689387
6700.0 67.43440011586765
6900.0 67.29305683533634
7100.0 67.1640401694644
7300.0 66.99886847327204
7500.0 66.86152465867906
7750.0 66.72961592364186
8000.0 66.57506381494943
8250.0 66.4549841581201
8500.0 66.33361486797544
8750.0 66.20572673451969
9000.0 66.06336049432315
9250.0 65.90421306284185
9500.0 65.70075956736963
9750.0 65.42684368006726
10000.0 65.12496168531764
10300.0 64.74167535764234
10600.0 64.2469363725486
10900.0 63.73611417192761
11200.0 63.25195661895461
11500.0 62.73900314882894
11800.0 62.259372877330506
12200.0 61.87924566607448
12500.0 61.55159581284789
12800.0 61.30672587080201
13200.0 61.103639517530425
13600.0 60.94159078447305
14000.0 60.79218862805894
14500.0 60.597288770963274
15000.0 60.28749336635639
15500.0 59.88207371692468
16000.0 59.27979210144014
16500.0 58.52583479720593
17000.0 57.61241210823093
17500.0 56.5811787069274
18000.0 55.47251017103554
18500.0 54.351697289941995
19000.0 53.2367384606124
19500.0 52.23224921096531
