Freq "On Axis"
22.4 37.76582278481014
23.0 39.16582278481012
23.6 40.56582278481012
24.0 42.46582278481013
25.0 44.06582278481012
25.8 45.365822784810135
26.5 46.66582278481012
27.2 48.365822784810135
28.0 49.865822784810135
29.0 51.16582278481012
30.0 52.46582278481013
30.7 53.96582278481013
31.5 55.365822784810135
32.5 56.56582278481012
33.5 58.06582278481012
34.5 59.365822784810135
35.5 60.56582278481012
36.5 61.865822784810135
37.5 62.96582278481013
38.7 64.06582278481012
40.0 65.16582278481012
41.2 66.16582278481015
42.5 67.06582278481014
43.7 67.96582278481013
45.0 68.76582278481011
46.2 69.56582278481014
47.5 70.36582278481013
48.7 71.06582278481014
50.0 71.76582278481013
51.5 72.46582278481013
53.0 73.06582278481014
54.5 73.66582278481015
56.0 74.26582278481013
58.0 74.86582278481013
60.0 75.36582278481013
61.5 75.96582278481013
63.0 76.56582278481012
65.0 77.06582278481014
67.0 77.66582278481012
69.0 78.16582278481013
71.0 78.76582278481011
73.0 79.26582278481013
75.0 79.76582278481014
77.5 80.26582278481013
80.0 80.66582278481013
82.5 81.06582278481014
85.0 81.46582278481013
87.5 81.86582278481013
90.0 82.16582278481013
92.5 82.46582278481013
95.0 82.66582278481012
97.5 82.96582278481013
100.0 83.16582278481013
103.0 83.36582278481013
106.0 83.46582278481013
109.0 83.66582278481015
112.0 83.86582278481013
115.0 83.96582278481013
118.0 84.06582278481012
122.0 84.26582278481013
125.0 84.36582278481013
128.0 84.46582278481013
132.0 84.46582278481013
136.0 84.56582278481014
140.0 84.66582278481013
145.0 84.66582278481013
150.0 84.66582278481013
155.0 84.76582278481014
160.0 84.66582278481013
165.0 84.66582278481013
170.0 84.56582278481014
175.0 84.56582278481014
180.0 84.36582278481013
185.0 84.26582278481013
190.0 84.06582278481012
195.0 83.86582278481013
200.0 83.66582278481015
206.0 83.36582278481013
212.0 83.06582278481014
218.0 82.76582278481013
224.0 82.56582278481015
230.0 82.36582278481013
236.0 82.06582278481014
240.0 81.86582278481013
250.0 81.76582278481013
258.0 81.66582278481013
265.0 81.66582278481013
272.0 81.86582278481013
280.0 82.06582278481014
290.0 82.26582278481014
300.0 82.56582278481015
307.0 82.76582278481013
315.0 82.96582278481013
325.0 83.16582278481013
335.0 83.26582278481013
345.0 83.36582278481013
355.0 83.46582278481013
365.0 83.46582278481013
375.0 83.36582278481013
387.0 83.36582278481013
400.0 83.26582278481013
412.0 83.16582278481013
425.0 82.96582278481013
437.0 82.86582278481013
450.0 82.66582278481012
462.0 82.46582278481013
475.0 82.16582278481013
487.0 81.96582278481013
500.0 81.66582278481013
515.0 81.46582278481013
530.0 81.26582278481011
545.0 80.96582278481013
560.0 80.76582278481013
580.0 80.56582278481014
600.0 80.46582278481013
615.0 80.36582278481013
630.0 80.16582278481012
650.0 80.16582278481012
670.0 80.06582278481015
690.0 79.96582278481013
710.0 79.96582278481013
730.0 79.96582278481013
750.0 80.06582278481015
775.0 80.16582278481012
800.0 80.46582278481013
825.0 80.66582278481013
850.0 80.96582278481013
875.0 81.26582278481011
900.0 81.56582278481012
925.0 81.76582278481013
950.0 81.96582278481013
975.0 82.16582278481013
1000.0 82.36582278481013
1030.0 82.46582278481013
1060.0 82.56582278481015
1090.0 82.56582278481015
1120.0 82.46582278481013
1150.0 82.36582278481013
1180.0 82.26582278481014
1220.0 82.16582278481013
1250.0 82.16582278481013
1280.0 82.26582278481014
1320.0 82.36582278481013
1360.0 82.46582278481013
1400.0 82.56582278481015
1450.0 82.36582278481013
1500.0 82.06582278481014
1550.0 81.66582278481013
1600.0 81.16582278481015
1650.0 80.76582278481013
1700.0 80.56582278481014
1750.0 80.36582278481013
1800.0 80.36582278481013
1850.0 80.26582278481013
1900.0 80.26582278481013
1950.0 80.16582278481012
2000.0 80.06582278481015
2060.0 80.06582278481015
2120.0 80.06582278481015
2180.0 79.96582278481013
2240.0 79.96582278481013
2300.0 79.96582278481013
2360.0 80.16582278481012
2400.0 80.46582278481013
2500.0 80.76582278481013
2580.0 80.66582278481013
2650.0 80.26582278481013
2720.0 79.56582278481014
2800.0 79.16582278481013
2900.0 79.56582278481014
3000.0 80.46582278481013
3070.0 80.56582278481014
3150.0 80.26582278481013
3250.0 79.86582278481013
3350.0 79.76582278481014
3450.0 79.96582278481013
3550.0 79.96582278481013
3650.0 79.96582278481013
3750.0 79.96582278481013
3870.0 80.16582278481012
4000.0 80.36582278481013
4120.0 80.26582278481013
4250.0 80.26582278481013
4370.0 80.26582278481013
4500.0 80.36582278481013
4620.0 80.36582278481013
4750.0 80.46582278481013
4870.0 80.56582278481014
5000.0 80.86582278481013
5150.0 81.26582278481011
5300.0 81.86582278481013
5450.0 82.36582278481013
5600.0 82.56582278481015
5800.0 82.46582278481013
6000.0 82.26582278481014
6150.0 82.26582278481014
6300.0 82.56582278481015
6500.0 82.96582278481013
6700.0 83.16582278481013
6900.0 82.86582278481013
7100.0 82.36582278481013
7300.0 82.16582278481013
7500.0 82.36582278481013
7750.0 82.56582278481015
8000.0 82.46582278481013
8250.0 81.86582278481013
8500.0 81.56582278481012
8750.0 81.76582278481013
9000.0 81.76582278481013
9250.0 81.26582278481011
9500.0 80.76582278481013
9750.0 80.86582278481013
10000.0 81.16582278481015
10300.0 81.26582278481011
10600.0 81.26582278481011
10900.0 81.26582278481011
11200.0 81.46582278481013
11500.0 81.56582278481012
11800.0 81.46582278481013
12200.0 81.66582278481013
12500.0 81.76582278481013
12800.0 81.66582278481013
13200.0 81.26582278481011
13600.0 80.66582278481013
14000.0 79.86582278481013
14500.0 79.66582278481013
15000.0 80.06582278481015
15500.0 81.36582278481013
16000.0 81.46582278481013
16500.0 81.46582278481013
17000.0 80.66582278481013
17500.0 79.56582278481014
18000.0 79.16582278481013
18500.0 78.36582278481013
19000.0 78.06582278481014
19500.0 77.86582278481013
