Freq "Front Wall Bounce"
22.4 57.201270607530134
23.0 58.888656041379946
23.6 60.66211780246606
24.0 62.33019366875014
25.0 64.02223028032951
25.8 65.72710435881102
26.5 67.42303855273822
27.2 68.9743111667567
28.0 70.97232492078935
29.0 73.12880715674528
30.0 74.65742449135816
30.7 75.85742449135815
31.5 76.98651449586094
32.5 78.30065786069426
33.5 79.78651449586096
34.5 80.78651449586096
35.5 81.74478277687244
36.5 82.84478277687244
37.5 83.71608174351879
38.7 84.48651449586094
40.0 85.18651449586095
41.2 85.78651449586096
42.5 86.32946066855591
43.7 86.9294606685559
45.0 87.48651449586096
46.2 87.87166275391891
47.5 88.35742449135815
48.7 88.87166275391891
50.0 89.32880715674528
51.5 89.8288071567453
53.0 90.4
54.5 90.89999999999999
56.0 91.27166275391892
58.0 91.8
60.0 92.3
61.5 92.7
63.0 92.97166275391892
65.0 93.2
67.0 93.39999999999999
69.0 93.54313939533782
71.0 93.64313939533781
73.0 93.67166275391891
75.0 93.77166275391892
77.5 93.87166275391891
80.0 94.04313939533783
82.5 94.18618450501948
85.0 94.18618450501948
87.5 94.18618450501948
90.0 94.00099441428073
92.5 93.7447981209877
95.0 93.51609718937367
97.5 93.21609718937367
100.0 93.01609718937367
103.0 92.76009724486703
106.0 92.47569713721815
109.0 92.23278882757177
112.0 91.97569713721813
115.0 91.74848694339563
118.0 91.44848694339564
122.0 91.14848694339562
125.0 90.84848694339563
128.0 90.6059350948675
132.0 90.36204375999246
136.0 90.21998423401443
140.0 90.14865957364795
145.0 90.19009840257405
150.0 90.29009840257406
155.0 90.37558975457438
160.0 90.46136438189104
165.0 90.46136438189104
170.0 90.36136438189105
175.0 90.20455874229853
180.0 90.0490001808674
185.0 89.79009840257405
190.0 89.4048949937362
195.0 88.83537086618986
200.0 88.0935350491348
206.0 87.39998738070209
212.0 86.99998738070208
218.0 87.01162431850865
224.0 87.34865957364795
230.0 87.8934107877256
236.0 88.47335762649193
240.0 89.09473992630532
250.0 89.61519002426365
258.0 90.16168109788234
265.0 90.56168109788233
272.0 90.84119632546944
280.0 91.11111304359419
290.0 91.30285340994932
300.0 91.46933491228603
307.0 91.63467294907282
315.0 91.7474176559944
325.0 91.86035311823196
335.0 91.83537086618988
345.0 91.76705545331122
355.0 91.6294633556899
365.0 91.34875308323684
375.0 91.02073318957109
387.0 90.6207331895711
400.0 90.2678888935895
412.0 89.80615828667757
425.0 89.25972823643953
437.0 88.63834380803316
450.0 87.98699295935442
462.0 87.54038366528603
475.0 87.47414735371534
487.0 87.76921956448858
500.0 88.30208450859425
515.0 88.91831517241347
530.0 89.47071823989353
545.0 89.7866419148176
560.0 90.03443179205895
580.0 90.05086213388186
600.0 90.07896411215164
615.0 90.12476316674395
630.0 90.31119947007663
650.0 90.64793626891718
670.0 91.08776522292679
690.0 91.45169654659408
710.0 91.67431183849715
730.0 91.590707059758
750.0 91.27612024989526
775.0 90.89773248604057
800.0 90.47165682689604
825.0 90.05746008704784
850.0 89.78000444336477
875.0 89.65746008704784
900.0 89.65062931404115
925.0 89.79888657798578
950.0 90.02460511930997
975.0 90.32602155933246
1000.0 90.46085109191579
1030.0 90.23878719707538
1060.0 89.71503693116487
1090.0 89.17617199584461
1120.0 88.9117435325981
1150.0 89.14900230239127
1180.0 89.65629028542365
1220.0 90.27701783325615
1250.0 90.63377777961884
1280.0 90.71207723280413
1320.0 90.49528702760804
1360.0 90.06836484498777
1400.0 89.47325731772871
1450.0 88.90057786149109
1500.0 88.40959671536277
1550.0 88.05837736074544
1600.0 87.8004983919766
1650.0 87.70080787682224
1700.0 87.80663453689344
1750.0 88.10622101923606
1800.0 88.38875298552665
1850.0 88.71907711053645
1900.0 88.87667858576172
1950.0 88.7439207855631
2000.0 88.46424782545905
2060.0 88.17070091647055
2120.0 87.85272763263647
2180.0 87.8114721439531
2240.0 87.91361479505507
2300.0 87.98844742522694
2360.0 88.00755216910466
2400.0 87.90482877156624
2500.0 87.81523608043786
2580.0 87.98163184733946
2650.0 88.30644746514787
2720.0 88.69317533557711
2800.0 88.93698254671422
2900.0 89.0342462081444
3000.0 89.13612386580225
3070.0 89.38825089393333
3150.0 89.64037565739233
3250.0 89.88683696621678
3350.0 89.94879901300152
3450.0 89.9855159788007
3550.0 90.01252546122936
3650.0 90.20383761123439
3750.0 90.3517704360283
3870.0 90.3333348918503
4000.0 90.10254581688905
4120.0 89.63133614777541
4250.0 89.14936119350791
4370.0 88.6580184007056
4500.0 88.3896928337038
4620.0 88.51668233957517
4750.0 88.76590820923431
4870.0 89.14108204891282
5000.0 89.52806603593943
5150.0 89.81228131287693
5300.0 89.94671437572016
5450.0 90.11487920793427
5600.0 90.30900976406011
5800.0 90.390497358963
6000.0 90.56333777465781
6150.0 90.50334797903
6300.0 90.2883804202129
6500.0 89.93608555940511
6700.0 89.46111856360282
6900.0 89.0967514200431
7100.0 88.95455559976695
7300.0 89.04573259607373
7500.0 89.34469417023678
7750.0 89.69690350608725
8000.0 90.03408168910563
8250.0 90.32105487344397
8500.0 90.6050857110164
8750.0 90.90462573040118
9000.0 90.96049314419771
9250.0 90.99830320455145
9500.0 90.74421073000629
9750.0 90.46591698573717
10000.0 90.267416276334
10300.0 90.01968030897848
10600.0 89.71387927014442
10900.0 89.25180223444826
11200.0 88.39413919713508
11500.0 87.00128674560709
11800.0 85.20319892071025
12200.0 83.39824978700116
12500.0 82.11520247873942
12800.0 81.84325796319845
13200.0 82.3512970975611
13600.0 83.07308649968233
14000.0 83.72704274482649
14500.0 84.12865437564626
15000.0 84.35950975290852
15500.0 84.5423937294018
16000.0 84.45459727517976
16500.0 83.75248738821564
17000.0 82.3709995630323
17500.0 80.22884144620083
18000.0 78.32045044237877
18500.0 76.88659228207344
19000.0 75.97177605216336
19500.0 75.83240132532579
