Freq "Sound Power"
20.5078 55.539245998109976
21.9727 62.88434904394859
23.4375 66.17041761940064
24.9023 69.57599883177727
26.3672 72.6140437274325
27.832 75.71249913818946
29.2969 77.55481874230543
30.7617 79.36904338923618
32.2266 79.53812326172445
33.6914 80.45981142696613
35.1562 80.68456183204265
36.6211 80.9474828709956
38.0859 81.19015205592052
39.5508 82.81051037920591
41.0156 82.9826633821354
42.4805 83.0964168214164
43.9453 83.27874358215277
45.4102 83.60000279061909
46.875 83.86129977658268
48.3398 84.10645782195583
51.2695 84.59009262057685
52.7344 84.85951466439175
54.1992 85.16138687693737
55.6641 85.46250258878709
58.5938 85.98403090870421
60.0586 86.1891663862013
62.9883 86.64766102999026
64.4531 87.18885438928476
67.3828 87.51106012686466
68.8477 87.71859984227704
71.7773 88.11130772016341
74.707 88.4949780151255
77.6367 88.83107962632674
79.1016 88.89117832404662
82.0312 89.12405162140594
84.9609 89.2102038111984
87.8906 89.13576177663222
90.8203 89.13180366669863
95.2148 89.36477887554523
98.1445 89.40887022088592
101.074 89.013633553203
105.469 88.89427792297457
108.398 89.04673226180174
112.793 88.9269346282113
117.188 88.79241933458829
120.117 88.87736972846731
124.512 89.06827346541814
128.906 89.14626766850162
133.301 89.30473995876773
139.16 88.96315647107397
143.555 88.6200573276893
147.949 88.26944741624524
153.809 87.8514270346637
159.668 88.32911819844173
165.527 88.48657519312371
171.387 88.67501407581635
177.246 88.5573452003181
183.105 88.14017398629011
188.965 87.95667697140517
196.289 88.93948711599158
203.613 88.98463686126374
210.938 88.62086396161305
218.262 88.41510115616919
225.586 88.47853263411301
232.91 88.06492096092016
241.699 88.1652982950776
250.488 88.16226683422735
259.277 88.17020784482007
268.066 88.40252854712955
276.855 87.53989278740629
287.109 87.5633125334744
297.363 87.3545139568601
307.617 87.45563160205981
319.336 86.91784514792853
329.59 87.11732281107874
341.309 86.98095691391424
353.027 86.89716863237678
366.211 87.26576721941167
379.395 87.06684766505353
392.578 87.23644414959554
405.762 87.0697689412425
420.41 86.51805594158532
435.059 86.90328593869947
451.172 87.44986311668934
465.82 87.75645565192585
483.398 87.09485328241968
499.512 87.23906232281234
517.09 86.57965709811191
536.133 87.17389509471383
555.176 87.4802870520147
574.219 87.85576110086936
594.727 86.94897456547179
615.234 86.66828947840638
637.207 86.71023290791105
659.18 87.33615037962457
682.617 87.06576391002834
707.52 86.65666775656938
732.422 86.47300149675695
757.324 87.20490964905434
785.156 86.97215463947629
811.523 86.20591437951087
840.82 86.84238886169732
870.117 86.15805527383758
900.879 85.97186782545678
933.105 86.23058852800912
965.332 86.51661492564862
1000.49 86.5927222717106
1035.64 86.5105181165789
1072.27 85.74529433381386
1108.89 86.02843550538387
1148.44 85.37915200259756
1189.45 85.91663270515066
1230.47 85.7030656211113
1274.41 86.00574749442526
1319.82 86.25620653425607
1366.7 86.13311196956036
1413.57 85.86154665219796
1463.38 85.71622080227769
1516.11 85.89415002421131
1568.85 85.8426598037624
1624.51 85.42416338504029
1681.64 85.29282246138258
1741.7 84.75237090952288
1803.22 84.56474359845603
1866.21 84.5999313692227
1932.13 84.58721378260257
1999.51 84.38754532859119
2069.82 84.18808662196881
2143.07 84.93768523695287
2219.24 84.97643718770966
2296.88 84.9502978087334
2378.91 84.33275869844552
2462.4 84.37800636957287
2548.83 85.26492779804983
2639.65 85.07978819938717
2731.93 85.2435912355885
2828.61 84.90257869989054
2928.22 84.93453401289247
3030.76 85.43506744468542
3137.7 85.43481955596195
3249.02 84.84098319893667
3363.28 84.513317833315
3481.93 84.24956277734914
3604.98 83.8633014977719
3732.42 83.85823174902694
3864.26 83.2832430822694
4000.49 83.16313970118742
4141.11 83.30824331534242
4287.6 82.64007303797857
4438.48 82.6225194006164
4595.21 82.89441612566603
4756.35 82.45393546716423
4924.8 82.7360734930008
5097.66 82.96664655459793
5277.83 83.32823080307138
5463.87 83.18510470523395
5657.23 83.5952854578327
5856.45 83.27892663804036
6062.99 83.21430960171718
6276.86 83.23672797662104
6498.05 83.0198924787712
6726.56 83.02665734278465
6963.87 82.56469609356114
7209.96 82.8783226579572
7464.84 82.39621483179927
7727.05 82.51465511347568
7999.51 82.3059259415139
8282.23 82.32050280043967
8573.73 82.18178513580932
8876.95 82.07398128413416
9188.96 82.19415069948228
9514.16 82.09574017425274
9849.61 82.05595656718458
10196.8 82.00927872407512
10555.7 81.82523684534016
10927.7 81.66733752111222
11313.0 81.5431333823869
11712.9 81.54100232104157
12126.0 81.58337147464073
12553.7 81.52582553668383
12996.1 81.45244458577287
13454.6 81.20152595426973
13929.2 80.91711373450089
14419.9 80.91333081378045
14928.2 80.91365175759941
15455.6 80.84495724125073
16000.5 80.51670813713567
16564.5 79.8063578363251
17148.9 78.97336150210175
17752.4 78.31415281828295
18379.4 77.63755869377114
19026.9 76.69406493917282
19697.8 75.37094964250423
19999.5 74.76400113533558
