Freq "Floor Bounce"
22.4 32.40456496281004
23.0 35.503797468354435
23.6 36.71070247870904
24.0 37.91070247870903
25.0 40.17224830640876
25.8 41.93892806013426
26.5 43.93892806013426
27.2 45.63892806013425
28.0 47.60456496281006
29.0 49.338928060134236
30.0 51.73892806013424
30.7 54.13892806013425
31.5 55.30456496281005
32.5 57.704564962810025
33.5 60.037387295234424
34.5 61.13738729523439
35.5 63.27071931951491
36.5 65.07071931951494
37.5 66.9373872952344
38.7 68.67071931951493
40.0 70.23738729523441
41.2 72.50379746835443
42.5 73.87071931951493
43.7 75.20379746835444
45.0 77.00379746835443
46.2 78.60379746835443
47.5 80.00379746835443
48.7 81.10379746835443
50.0 82.0373872952344
51.5 82.83738729523441
53.0 83.53738729523441
54.5 84.07071931951492
56.0 84.70456496281005
58.0 85.20456496281005
60.0 85.4373872952344
61.5 85.70456496281005
63.0 85.93814887703945
65.0 86.10456496281004
67.0 86.27224830640876
69.0 86.40456496281004
71.0 86.47224830640877
73.0 86.53892806013425
75.0 86.67224830640876
77.5 86.70456496281005
80.0 86.70456496281005
82.5 86.70456496281005
85.0 86.70686703939695
87.5 86.70686703939695
90.0 86.70686703939695
92.5 86.70686703939695
95.0 86.90686703939696
97.5 87.07530547622382
100.0 87.07530547622382
103.0 87.20686703939694
106.0 87.20686703939694
109.0 87.20686703939694
112.0 87.37530547622382
115.0 87.50686703939695
118.0 87.6753054762238
122.0 87.77530547622382
125.0 87.87530547622382
128.0 87.91070247870903
132.0 87.97530547622381
136.0 88.04200876724187
140.0 88.17530547622381
145.0 88.14423914780933
150.0 88.14423914780933
155.0 88.17988922284664
160.0 88.11606925151061
165.0 88.04956466273913
170.0 87.88599714167746
175.0 87.68599714167748
180.0 87.39362603508916
185.0 87.10277191966368
190.0 86.81343003517064
195.0 86.29886204871272
200.0 85.35441874845807
206.0 83.53255356963757
212.0 82.79617645645243
218.0 84.24132524135472
224.0 85.36476261072625
230.0 85.69362603508915
236.0 85.76476261072627
240.0 85.60277191966367
250.0 85.50277191966367
258.0 85.33138466119036
265.0 85.16968592895131
272.0 85.28042545089349
280.0 85.43926009970124
290.0 85.35441874845807
300.0 85.04638020498459
307.0 84.83255356963758
315.0 85.0567528362322
325.0 85.3087741551225
335.0 85.7087741551225
345.0 86.03255356963757
355.0 85.80044528128674
365.0 85.30044528128676
375.0 84.63191980510281
387.0 84.35617388341875
400.0 84.36615489777523
412.0 84.12782233861466
425.0 84.54200876724187
437.0 85.17071931951493
450.0 85.60456496281006
462.0 86.27224830640876
475.0 87.00611741425219
487.0 88.0753054762238
500.0 89.18873239296292
515.0 89.73141102579
530.0 89.66799547131407
545.0 89.0505979472315
560.0 88.48873088366943
580.0 88.03648362373237
600.0 87.45902081824053
615.0 86.55432359666848
630.0 85.16950023006092
650.0 84.51481589053043
670.0 85.19218006069346
690.0 85.54073855798079
710.0 85.48734396369568
730.0 85.05423755363522
750.0 84.31885199955401
775.0 83.43126469921413
800.0 82.88460241646705
825.0 82.65382664221346
850.0 82.18824509198453
875.0 81.8776326046229
900.0 81.89637124583768
925.0 81.57783830929469
950.0 81.12710401139972
975.0 80.58586566609053
1000.0 79.12461641389498
1030.0 78.19132136742395
1060.0 78.6691061023751
1090.0 79.224585404583
1120.0 79.08201058793337
1150.0 78.5659673095432
1180.0 78.5873167474434
1220.0 78.55852071240612
1250.0 78.67993146829713
1280.0 78.66339986465532
1320.0 79.12289866627218
1360.0 80.21562476844196
1400.0 81.00588801154119
1450.0 81.15825595361507
1500.0 81.25930173863563
1550.0 81.70897492068462
1600.0 82.49339275396642
1650.0 83.44962893992842
1700.0 83.4984996545647
1750.0 83.46944514489023
1800.0 83.74053988830588
1850.0 84.23116204619076
1900.0 84.76470565232843
1950.0 84.70395410728207
2000.0 84.39201378554654
2060.0 83.60085787783888
2120.0 82.78121166668355
2180.0 81.59897166069837
2240.0 79.6465210984038
2300.0 77.8840483568352
2360.0 77.9773577860405
2400.0 78.40702073170122
2500.0 78.30554894154758
2580.0 78.47846590111862
2650.0 78.64502799872282
2720.0 78.28020141700293
2800.0 78.03248992203238
2900.0 78.55231888888808
3000.0 78.65654741049802
3070.0 78.13623222440191
3150.0 78.05827462166079
3250.0 78.48824509198452
3350.0 79.43391924057097
3450.0 80.13468014193538
3550.0 80.35435412883595
3650.0 80.94949446403385
3750.0 81.19867601580006
3870.0 81.17949451002211
4000.0 81.0143136951067
4120.0 80.51584919475414
4250.0 79.77078176113004
4370.0 79.3851833365737
4500.0 79.32035525870327
4620.0 79.13601016451989
4750.0 78.54846272520818
4870.0 79.29375063196352
5000.0 80.76447048260545
5150.0 80.56753970859052
5300.0 80.06590451600812
5450.0 80.25407356612403
5600.0 80.42459415970944
5800.0 80.99177787709499
6000.0 81.01947206292719
6150.0 80.75501950516978
6300.0 80.37470400647558
6500.0 80.09693116044991
6700.0 80.36534591009647
6900.0 79.87569960197106
7100.0 79.07295535483388
7300.0 78.2969311604499
7500.0 77.585681757808
7750.0 77.52874064642924
8000.0 77.04720126484146
8250.0 76.16160477026469
8500.0 76.84678730475417
8750.0 79.09201647481937
9000.0 80.512376891367
9250.0 81.05860268951307
9500.0 80.33867225270942
9750.0 79.34863705175309
10000.0 79.71349351514819
10300.0 80.64986404957118
10600.0 81.63495456678771
10900.0 82.09206316659227
11200.0 82.00346456002798
11500.0 81.39093363574689
11800.0 80.3870445799599
12200.0 78.96225911112575
12500.0 76.13333148393778
12800.0 74.47354718636623
13200.0 76.11905357915956
13600.0 77.04155989009601
14000.0 71.11527241678206
14500.0 69.18543838745946
15000.0 69.97443866681692
15500.0 68.06331307612498
16000.0 65.3200224188341
16500.0 62.369058581752086
17000.0 59.50830418055713
17500.0 59.850523852750484
18000.0 57.613086346248366
18500.0 51.41165582004459
19000.0 52.15789833441451
19500.0 61.110772045662344
