Freq "Side Wall Bounce"
22.4 32.018035933327866
23.0 35.66407334906347
23.6 36.127211858333055
24.0 37.37726763452227
25.0 39.94522538815187
25.8 41.666143158017206
26.5 43.5758770884411
27.2 45.314820560068455
28.0 47.36453280418098
29.0 49.01459086902952
30.0 51.40448821946771
30.7 53.79413123846501
31.5 54.96407334906348
32.5 57.45408528513292
33.5 59.77427034054881
34.5 60.85500626220502
35.5 62.9747287182137
36.5 64.79436201410337
37.5 66.63426864398278
38.7 68.38444344614034
40.0 69.97472871821371
41.2 72.18444344614035
42.5 73.56499221069626
43.7 74.90471844542652
45.0 76.66499221069627
46.2 78.21574467343511
47.5 79.60609978899492
48.7 80.71574467343511
50.0 81.69574128150447
51.5 82.45754107939356
53.0 83.13703333950572
54.5 83.6770307948006
56.0 84.30725097982189
58.0 84.83750643238592
60.0 85.04776591883888
61.5 85.33750643238591
63.0 85.54843426678552
65.0 85.7090920067486
67.0 85.83020593933755
69.0 85.94096639378078
71.0 86.0113931079226
73.0 86.02220021768903
75.0 86.18025917333107
77.5 86.28905787863987
80.0 86.24096639378078
82.5 86.22220021768904
85.0 86.21300358015851
87.5 86.1846286259093
90.0 86.17513567928074
92.5 86.15606706188069
95.0 86.22197101549632
97.5 86.3426261742521
100.0 86.3106533200989
103.0 86.2968213737515
106.0 86.26620269594821
109.0 86.27891981042208
112.0 86.35976151731197
115.0 86.45388297030023
118.0 86.5565293144835
122.0 86.56221915178763
125.0 86.61660943260901
128.0 86.70740093581739
132.0 86.73879650281982
136.0 86.71564183304305
140.0 86.75953652103951
145.0 86.7811182777068
150.0 86.76464817530261
155.0 86.75206863057363
160.0 86.68348833008031
165.0 86.58450768604233
170.0 86.44723953372507
175.0 86.28321051546978
180.0 86.06224634940689
185.0 85.81855422638048
190.0 85.79134038898977
195.0 85.58776667019244
200.0 85.12422587047857
206.0 84.18973605074905
212.0 83.20760965706661
218.0 83.66895901166906
224.0 84.51070624155564
230.0 84.66823554423856
236.0 84.69802026340892
240.0 84.5973704751104
250.0 84.5964325735686
258.0 84.45861757202337
265.0 84.17266400197575
272.0 84.34597010774422
280.0 84.79812047497711
290.0 85.03439384493609
300.0 85.09878651894233
307.0 85.26745704459651
315.0 85.40762172552851
325.0 85.54221095880271
335.0 85.75138661514211
345.0 85.92012342311637
355.0 86.02117923256907
365.0 85.55476532461083
375.0 84.63493196593085
387.0 83.70937633251381
400.0 83.12625999332184
412.0 82.93060732022342
425.0 82.53945639884716
437.0 81.95381495579566
450.0 81.53544905438777
462.0 81.42271659649663
475.0 81.90052320768123
487.0 82.41170972120901
500.0 82.77426626090077
515.0 82.98612503956875
530.0 82.78843091027338
545.0 82.36727827206394
560.0 81.61628349094883
580.0 80.68466854324004
600.0 80.16209201114529
615.0 79.76330921249817
630.0 79.29461067066885
650.0 79.43243861282882
670.0 80.13784875778629
690.0 80.90682492457681
710.0 81.45143654517058
730.0 81.62784700552609
750.0 81.73711988102923
775.0 81.60586921630866
800.0 81.54674045163571
825.0 81.52898522900038
850.0 81.71542923296994
875.0 82.16162060010902
900.0 82.57971722815617
925.0 82.53687406991386
950.0 82.34350501026114
975.0 82.2278934345056
1000.0 81.56045900334398
1030.0 80.23430142349818
1060.0 78.95804916254755
1090.0 78.51546913006948
1120.0 78.83590784945369
1150.0 79.32346270293793
1180.0 78.88957549324586
1220.0 77.61853713450441
1250.0 76.9102086595401
1280.0 77.32572755184066
1320.0 77.9789332558856
1360.0 77.56835089045062
1400.0 76.18336527543322
1450.0 75.65285410203423
1500.0 76.16538281732942
1550.0 76.58159290055957
1600.0 76.28311698455408
1650.0 75.56002614974473
1700.0 75.31332984062237
1750.0 76.56197220260502
1800.0 77.96125739479264
1850.0 77.9522424288775
1900.0 77.57919860145861
1950.0 77.81285844171889
2000.0 77.63828493745292
2060.0 76.88822168843413
2120.0 76.74432172852143
2180.0 76.81085702997117
2240.0 75.55242146277743
2300.0 75.95583053839331
2360.0 77.7900903967953
2400.0 77.55725033774917
2500.0 77.67037835237889
2580.0 78.81249373569568
2650.0 78.44446490640131
2720.0 77.62256399201597
2800.0 77.72349895441566
2900.0 77.21356172378721
3000.0 76.57615936433294
3070.0 76.40754566563854
3150.0 76.21692240659021
3250.0 76.1663770490699
3350.0 76.38309161114826
3450.0 76.24318193101587
3550.0 76.27432518449118
3650.0 76.66273937298507
3750.0 77.02593013033814
3870.0 77.23598290915236
4000.0 77.54373541277249
4120.0 77.71545290906718
4250.0 77.54775506663327
4370.0 77.32419871074762
4500.0 77.53621195959133
4620.0 77.39683961688918
4750.0 76.91532806348432
4870.0 77.02738798491309
5000.0 77.01377027165844
5150.0 76.71700803138835
5300.0 76.29790307511317
5450.0 75.62799204131936
5600.0 75.13582929356176
5800.0 74.98705721681355
6000.0 73.91233100312205
6150.0 72.857650960938
6300.0 72.31582919389652
6500.0 71.07842161351056
6700.0 69.788725027676
6900.0 69.42801729566429
7100.0 68.93167064979076
7300.0 67.96008982265063
7500.0 67.33185490746978
7750.0 67.05571417398525
8000.0 68.17185566564932
8250.0 70.46905264171825
8500.0 72.19560939888856
8750.0 73.16730681339861
9000.0 73.81062393022903
9250.0 73.65587369480751
9500.0 72.01275513163304
9750.0 68.86222858404899
10000.0 67.40796574057826
10300.0 69.409832899356
10600.0 70.76153776136698
10900.0 70.78043554044528
11200.0 70.65846993740541
11500.0 71.10908599506105
11800.0 71.87238492944519
12200.0 71.90329802512343
12500.0 70.36785778835808
12800.0 68.50590920375114
13200.0 68.67242361425906
13600.0 70.45207102800711
14000.0 71.39482989688055
14500.0 67.82846563413543
15000.0 64.38565540853801
15500.0 59.707689500762655
16000.0 56.37602627724772
16500.0 57.376222963960146
17000.0 54.56322005803895
17500.0 53.239489569268045
18000.0 51.145774178984624
18500.0 44.21512986028188
19000.0 41.48579106361004
19500.0 46.00504046751618
