Freq,On Axis,Listening Window,Sound Power,Early Reflections,Early Reflections DI,Sound Power DI,DI offset
22.4,8.199999999999996,9.783123502968756,8.27945575855103,8.70911837805054,11.074005124918216,11.503667744417726,10
23.0,8.79999999999999,10.303383736400185,8.84408629409689,9.305331869896925,10.99805186650326,11.459297442303296,10
23.6,9.400000000000013,10.824569945016357,9.420142335714196,9.90278162701518,10.921788318001177,11.40442760930216,10
24.0,9.900000000000013,11.27960547711664,9.911269148933833,10.403440647201286,10.876164829915353,11.368336328182806,10
25.0,10.500000000000007,11.783720189466017,10.502141499734257,11.002306384564356,10.78141380490166,11.28157868973176,10
25.8,11.199999999999996,12.379839105461464,11.129376355996676,11.660041239020195,10.719797866441269,11.250462749464788,10
26.5,11.900000000000013,12.999631029084107,11.833503535358552,12.378947308794615,10.620683720289492,11.166127493725554,10
27.2,12.900000000000013,13.779573655250893,12.70403225266461,13.268477586118117,10.511096069132776,11.075541402586282,10
28.0,13.699999999999996,14.48681939819597,13.492281545977455,14.069966872297563,10.416852525898406,10.994537852218514,10
29.0,14.600000000000001,15.205268493087125,14.322658082614886,14.904923627426719,10.300344865660406,10.882610410472239,10
30.0,15.500000000000007,16.008836999086704,15.1585317393072,15.74581202927562,10.263024969811084,10.850305259779503,10
30.7,16.29999999999999,16.723561695286897,15.970363400094563,16.53286798944729,10.190693705839607,10.753198295192334,10
31.5,17.199999999999996,17.493286200434945,16.840070044810012,17.375241952283723,10.118044248151222,10.653216155624932,10
32.5,18.29999999999999,18.492153621590894,17.915036286361705,18.43696963436654,10.055183987224353,10.57711733522919,10
33.5,19.29999999999999,19.355919480119987,18.901110471733297,19.3569364074231,9.998983072696888,10.45480900838669,10
34.5,20.500000000000007,20.3772382283911,20.042315908642117,20.416564356540512,9.960673871850588,10.334922319748983,10
35.5,21.699999999999996,21.490602068412052,21.259776779927286,21.56698436582642,9.92361770258563,10.230825288484766,10
36.5,22.699999999999996,22.44417561428603,22.257293133814194,22.496801912796407,9.947373701489624,10.186882480471837,10
37.5,23.79999999999999,23.493908968289823,23.34357893371635,23.524396530922537,9.969512437367285,10.150330034573471,10
38.7,24.900000000000013,24.54602587072558,24.43459020039959,24.55633865240481,9.989687218320768,10.111435670325989,10
40.0,26.199999999999996,25.83608465737715,25.732562534884273,25.799202888055113,10.036881769322036,10.103522122492876,10
41.2,27.400000000000013,27.01781406649375,26.917950227291733,26.942285515308278,10.07552855118547,10.099863839202015,10
42.5,28.699999999999996,28.316827132507377,28.17737911106395,28.18397292306563,10.132854209441746,10.139448021443428,10
43.7,29.79999999999999,29.44604046318117,29.308715194385663,29.302228461949262,10.143812001231908,10.137325268795507,10
45.0,30.79999999999999,30.550422642668373,30.40908451442656,30.400477801451224,10.149944841217149,10.141338128241813,10
46.2,32.29999999999999,32.09845568602237,31.88366513222929,31.903526738444647,10.194928947577722,10.21479055379308,10
47.5,33.50000000000001,33.316079455636704,33.117969111178844,33.13844939549387,10.177630060142832,10.19811034445786,10
48.7,34.6,34.53822382482637,34.32588821370056,34.37022616662748,10.167997658198885,10.212335611125809,10
50.0,35.79999999999999,35.77856183465534,35.53886751144896,35.59388561325634,10.184676221399002,10.239694323206379,10
51.5,37.00000000000001,37.00963903597623,36.77443816380619,36.847657414473396,10.161981621502832,10.23520087217004,10
53.0,38.199999999999996,38.287144733773765,38.02914236216824,38.112928886108925,10.17421584766484,10.258002371605528,10
54.5,39.4,39.47278047068034,39.195004761129674,39.30216620725603,10.170614263424312,10.277775709550667,10
56.0,40.50000000000001,40.640254100846256,40.34827671355851,40.45948202197763,10.180772078868628,10.291977387287744,10
58.0,41.79999999999999,41.87278047068033,41.598112194885395,41.714289087064024,10.158491383616308,10.274668275794937,10
60.0,42.79999999999999,42.92673746029548,42.656848441845504,42.780808062093605,10.145929398201872,10.269889018449973,10
61.5,43.9,44.00327920442154,43.744185372499125,43.87951440422511,10.123764800196426,10.259093831922414,10
63.0,45.00000000000001,45.03659007597816,44.78670724419903,44.919127771940246,10.117462304037915,10.249882831779132,10
65.0,46.1,46.11371928892786,45.88195759075747,46.00993929151256,10.103779997415302,10.231761698170388,10
67.0,47.00000000000001,47.03607081065818,46.79590313468305,46.92891968375441,10.107151126903773,10.24016767597513,10
69.0,47.9,47.946225162025534,47.72380255835544,47.85395644107829,10.092268720947246,10.222422603670097,10
71.0,48.79999999999999,48.82392597415802,48.61952987363721,48.73597189374829,10.08795408040973,10.20439610052081,10
73.0,49.6,49.557848695660574,49.35505606241052,49.483866625730265,10.07398206993031,10.202792633250056,10
75.0,50.29999999999999,50.25784869566056,50.04421288735913,50.17601601481005,10.08183268085051,10.213635808301433,10
77.5,50.90000000000001,50.89077385642434,50.672243691011865,50.79464777215592,10.09612608426842,10.218530165412474,10
80.0,51.4,51.35710833638908,51.127074360412,51.25889665839289,10.09821167799619,10.23003397597708,10
82.5,51.79999999999999,51.75710833638906,51.50885768621422,51.655399146266625,10.101709190122435,10.248250650174839,10
85.0,52.00000000000001,52.04600095967627,51.788033318314696,51.93050609856174,10.115494861114527,10.257967641361574,10
87.5,52.199999999999996,52.16768934561612,51.91866345344459,52.05829232251218,10.109397023103938,10.249025892171531,10
90.0,52.199999999999996,52.22370061763397,51.96553030682082,52.11102681828357,10.112673799350404,10.258170310813156,10
92.5,52.199999999999996,52.18976552271004,51.925263237673384,52.09190952070163,10.097856002008413,10.264502285036656,10
95.0,52.1,52.089765522710046,51.79333622291674,51.96157980849859,10.128185714211455,10.296429299793303,10
97.5,51.9,51.900511678040466,51.609981680253476,51.78788818603332,10.112623492007145,10.29052999778699,10
100.0,51.79999999999999,51.76768934561611,51.43428275991045,51.6231018452605,10.144587500355613,10.33340658570566,10
103.0,51.6,51.61148068598391,51.251176726730144,51.45650413073054,10.15497655525337,10.36030395925377,10
106.0,51.50000000000001,51.51148068598392,51.15250022032402,51.3594261458176,10.152054540166318,10.358980465659897,10
109.0,51.6,51.61148068598391,51.180036837647044,51.40322683662436,10.20825384935955,10.431443848336869,10
112.0,51.79999999999999,51.822422059205174,51.3873101738232,51.608295574944584,10.21412648426059,10.435111885381971,10
115.0,52.199999999999996,52.16692185116049,51.702991105936725,51.933489019635736,10.233432831524752,10.463930745223763,10
118.0,52.6,52.622422059205185,52.13915919917145,52.38239941443158,10.240022644773603,10.483262860033733,10
122.0,53.1,53.10051167804048,52.59558167141707,52.83730431461647,10.263207363424016,10.504930006623411,10
125.0,53.6,53.6,53.084209481276794,53.323665374972,10.276334625028,10.515790518723207,10
128.0,54.1,54.11122549985843,53.597885201145054,53.82959436971715,10.281631130141278,10.513340298713373,10
132.0,54.6,54.65583957685775,54.16526161589767,54.383943288839255,10.271896288018496,10.490577960960081,10
136.0,55.199999999999996,55.21122549985842,54.79828748854738,54.991624602908495,10.219600896949927,10.412938011311041,10
140.0,55.699999999999996,55.755839576857745,55.372721122789535,55.54894267823493,10.206896898622816,10.38311845406821,10
145.0,56.1,56.15583957685775,55.84928398934574,55.994460659032775,10.161378917824976,10.306555587512008,10
150.0,56.4,56.4,56.12398850315464,56.24857730188722,10.151422698112782,10.276011496845356,10
155.0,56.4,56.4,56.19823783773051,56.319547431113214,10.080452568886784,10.201762162269489,10
160.0,56.4,56.333589826879965,56.11220378168782,56.22431500959227,10.109274817287698,10.221386045192148,10
165.0,56.199999999999996,56.199999999999996,55.924862107679864,56.05856669157745,10.141433308422549,10.275137892320132,10
170.0,56.00000000000001,56.00000000000001,55.679716697026144,55.83869291949734,10.161307080502667,10.320283302973863,10
175.0,55.79999999999999,55.79999999999999,55.407743690680114,55.608845469222125,10.191154530777865,10.392256309319876,10
180.0,55.699999999999996,55.68900192004663,55.21103931100465,55.44493132695083,10.244070593095799,10.477962609041981,10
185.0,55.79999999999999,55.79999999999999,55.34222611738479,55.58111129564731,10.218888704352679,10.4577738826152,10
190.0,56.29999999999999,56.28900192004664,55.848327179347315,56.0739066888187,10.215095231227934,10.440674740699322,10
195.0,56.9,56.9,56.53347928616642,56.73500734163243,10.164992658367566,10.36652071383358,10
200.0,57.6,57.589001920046634,57.2336517633392,57.42420152325051,10.164800396796124,10.35535015670743,10
206.0,58.199999999999996,58.16692185116049,57.836831173426695,58.02887413132324,10.138047719837246,10.330090677733793,10
212.0,58.6,58.6,58.27024828810537,58.45890563950535,10.141094360494648,10.32975171189463,10
218.0,58.79999999999999,58.79999999999999,58.44301358959641,58.661871231439854,10.138128768560136,10.356986410403579,10
224.0,58.79999999999999,58.79999999999999,58.42388973891921,58.660049884422826,10.139950115577165,10.376110261080782,10
230.0,58.79999999999999,58.79999999999999,58.413730330289944,58.64569675094388,10.154303249056113,10.386269669710046,10
236.0,59.00000000000001,58.966921851160514,58.54622760967887,58.79411773863219,10.172804112528326,10.420694241481641,10
240.0,59.199999999999996,59.14472895057721,58.66895645653636,58.93376595845533,10.210962992121878,10.475772494040854,10
250.0,59.4,59.366921851160505,58.80964880932154,59.11062705779538,10.256294793365129,10.557273041838968,10
258.0,59.6,59.53358982687997,58.87967691286121,59.2173704099016,10.31621941697837,10.653912914018761,10
265.0,59.6,59.566921851160494,58.86909056974006,59.2323683469104,10.334553504250096,10.697831281420434,10
272.0,59.79999999999999,59.74472895057719,59.03187774294758,59.39090186749268,10.35382708308451,10.712851207629612,10
280.0,60.1,59.98925841531062,59.27428286006255,59.62962933107038,10.35962908424024,10.714975555248074,10
290.0,60.199999999999996,60.1669218511605,59.40149706223175,59.76782674946802,10.399095101692481,10.765424788928755,10
300.0,60.29999999999999,60.21173585711586,59.37283922537042,59.752120689390516,10.459615167725346,10.838896631745442,10
307.0,60.199999999999996,60.12293110248064,59.1606057361034,59.56798860292373,10.554942499556915,10.962325366377243,10
315.0,60.1,59.990528991135854,58.8675999120346,59.32317262587518,10.667356365260673,11.122929079101255,10
325.0,60.199999999999996,60.09129829693561,58.7810936982227,59.29387269701633,10.79742559991928,11.310204598712915,10
335.0,60.50000000000001,60.40307566515393,59.02789960798494,59.5603844245396,10.842691240614329,11.375176057168986,10
345.0,61.00000000000001,60.88077472128379,59.46284360626509,60.00846528543915,10.872309435844642,11.417931115018703,10
355.0,61.4,61.33511299152682,59.87997672715638,60.43685245224598,10.898260539280841,11.455136264370438,10
365.0,61.699999999999996,61.65684993523215,60.16397242352533,60.76668369789824,10.890166237333915,11.492877511706823,10
375.0,61.79999999999999,61.89051745064966,60.31590494066733,60.98656073829708,10.903956712352581,11.57461250998233,10
387.0,61.9,61.9565915186997,60.37567059640951,61.09124518239734,10.865346336302366,11.58092092229019,10
400.0,62.1,62.12317980880079,60.515960587600155,61.26586552340678,10.857314285394011,11.607219221200637,10
412.0,62.29999999999999,62.26717378562655,60.609659686972925,61.42217059457084,10.84500319105571,11.657514098653621,10
425.0,62.399999999999984,62.356344718472336,60.509977427574675,61.42604302187535,10.930301696596985,11.84636729089766,10
437.0,62.29999999999999,62.22267658830112,60.22595769682392,61.26437185214406,10.95830473615706,11.996718891477201,10
450.0,62.29999999999999,62.11225209722836,59.93511945870082,61.077389041297984,11.034863055930373,12.177132638527539,10
462.0,62.29999999999999,62.0687204186598,59.76601486692686,60.953401835101026,11.115318583558775,12.302705551732942,10
475.0,62.6,62.25943407685802,59.80647699142683,60.99968200956261,11.259752067295409,12.452957085431194,10
487.0,63.00000000000001,62.58512719842077,59.99230199422406,61.19367548853422,11.391451709886553,12.592825204196714,10
500.0,63.1,62.77302513770909,60.02285566649896,61.26405018518165,11.508974952527439,12.750169471210128,10
515.0,63.00000000000001,62.78180296208006,60.025670229178864,61.24909775182548,11.532705210254576,12.756132732901193,10
530.0,63.1,62.903807694047295,60.18595896901444,61.35656625046614,11.547241443581157,12.717848725032852,10
545.0,63.40000000000001,63.23613409300068,60.399343564512,61.606633538222944,11.629500554777735,12.836790528488677,10
560.0,63.6,63.512495473354285,60.47320276907289,61.756604270021946,11.75589120333234,13.039292704281394,10
580.0,63.6,63.59077385642434,60.4111129043495,61.765956541483455,11.824817314940887,13.17966095207484,10
600.0,63.6,63.635609262801715,60.384546551055415,61.814724407520735,11.82088485528098,13.2510627117463,10
615.0,63.50000000000001,63.52664506578376,60.1846287104295,61.694876297876526,11.831768767907235,13.34201635535426,10
630.0,63.29999999999999,63.23949900866379,59.844630647348815,61.39105320359726,11.848445805066532,13.394868361314977,10
650.0,63.1,63.051146561145465,59.52417128507661,61.155756185832665,11.8953903753128,13.526975276068853,10
670.0,63.00000000000001,62.862498882824546,59.21636956704861,60.946790336945206,11.91570854587934,13.646129315775937,10
690.0,62.79999999999999,62.61857077186584,58.947700116062016,60.732163585680546,11.886407186185295,13.670870655803824,10
710.0,62.6,62.41857077186584,58.87201536502658,60.62033036700618,11.798240404859655,13.54655540683926,10
730.0,62.6,62.396128768660596,58.905359055088304,60.62775524622,11.768373522440598,13.490769713572291,10
750.0,62.399999999999984,62.19455053650622,58.68482304361937,60.384896022846995,11.809654513659225,13.509727492886853,10
775.0,62.399999999999984,62.15160409399788,58.47480078259711,60.20186986937946,11.949734224618425,13.676803311400775,10
800.0,62.6,62.37274369025827,58.46700995218307,60.250993832587376,12.121749857670892,13.905733738075199,10
825.0,62.9,62.672743690258265,58.54819001303361,60.412145789164846,12.26059790109342,14.124553677224654,10
850.0,63.1,62.88403977103075,58.498224120189725,60.43753454665339,12.446505224377361,14.385815650841025,10
875.0,63.199999999999996,62.99358219651062,58.32916028431038,60.34556489066458,12.64801730584604,14.66442191220024,10
900.0,63.40000000000001,63.12625674380684,58.183491022943294,60.28813949163689,12.838117252169951,14.942765720863548,10
925.0,63.50000000000001,63.24803231942659,58.13896538236239,60.31735623851424,12.930676080912349,15.109066937064199,10
950.0,63.79999999999999,63.5269797532704,58.194389495060314,60.46583907629286,13.061140676977544,15.33259025821009,10
975.0,64.0,63.76210765596847,58.26895016239917,60.57019868872761,13.191908967240863,15.4931574935693,10
1000.0,64.5,64.22001556545666,58.729777264006465,61.00525221614158,13.214763349315092,15.490238301450205,10
1030.0,65.0,64.7645516396529,59.38683139347149,61.58616758538985,13.178384054263049,15.377720246181411,10
1060.0,65.29999999999998,65.10965717093387,59.84196364613015,61.94946765868068,13.160189512253183,15.267693524803718,10
1090.0,65.6,65.44556273987408,60.387168918321244,62.38725733124803,13.058305408626055,15.05839382155284,10
1120.0,65.69999999999999,65.62509189147471,60.747452369122705,62.64907228205373,12.976019609420973,14.877639522351998,10
1150.0,65.79999999999998,65.7148879492089,60.97270361218941,62.785078213966095,12.929809735242813,14.742184337019495,10
1180.0,65.79999999999998,65.61745195335848,60.93868517319239,62.708375548520245,12.909076404838231,14.678766780166086,10
1220.0,65.69999999999999,65.47292147451779,60.887083502058324,62.60967275694993,12.86324871756787,14.585837972459473,10
1250.0,65.4,65.21897155461895,60.770506933875474,62.4329650979604,12.78600645665854,14.448464620743465,10
1280.0,64.9,64.77591445934394,60.500898613685074,62.08133251231475,12.694581947029178,14.275015845658857,10
1320.0,64.6,64.46806749801434,60.41479147273011,61.906095578734714,12.561971919279628,14.053276025284234,10
1360.0,64.19999999999999,63.96057854441273,60.15696595695572,61.532358392962514,12.428220151450219,13.80361258745701,10
1400.0,63.79999999999999,63.4832813724047,59.77684434569023,61.08090823845375,12.402373133950945,13.706437026714468,10
1450.0,63.6,63.21660120371023,59.53077732569816,60.786837662240636,12.429763541469597,13.685823878012073,10
1500.0,63.40000000000001,63.12589376564363,59.585205526646696,60.74055330723139,12.385340458412244,13.540688238996935,10
1550.0,63.40000000000001,63.063338318189544,59.53875467226397,60.63758242242438,12.425755895765164,13.524583645925574,10
1600.0,63.29999999999999,62.844969121478236,59.364368592903,60.43332030911632,12.411648812361918,13.480600528575238,10
1650.0,63.50000000000001,62.94671554411804,59.28627630484001,60.370736203281886,12.575979340836156,13.660439239278034,10
1700.0,63.9,63.3220511561258,59.23560733172962,60.44474824845404,12.877302907671762,14.086443824396184,10
1750.0,64.4,63.78343043121752,59.30858064583578,60.658489950005865,13.124940481211652,14.474849785381736,10
1800.0,64.79999999999998,64.11599378888093,59.49762236267558,60.911172139071844,13.204821649809091,14.618371426205357,10
1850.0,65.19999999999999,64.54343714923081,59.66968035688382,61.18617024765752,13.357266901573297,14.873756792346995,10
1900.0,65.6,64.98526054529833,59.88885085544505,61.52211747013347,13.463143075164865,15.096409689853289,10
1950.0,66.0,65.48014802131848,60.253910244190116,61.970793308847654,13.509354712470824,15.226237777128361,10
2000.0,66.9,66.24789460914872,60.78394969140091,62.59945390893572,13.648440700212987,15.463944917747796,10
2060.0,67.29999999999998,66.62033607646828,61.00439029386401,62.91099120740294,13.709344869065347,15.615945782604271,10
2120.0,67.69999999999999,66.91195520200935,61.250336881982754,63.18788100367241,13.724074198336936,15.66161832002659,10
2180.0,67.69999999999999,66.90479513206316,61.197829574011216,63.18594195515323,13.718853176909931,15.706965558051948,10
2240.0,67.5,66.6964123478507,60.875185535905125,62.953218956276125,13.743193391574565,15.821226811945564,10
2300.0,67.29999999999998,66.46351996464819,60.62709025060564,62.73152175089019,13.731998213758004,15.836429714042552,10
2360.0,67.1,66.19653452705131,60.287179155247735,62.43771528720617,13.758819239845153,15.909355371803585,10
2400.0,66.79999999999998,65.8144358186197,59.810217178434534,62.01689960577732,13.797536212842388,16.004218640185172,10
2500.0,66.1,65.14782765532448,59.082376675327886,61.33978883682425,13.808038818500222,16.065450979996584,10
2580.0,65.6,64.6989837472955,58.49957822940849,60.846579340336326,13.852404406959181,16.199405517887016,10
2650.0,65.19999999999999,64.27451214533855,57.91592795810778,60.383515312268266,13.89099683307029,16.358584187230775,10
2720.0,65.1,64.18962289135811,57.644131785081065,60.210536364871764,13.979086526486356,16.545491106277055,10
2800.0,65.29999999999998,64.40775306954316,57.66972292159934,60.32259839951009,14.085154670033077,16.73803014794383,10
2900.0,65.4,64.44075822846034,57.640634361191225,60.34112158290895,14.099636645551385,16.800123867269107,10
3000.0,65.5,64.55781183817575,57.66574748346219,60.4221300904264,14.13568174774936,16.89206435471357,10
3070.0,65.5,64.51561966276526,57.58766869857909,60.375924382398956,14.139695280366311,16.92795096418618,10
3150.0,65.4,64.38752891430639,57.4891725375192,60.270110382274545,14.117418532031849,16.89835637678719,10
3250.0,65.19999999999999,64.2162770190105,57.248858593390146,60.07188328105972,14.144393737950793,16.967418425620366,10
