Freq "Floor Bounce"
20.5078 48.8694964994268
21.9727 49.53255004626952
23.4375 52.24342259740017
24.9023 53.008237520042556
26.3672 54.33063022616075
27.832 56.960252305297715
29.2969 58.40628146497768
30.7617 61.80136791699125
32.2266 63.63809057227412
33.6914 66.56522530863757
35.1562 68.86158106955726
36.6211 71.03007086417182
38.0859 73.03452620770987
39.5508 74.94675198615035
41.0156 76.69117394516333
42.4805 78.39481575827982
43.9453 80.00389256292657
45.4102 81.39436578152285
46.875 82.62056147989095
48.3398 83.87926486095306
51.2695 85.88060852839048
52.7344 86.70893196785617
54.1992 87.41497457513542
55.6641 88.02798971678337
58.5938 88.92990620595027
60.0586 89.27717157244327
62.9883 89.70341860237339
64.4531 89.77726680622986
67.3828 89.9001103080302
68.8477 89.91212297672124
71.7773 89.8989565414794
74.707 89.8200651519624
77.6367 89.7398299822392
79.1016 89.65203971586836
82.0312 89.47764519442312
84.9609 89.3850128486379
87.8906 89.39933406930162
90.8203 89.31840421647077
95.2148 89.20143773443452
98.1445 89.09393835242884
101.074 88.97449076257315
105.469 88.79050371270237
108.398 88.69310219377412
112.793 88.61160272412833
117.188 88.40752178748491
120.117 88.50135829017957
124.512 88.55788526840274
128.906 88.55065086480019
133.301 88.43015506266217
139.16 88.11891779808313
143.555 88.20471675286991
147.949 88.22072817497252
153.809 88.1409007227476
159.668 87.97196648352427
165.527 87.87218721170332
171.387 87.8068034868807
177.246 87.75435253968178
183.105 87.66212990107314
188.965 87.65682609033213
196.289 87.43964346448256
203.613 87.25969160708108
210.938 87.1987715447931
218.262 87.05902563292116
225.586 86.87552871385378
232.91 86.7277104249763
241.699 86.92401171667727
250.488 87.10360838833437
259.277 87.14863259816198
268.066 86.96345625626337
276.855 86.59710192101078
287.109 86.09072147877409
297.363 86.49241237233191
307.617 86.82108799059772
319.336 86.19883461271479
329.59 86.96906216415688
341.309 86.91870665575739
353.027 86.7443422674014
366.211 86.94057928920992
379.395 86.95238832427636
392.578 87.46440355153456
405.762 87.37162917739558
420.41 87.44894205629184
435.059 86.90801237081122
451.172 86.42310651511966
465.82 87.1243707045963
483.398 86.68109936350542
499.512 86.35251097099099
517.09 85.96762675082938
536.133 85.7155145432272
555.176 85.38118549398376
574.219 85.50009122883371
594.727 85.5392565192304
615.234 85.13891603237458
637.207 84.7561539566857
659.18 84.37388266258354
682.617 84.50728512753393
707.52 83.92810219509026
732.422 85.24530885544475
757.324 86.59252734527682
785.156 84.58522414965333
811.523 84.83133306405131
840.82 85.57589439985604
870.117 85.93992401861271
900.879 86.26593412296428
933.105 86.02011643833332
965.332 85.97496377691512
1000.49 86.37823455122854
1035.64 86.51025902502924
1072.27 86.53337241860034
1108.89 85.88113077287959
1148.44 86.72208295848499
1189.45 86.63335758563414
1230.47 87.01978497667265
1274.41 86.48851904012403
1319.82 86.38326309879872
1366.7 87.15888876194194
1413.57 87.71237413584461
1463.38 85.64263810503188
1516.11 83.54233235196186
1568.85 84.41423623692096
1624.51 82.13572803926107
1681.64 81.40202216326756
1741.7 81.69334445749371
1803.22 81.17702482732116
1866.21 80.41103059610677
1932.13 79.68163071333701
1999.51 79.4595815445417
2069.82 79.39965798492712
2143.07 78.07480752758558
2219.24 81.36429302947612
2296.88 81.38013662747595
2378.91 81.96856971853848
2462.4 80.80048546435019
2548.83 81.54952026194117
2639.65 81.02694466212927
2731.93 80.69238430760151
2828.61 80.94858706621888
2928.22 81.77775156245706
3030.76 82.84023578904437
3137.7 83.40201733802256
3249.02 83.66821225336217
3363.28 83.88575320849766
3481.93 83.69194260728254
3604.98 83.30367038431403
3732.42 83.62840328365543
3864.26 84.35184681257938
4000.49 83.76821836397586
4141.11 83.35895120315854
4287.6 83.49480345494557
4438.48 84.30249714554385
4595.21 83.79127001333067
4756.35 83.26281148081331
4924.8 83.26505066377226
5097.66 83.18501455739502
5277.83 82.87100856718965
5463.87 83.36582825551731
5657.23 84.07250895884363
5856.45 84.23771531038227
6062.99 84.71746304034697
6276.86 85.37523701427752
6498.05 85.0809327895547
6726.56 84.84755537486222
6963.87 84.29544695554922
7209.96 83.69177449958947
7464.84 83.18823491970964
7727.05 82.86759554376813
7999.51 82.85734852528037
8282.23 82.65184543559664
8573.73 82.38918503138463
8876.95 82.64029726993246
9188.96 82.56419104911149
9514.16 82.23489960711784
9849.61 82.08289672830844
10196.8 82.30040246048944
10555.7 82.6343564312261
10927.7 83.05294677600415
11313.0 83.73047622925223
11712.9 84.04868164221955
12126.0 84.33169468294234
12553.7 84.33918090863098
12996.1 83.93920432668384
13454.6 83.44398626579648
13929.2 82.98052338654871
14419.9 82.11189699147505
14928.2 81.16382792668676
15455.6 80.26741842150172
16000.5 79.84365670494749
16564.5 80.49860942981796
17148.9 81.31325730714119
17752.4 81.84494575794744
18379.4 82.20670079160418
19026.9 82.14816016542628
19697.8 81.87537898565692
19999.5 82.08517824011824
