Freq "Front Wall Bounce"
20.5078 47.43365312672954
21.9727 48.3968308133836
23.4375 51.11766066106573
24.9023 51.86950169854664
26.3672 53.11505134459988
27.832 55.95363017940441
29.2969 57.42529881310385
30.7617 60.83645898895965
32.2266 62.74545005019915
33.6914 65.74090223555739
35.1562 68.10432334395912
36.6211 70.32989284543059
38.0859 72.37594146598853
39.5508 74.32654766964575
41.0156 76.0984917660919
42.4805 77.83450579142449
43.9453 79.47196420540581
45.4102 80.88611197545349
46.875 82.118853083984
48.3398 83.39100006424884
51.2695 85.4401940306398
52.7344 86.28644185326216
54.1992 87.00483248489968
55.6641 87.63092934685744
58.5938 88.55985783049884
60.0586 88.91883725978418
62.9883 89.36828167042032
64.4531 89.44646522644648
67.3828 89.58029554619888
68.8477 89.5963274046912
71.7773 89.59213291870749
74.707 89.52170232543111
77.6367 89.44808611241244
79.1016 89.35855712807285
82.0312 89.1726803703565
84.9609 89.0974749024722
87.8906 89.14747520922391
90.8203 89.05206430108238
95.2148 88.94331946961778
98.1445 88.83552920434988
101.074 88.71623120845229
105.469 88.53999354890674
108.398 88.46649383470098
112.793 88.3714902274018
117.188 88.15140147498063
120.117 88.26456312392621
124.512 88.35381852927945
128.906 88.36154925059255
133.301 88.2480821518303
139.16 87.89731146767828
143.555 88.02424205222873
147.949 88.06525323646767
153.809 87.93318593243251
159.668 87.7927414242811
165.527 87.74872818956712
171.387 87.71329702615533
177.246 87.63897152582526
183.105 87.52685221434163
188.965 87.45253760580398
196.289 87.2457328125011
203.613 87.13376108937467
210.938 87.11481733091908
218.262 86.92800904031135
225.586 86.67535805875772
232.91 86.59193726895181
241.699 86.66038240555005
250.488 86.99398055441208
259.277 87.02691229315988
268.066 86.7944161019287
276.855 86.41820316362974
287.109 86.00546200013083
297.363 86.49807704026206
307.617 86.903590954149
319.336 86.30059229413943
329.59 86.95288504412929
341.309 86.76465966602787
353.027 86.53178844419581
366.211 86.68711317872946
379.395 86.70947357252761
392.578 87.37431706756207
405.762 87.2493304214888
420.41 87.57388032074287
435.059 87.03131855299213
451.172 86.40483243825602
465.82 87.04206058179167
483.398 86.83324563223516
499.512 86.54458987211866
517.09 86.16155186938346
536.133 85.83013044926831
555.176 85.6271612899248
574.219 86.13368089196702
594.727 86.07526935413233
615.234 85.46685520909301
637.207 84.48509194874947
659.18 84.40121571458869
682.617 84.28901691163
707.52 83.66414827602031
732.422 86.20296576302397
757.324 85.83889454445543
785.156 86.05964326397488
811.523 84.62080184853153
840.82 86.58020180949127
870.117 88.1511379204904
900.879 87.66064456808694
933.105 88.00192162974554
965.332 87.45914808071882
1000.49 87.54148325594339
1035.64 87.76671368971218
1072.27 88.10928958566018
1108.89 88.30529175051173
1148.44 88.56036591309508
1189.45 87.65060888175869
1230.47 88.15236446866751
1274.41 87.35218034198071
1319.82 87.17850531508286
1366.7 87.60486064859525
1413.57 87.43758753127777
1463.38 85.8612002587217
1516.11 87.91870906118432
1568.85 87.79946599110063
1624.51 87.40813126838901
1681.64 87.994979183111
1741.7 88.63577836875625
1803.22 88.60473181206025
1866.21 88.7620665918891
1932.13 88.41969368031559
1999.51 89.08361164846578
2069.82 89.23623688819711
2143.07 88.52005007920258
2219.24 87.85939638676193
2296.88 88.10463877603362
2378.91 87.60661927549651
2462.4 87.05273412745335
2548.83 87.37482324254198
2639.65 86.91578682884123
2731.93 86.64290140132005
2828.61 86.7564878440006
2928.22 87.38377167115733
3030.76 87.43044677303888
3137.7 86.62350723314377
3249.02 87.03971544114367
3363.28 87.0961912062431
3481.93 87.45005594208844
3604.98 87.7340130715529
3732.42 87.33941231355033
3864.26 86.25268862121239
4000.49 86.29275576982094
4141.11 87.01199862764823
4287.6 86.79476729852105
4438.48 87.28080104275344
4595.21 87.01005531591731
4756.35 86.8939859740269
4924.8 86.24038140968314
5097.66 86.02408840387925
5277.83 86.45843890150987
5463.87 86.51756965311593
5657.23 86.53253547582297
5856.45 87.0845823883069
6062.99 87.12639261705853
6276.86 87.38551410395809
6498.05 87.19538895119081
6726.56 86.97727431382638
6963.87 86.64515308714996
7209.96 86.39273367020694
7464.84 86.47961017906154
7727.05 86.45777561079402
7999.51 86.34453619028947
8282.23 86.51913846875517
8573.73 86.74923178882668
8876.95 86.98328949636125
9188.96 87.16224821775032
9514.16 87.32118365042125
9849.61 87.48731017869164
10196.8 87.81231601530037
10555.7 87.97936806730391
10927.7 87.91966594071631
11313.0 87.57435053628132
11712.9 86.87280378576763
12126.0 86.38727929184121
12553.7 86.00999974540018
12996.1 86.0870157716918
13454.6 86.35620636722722
13929.2 86.39480436012946
14419.9 86.25627712206398
14928.2 85.93739114240755
15455.6 85.470760995428
16000.5 85.48440135845873
16564.5 86.1228896976471
17148.9 87.02891392803593
17752.4 87.48634288024475
18379.4 87.64282745887168
19026.9 87.42577826322632
19697.8 87.05618187224985
19999.5 87.27578886344526
