Freq "Early Reflections"
20.5078 59.79189505618922
21.9727 64.01644531917
23.4375 66.6938009334835
24.9023 69.30066433876375
26.3672 71.61469738667216
27.832 73.48202932492819
29.2969 75.13920012033701
30.7617 76.58428670800886
32.2266 77.77824345490686
33.6914 78.72162756207699
35.1562 79.59799241824038
36.6211 80.29434215494183
38.0859 80.8582602909047
39.5508 81.40691253527548
41.0156 81.82703375106917
42.4805 82.50339440256737
43.9453 82.74740974792115
45.4102 83.00529967169706
46.875 83.23662737897556
48.3398 83.48126012781333
51.2695 83.84906275931004
52.7344 84.08152734372482
54.1992 84.23701354078052
55.6641 84.38311292398969
58.5938 84.58562333941512
60.0586 84.74473936840351
62.9883 84.9247253956598
64.4531 85.00136550875462
67.3828 85.06775751025972
68.8477 85.13537637134763
71.7773 85.36494143065103
74.707 85.48772822251797
77.6367 85.61236594965327
79.1016 85.65285734573321
82.0312 85.64426380241642
84.9609 85.68020176645766
87.8906 85.75882710209251
90.8203 85.8279119868048
95.2148 85.73408241378729
98.1445 85.7412979543573
101.074 85.66882170509662
105.469 85.6808489102868
108.398 85.7915456112639
112.793 85.89312649231888
117.188 85.83166398001389
120.117 85.85758068222032
124.512 85.82090615978747
128.906 85.69109984906729
133.301 85.65048321920858
139.16 85.52297181619343
143.555 85.38265165426739
147.949 85.25779793870164
153.809 85.18628162038131
159.668 85.05420937705466
165.527 85.13009024947924
171.387 85.13591595358312
177.246 85.09052257327028
183.105 84.91742952102345
188.965 84.63597103642739
196.289 84.60839362957434
203.613 84.34751240061993
210.938 84.43367603408366
218.262 84.25815882785356
225.586 83.98908706913991
232.91 83.74430750676417
241.699 83.41055410444591
250.488 83.41186557538455
259.277 83.94486153181398
268.066 83.57378017453692
276.855 83.59768568179749
287.109 83.71356873361077
297.363 83.70792516162052
307.617 83.67142671681773
319.336 83.24223368743407
329.59 83.15504661845739
341.309 83.0004178080163
353.027 82.9527348836717
366.211 83.19133942405433
379.395 83.51296345368135
392.578 83.26139128026301
405.762 83.05331764775293
420.41 83.25953290746956
435.059 83.08349707405637
451.172 83.47823607839898
465.82 83.72486065602335
483.398 83.73176791068813
499.512 83.5974804457323
517.09 83.8042751559161
536.133 83.57629139257577
555.176 84.46416340543443
574.219 84.51516835304155
594.727 83.96927578289473
615.234 84.3484023715589
637.207 84.3192310527723
659.18 83.66666319335998
682.617 83.29421061195127
707.52 83.96003812690343
732.422 83.23647100772494
757.324 83.52547106938385
785.156 83.71730879004144
811.523 83.747511333537
840.82 83.11900521466974
870.117 83.03515427084321
900.879 83.4870800249875
933.105 83.12562402345868
965.332 83.58458707822061
1000.49 83.41447902846429
1035.64 83.07306530671238
1072.27 82.95324581897094
1108.89 82.37470765179499
1148.44 82.6970175245462
1189.45 82.29604342893967
1230.47 82.65753453821095
1274.41 82.99630565669474
1319.82 83.43767582750175
1366.7 83.97215855271199
1413.57 84.0213964183109
1463.38 83.68469362242156
1516.11 83.57085717947203
1568.85 83.23797145345883
1624.51 83.17113749126952
1681.64 83.66597158272809
1741.7 83.94574210344736
1803.22 83.73732030000112
1866.21 83.19978460077137
1932.13 81.81166343273034
1999.51 80.93347786774406
2069.82 81.25700926594483
2143.07 82.32677805541745
2219.24 83.03189118853908
2296.88 83.14948212889428
2378.91 83.20573600919198
2462.4 84.0818658550622
2548.83 85.1503398472566
2639.65 85.10491849283348
2731.93 84.00661037420889
2828.61 83.94355030841656
2928.22 84.57568260226688
3030.76 84.61955599642833
3137.7 84.23237711430066
3249.02 84.20477910207015
3363.28 84.20298239196768
3481.93 84.41865860594717
3604.98 84.34722830688489
3732.42 83.77513108915468
3864.26 83.34313798447673
4000.49 82.4927357235522
4141.11 82.14203102351722
4287.6 81.89431082851283
4438.48 81.15438607233986
4595.21 80.71690572459175
4756.35 80.67970351492325
4924.8 80.59575602375446
5097.66 80.19100172072484
5277.83 79.61249715265848
5463.87 80.04690099222233
5657.23 79.85809334811876
5856.45 80.13550083356671
6062.99 80.33171335738575
6276.86 80.59107201121941
6498.05 80.71210818774776
6726.56 81.35873652172356
6963.87 80.98815374921222
7209.96 81.18407250143518
7464.84 81.24105237632773
7727.05 81.0769825245911
7999.51 81.13326517409007
8282.23 80.61505704321792
8573.73 80.59021225759018
8876.95 80.72969758433902
9188.96 80.80634608749612
9514.16 80.03777950320098
9849.61 79.76623263382174
10196.8 79.75021885948625
10555.7 80.06091851334436
10927.7 80.22940178106019
11313.0 79.87245317827166
11712.9 80.44058352152535
12126.0 80.23835085176732
12553.7 80.0710088874205
12996.1 79.9462630965844
13454.6 80.0009134255955
13929.2 79.95215153030557
14419.9 79.55276762577184
14928.2 79.16060894325376
15455.6 78.49293784316737
16000.5 77.77899671942885
16564.5 77.07763414084783
17148.9 76.13138329272826
17752.4 75.13391146945895
18379.4 74.00358960661923
19026.9 72.78706937459788
19697.8 71.21845540733861
19999.5 70.42318312203228
