Freq,On Axis,Listening Window,Sound Power,Early Reflections,Early Reflections DI,Sound Power DI,DI offset
22.4,61.22025316455694,60.90642119333074,61.050153530670755,61.056492359286096,19.849928834044647,19.856267662659988,20
23.0,61.52025316455695,61.537722009127734,61.57168997007423,61.53619545989966,20.001526549228075,19.966032039053502,20
23.6,61.820253164556945,62.62471962735826,62.25636521843275,62.22146696913637,20.403252658221888,20.368354408925512,20
24.0,62.12025316455694,63.27645830746957,62.682272662553814,62.6988401624138,20.577618145055766,20.594185644915754,20
25.0,62.320253164556945,63.80471196516386,63.0834328086095,63.15393566777817,20.65077629738569,20.72127915655436,20
25.8,62.52025316455695,64.4670537938393,63.55518932993111,63.70878590930948,20.758267884529815,20.911864463908188,20
26.5,62.72025316455694,65.37008451240516,64.23569253237343,64.49283803145288,20.87724648095228,21.134391980031722,20
27.2,62.920253164556954,65.05213063065763,64.35563711889603,64.62105841782673,20.431072212830898,20.696493511761602,20
28.0,63.02025316455695,64.48152300162914,64.35204527932709,64.63180800887184,19.8497149927573,20.129477722302056,20
29.0,63.22025316455694,63.97180774105381,64.4546531744453,64.8109831667247,19.160824574329112,19.51715456660851,20
30.0,63.320253164556945,63.53566826515228,64.29506595051389,64.7503866744586,18.785281590693685,19.240602314638394,20
30.7,63.52025316455695,63.07563286794931,63.21466574792666,63.69331987355035,19.38231299439896,19.86096712002265,20
31.5,63.62025316455694,62.87333902973373,62.28076049910047,62.739650086724964,20.133688943008764,20.59257853063326,20
32.5,63.72025316455694,62.97656929983182,61.64601616268328,62.08134640072433,20.895222899107495,21.33055313714854,20
33.5,63.920253164556954,63.019716292289644,62.018642112433426,62.36516140092466,20.65455489136498,21.001074179856218,20
34.5,64.02025316455695,63.053861466371785,62.907348142750294,63.11710721676994,19.936754249601847,20.14651332362149,20
35.5,64.12025316455694,63.38900353469188,64.3849861178542,64.42860865032675,18.96039488436513,19.004017416837684,20
36.5,64.12025316455694,64.25679160465526,65.070907780955,65.18687121170038,19.069920392954884,19.185883823700266,20
37.5,64.22025316455694,65.60161531826456,65.9137368829995,66.04218001729973,19.559435300964836,19.687878435265063,20
38.7,64.22025316455694,67.17600138394349,67.04067299100126,67.19348446938024,19.98251691456325,20.135328392942228,20
40.0,64.32025316455695,66.98810557282196,66.98002352055401,67.21200367387166,19.7761018989503,20.00808205226795,20
41.2,64.32025316455695,66.7631664309947,67.14861973171533,67.34584789182662,19.41731853916808,19.614546699279373,20
42.5,64.32025316455695,65.02450335623834,65.28976579242371,65.7112409763172,19.31326237992114,19.734737563814633,20
43.7,64.32025316455695,62.60005472628123,62.38244126099539,63.317934296070135,19.282120430211094,20.217613465285837,20
45.0,64.32025316455695,61.52933889247265,60.922390787284485,62.12155580429548,19.40778308817717,20.606948105188167,20
46.2,64.32025316455695,63.51405819811109,62.87734729092543,63.365911206283016,20.14814699182807,20.63671090718566,20
47.5,64.32025316455695,65.05924146469206,64.85218676690744,64.66219702109238,20.397044443599682,20.207054697784628,20
48.7,64.32025316455695,63.250751115947736,64.59293595231463,63.87500170168482,19.375749414262913,18.657815163633103,20
50.0,64.32025316455695,62.60393983568416,66.38270199025095,65.3138935906671,17.290046245017052,16.22123784543321,20
51.5,64.42025316455694,63.4515468064222,65.16264530369867,64.48421162001557,18.96733518640663,18.288901502723533,20
53.0,64.52025316455695,65.41994376065863,64.56646248328316,64.33741645274262,21.08252730791601,20.853481277375465,20
54.5,64.62025316455694,66.39132517231445,65.61801480233343,65.50811231832473,20.88321285398972,20.77331036998102,20
56.0,64.72025316455695,66.43485482681476,65.84619344503767,65.85330551252198,20.581549314292772,20.588661381777086,20
58.0,64.62025316455694,65.21158791458484,64.48684069983558,64.7427262127234,20.468861701861442,20.724747214749257,20
60.0,64.52025316455695,64.69228908526117,64.0996217725863,64.35376004853427,20.338529036726896,20.592667312674863,20
61.5,64.42025316455694,64.63643180811688,64.3918218261488,64.4686712685725,20.167760539544375,20.244609981968082,20
63.0,64.32025316455695,64.67552382756023,64.39943762039083,64.51552694804023,20.159996879519994,20.2760862071694,20
65.0,64.42025316455694,64.79560685408389,64.39834855883822,64.60931471759915,20.186292136484738,20.397258295245663,20
67.0,64.62025316455694,65.10913291119115,64.88446839378472,65.02616279819209,20.082970112999064,20.22466451740644,20
69.0,64.82025316455695,65.20866526292498,65.12892951513895,65.19198300560012,20.01668225732486,20.07973574778603,20
71.0,64.92025316455695,64.97345792277106,64.98592189044128,64.97443523460727,19.99902268816379,19.987536032329785,20
73.0,64.82025316455695,65.01213027143365,65.14097929647623,65.09222908788767,19.919901183545974,19.871150974957416,20
75.0,64.72025316455695,64.9887042727934,65.09005709337701,65.02426351164176,19.964440761151636,19.898647179416386,20
77.5,64.62025316455694,64.84368745804905,64.86472258943311,64.81023656591782,20.033450892131228,19.978964868615932,20
80.0,64.52025316455695,64.64496571855568,64.72613951582547,64.69568243489823,19.94928328365745,19.918826202730216,20
82.5,64.42025316455694,64.56651893392194,64.71006595119279,64.6756676199063,19.890851314015634,19.856452982729152,20
85.0,64.32025316455695,64.52178815346818,64.74379355605902,64.62421255782036,19.897575595647822,19.77799459740916,20
87.5,64.22025316455694,64.30002307875418,64.52127365902244,64.35301054705286,19.94701253170132,19.77874941973174,20
90.0,64.12025316455694,63.93276633006309,64.03214272103911,63.93281676734,19.99994956272309,19.90062360902398,20
92.5,63.920253164556954,63.734540314369866,64.04284464588733,63.953239170264695,19.78130114410517,19.691695668482538,20
95.0,63.82025316455696,63.68950710533227,64.05982959124222,63.881917868513625,19.807589236818643,19.629677514090048,20
97.5,63.72025316455694,63.590268323507644,63.859427337209866,63.71426725962408,19.876001063883564,19.73084098629778,20
100.0,63.62025316455694,63.56089112958708,63.55106940906572,63.462346318937975,20.098544810649102,20.00982172052136,20
103.0,63.52025316455695,63.57895343356479,63.60677776500414,63.56884845896536,20.01010497459943,19.972175668560652,20
106.0,63.52025316455695,63.59283305748505,63.46599047461099,63.5340745778844,20.058758479600655,20.126842582874062,20
109.0,63.52025316455695,63.666018653064725,63.4013641055471,63.49243441638767,20.17358423667706,20.264654547517623,20
112.0,63.52025316455695,63.50003491731323,63.04789121902638,63.193958342238744,20.306076575074485,20.452143698286847,20
115.0,63.62025316455694,63.39180262415539,62.894529844746074,63.11099009828682,20.28081252586857,20.497272779409315,20
118.0,63.72025316455694,63.83484339766554,63.23394307447283,63.500959457647355,20.333883940018183,20.600900323192704,20
122.0,63.82025316455696,63.87837156422904,63.31457230009332,63.570633172200914,20.307738392028128,20.563799264135724,20
125.0,63.920253164556954,64.12561858889029,63.47382380703739,63.75111707070627,20.37450151818402,20.6517947818529,20
128.0,64.02025316455695,63.7246427312306,63.32936337208059,63.593694705200946,20.130948026029657,20.39527935915001,20
132.0,64.12025316455694,63.85970374895987,63.50612744473867,63.724898574797834,20.13480517416204,20.353576304221207,20
136.0,64.22025316455694,64.30182231933136,63.74012956734721,64.02161473299591,20.28020758633545,20.561692751984154,20
140.0,64.32025316455695,64.2352765334665,63.931408487954485,64.14713428133487,20.088142252131632,20.30386804551202,20
145.0,64.32025316455695,64.30646698612199,63.93298809865718,64.08710525295636,20.219361733165627,20.373478887464813,20
150.0,64.32025316455695,64.53223836991685,64.19859035009272,64.3242616926592,20.207976677257648,20.33364801982414,20
155.0,64.32025316455695,64.30054313240605,63.92284670191455,64.04298399024748,20.25755914215857,20.377696430491497,20
160.0,64.32025316455695,64.37138171007892,63.903793116867774,64.12422904887185,20.247152661207068,20.467588593211147,20
165.0,64.32025316455695,64.52204986676166,63.80549540207738,64.05362532192841,20.468424544833255,20.71655446468428,20
170.0,64.32025316455695,64.2902329915701,63.536858670098724,63.82855443740932,20.46167855416077,20.75337432147137,20
175.0,64.32025316455695,63.89484153527252,63.18538088817452,63.47229474400663,20.422546791265887,20.709460647098,20
180.0,64.32025316455695,64.05642863522442,63.59786813032514,63.76529479080399,20.29113384442043,20.458560504899282,20
185.0,64.42025316455694,64.34369917817861,63.77350206912237,63.98207916278008,20.36162001539853,20.570197109056238,20
190.0,64.52025316455695,64.45461048589254,63.99566515562071,64.17895828505893,20.27565220083362,20.45894533027183,20
195.0,64.62025316455694,64.61003049861007,64.16369062753044,64.28122299999882,20.328807498611255,20.44633987107963,20
200.0,64.82025316455695,64.910018687267,64.32917293530396,64.51795371558327,20.392064971683723,20.58084575196304,20
206.0,64.92025316455695,64.98743281831689,64.37370511069264,64.59753574324483,20.389897075072057,20.61372770762425,20
212.0,65.02025316455695,64.76953349012092,63.79586185472628,64.17369317225915,20.59584031786177,20.973671635394638,20
218.0,65.12025316455694,64.95917273754756,63.52551917328026,64.1810342800714,20.77813845747616,21.433653564267303,20
224.0,65.12025316455694,65.09874336168605,63.3745677015134,64.21105173321652,20.887691628469526,21.724175660172648,20
230.0,65.12025316455694,65.10003491731322,63.331021477907626,64.160946186052,20.939088731261222,21.769013439405597,20
236.0,65.02025316455695,65.11307242923883,63.50154492594811,64.2839511592563,20.829121269982522,21.611527503290716,20
240.0,65.02025316455695,64.81181962765012,63.324733306219656,64.06653548094818,20.745284146701948,21.487086321430468,20
250.0,64.92025316455695,64.72457208825196,63.43528405534778,64.10626175876601,20.61831032948595,21.28928803290418,20
258.0,65.02025316455695,65.14370510569483,63.63879797927747,64.31826528273173,20.825439822963105,21.504907126417365,20
265.0,65.02025316455695,64.91052573546054,63.2147828964511,64.14096583485346,20.769559900607078,21.69574283900944,20
272.0,65.12025316455694,64.99196673662081,63.15655529844979,64.09744385870586,20.89452287791495,21.835411438171022,20
280.0,65.12025316455694,65.04395957444092,63.32043567473636,64.22198360845897,20.82197596598195,21.72352389970456,20
290.0,65.12025316455694,64.92980829658418,63.17801158738463,64.13439207253178,20.795416224052403,21.751796709199553,20
300.0,65.02025316455695,64.81857251088601,62.872973841115495,63.962984579696155,20.85558793118986,21.94559866977052,20
307.0,65.02025316455695,64.98820026721847,62.81168697882835,64.01585797671103,20.97234229050744,22.176513288390126,20
315.0,64.92025316455695,64.56129667517658,62.561180543384296,63.73620225063728,20.8250944245393,22.000116131792282,20
325.0,65.02025316455695,64.80209136251887,62.86179065482631,64.03243617488528,20.76965518763359,21.940300707692558,20
335.0,65.02025316455695,64.76782010702661,62.98692589760941,64.08999160751033,20.67782849951628,21.7808942094172,20
345.0,65.12025316455694,64.98045018258227,63.3342045667099,64.34527656749128,20.63517361509099,21.646245615872374,20
355.0,65.12025316455694,65.07866517623415,63.64393545622249,64.52497343604969,20.553691740184462,21.43472972001166,20
365.0,65.22025316455696,65.13225012098432,63.706135700219505,64.55798344116181,20.574266679822514,21.42611442076482,20
375.0,65.22025316455696,65.44493662597839,63.50325734257211,64.58905265026318,20.8558839757152,21.941679283406273,20
387.0,65.22025316455696,65.4439882804424,63.26456177296744,64.38417666251861,21.059811617923785,22.179426507474957,20
400.0,65.22025316455696,65.09899462598409,63.01861216919434,64.19038146063187,20.90861316535222,22.08038245678975,20
412.0,65.22025316455696,64.95920886712656,62.98695789204132,64.18529898221558,20.773909884910978,21.972250975085245,20
425.0,65.32025316455693,65.10543787987285,63.262477081525034,64.30415785950044,20.801280020372417,21.842960798347818,20
437.0,65.42025316455694,65.17104620189302,63.40267537465985,64.32109192465248,20.849954277240542,21.76837082723317,20
450.0,65.42025316455694,65.41187976598185,63.60712202902155,64.60463301560102,20.807246750380827,21.804757736960298,20
462.0,65.42025316455694,65.32710095757965,63.170053245104285,64.30808409738692,21.01901686019272,22.15704771247536,20
475.0,65.42025316455694,65.21548781039948,62.72739316283696,64.09616661825177,21.11932119214771,22.48809464756252,20
487.0,65.32025316455693,65.23500440100818,62.57282269231288,64.05009153945387,21.18491286155431,22.6621817086953,20
500.0,65.22025316455696,64.85926699876353,62.22617512801847,63.813941574250876,21.045325424512654,22.633091870745062,20
515.0,65.02025316455695,64.69205429032434,62.365951304254665,63.65951031697483,21.032543973349505,22.32610298606967,20
530.0,64.92025316455695,64.53843738288688,62.828367670269785,63.87323197226701,20.665205410619876,21.7100697126171,20
545.0,65.02025316455695,64.70030028627238,63.11755264832195,64.03983718278232,20.66046310349006,21.582747637950433,20
560.0,65.22025316455696,64.97168760536066,62.92641264741353,64.07870257604213,20.892985029318524,22.04527495794713,20
580.0,65.12025316455694,64.9794289786045,62.4191687973171,63.83592082274302,21.143508155861483,22.560260181287404,20
600.0,65.12025316455694,65.11128938354351,62.41703434819189,63.937137170881016,21.17415221266249,22.694255035351617,20
615.0,65.42025316455694,65.74961025464536,62.94320049336346,64.35729848867831,21.39231176596705,22.8064097612819,20
630.0,65.82025316455695,65.89050220721565,63.14504932156838,64.4760573109565,21.41444489625914,22.745452885647268,20
650.0,66.02025316455695,66.08226397122395,62.88151837961276,64.45125525017265,21.631008721051302,23.200745591611195,20
670.0,66.12025316455694,66.04047571393394,62.388896935392125,64.3515313726478,21.688944341286145,23.65157877854182,20
690.0,66.12025316455694,65.77666099548534,62.24438839891147,64.26668406448226,21.50997693100308,23.532272596573875,20
710.0,65.72025316455695,65.38493662174534,62.11907182304411,63.900476592874014,21.484460028871325,23.26586479870123,20
730.0,65.32025316455693,64.86586094675891,62.11755140255808,63.650357776835406,21.215503169923508,22.748309544200836,20
750.0,64.92025316455695,64.45004071663026,62.040848107275764,63.39920926047145,21.050831456158804,22.40919260935449,20
775.0,64.32025316455695,63.98424902617806,61.075810292673424,62.581090309979885,21.403158716198178,22.90843873350464,20
800.0,63.920253164556954,63.86308632889498,60.65292389746415,62.28408651161014,21.57899981728484,23.21016243143083,20
825.0,64.02025316455695,63.740169446680454,60.08848000585432,62.01183518004456,21.728334266635898,23.651689440826132,20
850.0,64.22025316455694,63.81929049059187,60.10796967190416,62.18896360359153,21.630326887000336,23.71132081868771,20
875.0,64.42025316455694,64.1693567425391,61.000153563163735,62.94848324709537,21.220873495443726,23.16920317937536,20
900.0,64.32025316455695,64.20030407124872,61.17892467614131,62.968433155655404,21.23187091559332,23.021379395107417,20
925.0,63.82025316455696,64.31013709495627,60.95617751582179,62.86406186835332,21.446075226602957,23.353959579134482,20
950.0,63.420253164556954,63.9691270591932,60.06527517073367,62.20631136895082,21.762815690242377,23.903851888459528,20
975.0,63.22025316455694,62.65028705218893,59.017338578278014,61.04903560785152,21.601251444337407,23.632948473910915,20
1000.0,63.52025316455695,62.74159876680193,59.7067616732168,61.41029990311732,21.33129886368461,23.034837093585125,20
1030.0,63.62025316455694,63.56823965772743,60.62183204731369,62.2489949556894,21.319244702038034,22.946407610413743,20
1060.0,63.52025316455695,63.589813071217634,60.78891231478198,62.34175938571687,21.248053685500764,22.800900756435652,20
1090.0,63.12025316455694,63.2220396634367,60.28362330707776,61.861432703863784,21.36060695957292,22.938416356358942,20
1120.0,63.12025316455694,62.97487515094328,59.63923791569958,61.58373630337775,21.39113884756553,23.335637235243695,20
1150.0,63.320253164556945,62.899358136826976,59.34944748720052,61.37691638410844,21.522441752718535,23.549910649626455,20
1180.0,63.62025316455694,63.74996245596488,59.97596886962201,62.07931013368983,21.670652322275046,23.77399358634287,20
1220.0,63.62025316455694,63.48580470838172,59.58853283941197,61.92301086816802,21.5627938402137,23.897271868969753,20
1250.0,63.72025316455694,63.48258183880179,59.56477614150657,61.735406942373615,21.747174896428177,23.917805697295222,20
1280.0,64.32025316455695,63.328501903542104,59.64674027746483,61.88502793794906,21.443473965593043,23.681761626077275,20
1320.0,64.92025316455695,64.34302380240297,60.55066315759328,62.500896060984275,21.842127741418693,23.79236064480969,20
1360.0,64.92025316455695,64.89101400374611,59.991152548849755,62.528874194830834,22.362139808915273,24.899861454896353,20
1400.0,64.92025316455695,64.59496440536415,59.64621031419274,62.31594563732651,22.279018768037645,24.94875409117141,20
1450.0,64.92025316455695,64.30118685145743,58.74323712977633,61.54954058712133,22.751646264336102,25.557949721681098,20
1500.0,65.02025316455695,64.26192273988855,58.81879400088988,61.59177040465504,22.67015233523351,25.443128738998666,20
1550.0,65.02025316455695,64.47879940105472,60.18102440075705,62.58176614484191,21.897033256212808,24.297775000297662,20
1600.0,65.12025316455694,65.26965137643256,61.09171341338411,63.337374008264604,21.93227736816796,24.17793796304845,20
1650.0,65.32025316455693,65.68463102039914,60.950795467303806,63.40908667705723,22.275544343341906,24.733835553095332,20
1700.0,65.62025316455694,65.49309424993993,59.794190507022236,62.70472205938272,22.78837219055721,25.698903742917693,20
1750.0,65.92025316455694,65.10597940375182,59.48596830530576,62.674916793869585,22.431062609882233,25.620011098446057,20
1800.0,66.02025316455695,65.01009063054359,60.28873759316407,63.04044553396403,21.969645096579555,24.721353037379515,20
1850.0,66.02025316455695,65.33576487005513,61.44526911949808,63.873345323454544,21.462419546600586,23.89049575055705,20
1900.0,65.92025316455694,66.39504625269689,62.32785203898321,64.67833412488163,21.716712127815256,24.067194213713677,20
1950.0,65.62025316455694,65.77409387700077,61.03591049168432,63.66214224271192,22.111951634288843,24.738183385316447,20
2000.0,65.12025316455694,64.89060565714581,60.186226142355196,62.904193110479554,21.98641254666626,24.704379514790617,20
2060.0,64.32025316455695,63.595927103121326,59.349236680876885,61.92653797835365,21.669389124767676,24.24669042224444,20
2120.0,63.62025316455694,63.41573810782802,59.40558518903265,61.75930645998892,21.6564316478391,24.01015291879537,20
2180.0,63.22025316455694,62.920998555462305,58.20220948105893,60.878052515881194,22.04294603958111,24.718789074403375,20
2240.0,63.02025316455695,62.459106136287716,57.693308588254695,60.42756718916965,22.031538947118065,24.76579754803302,20
2300.0,63.02025316455695,62.93769335050604,58.477517350032954,61.09080978811514,21.8468835623909,24.460176000473083,20
2360.0,63.12025316455694,62.8286783061194,58.71382773361867,61.05721075192649,21.77146755419291,24.11485057250073,20
2400.0,63.02025316455695,62.64360456543946,58.361324508045456,60.667629298832736,21.975975266606724,24.282280057394004,20
2500.0,62.420253164556954,61.43021521812041,56.50755757649421,59.04159403285429,22.388621185266118,24.922657641626202,20
2580.0,61.32025316455696,60.921485819692776,55.82709340579024,58.32979322198537,22.591692597707407,25.09439241390254,20
2650.0,60.12025316455694,59.986654214941524,55.79099225675047,57.997425524658524,21.989228690283,24.195661958191053,20
2720.0,59.62025316455694,59.20705809179887,54.89163271919327,57.45196438185977,21.755093709939104,24.315425372605603,20
