Freq "On Axis"
22.4 60.89999999999999
23.0 61.2
23.6 61.5
24.0 61.8
25.0 62.0
25.8 62.2
26.5 62.39999999999999
27.2 62.60000000000001
28.0 62.7
29.0 62.89999999999999
30.0 63.0
30.7 63.2
31.5 63.3
32.5 63.39999999999999
33.5 63.60000000000001
34.5 63.7
35.5 63.8
36.5 63.8
37.5 63.89999999999999
38.7 63.89999999999999
40.0 64.0
41.2 64.0
42.5 64.0
43.7 64.0
45.0 64.0
46.2 64.0
47.5 64.0
48.7 64.0
50.0 64.0
51.5 64.1
53.0 64.2
54.5 64.3
56.0 64.4
58.0 64.3
60.0 64.2
61.5 64.1
63.0 64.0
65.0 64.1
67.0 64.3
69.0 64.5
71.0 64.60000000000001
73.0 64.5
75.0 64.4
77.5 64.3
80.0 64.2
82.5 64.1
85.0 64.0
87.5 63.89999999999999
90.0 63.8
92.5 63.60000000000001
95.0 63.500000000000014
97.5 63.39999999999999
100.0 63.3
103.0 63.2
106.0 63.2
109.0 63.2
112.0 63.2
115.0 63.3
118.0 63.39999999999999
122.0 63.500000000000014
125.0 63.60000000000001
128.0 63.7
132.0 63.8
136.0 63.89999999999999
140.0 64.0
145.0 64.0
150.0 64.0
155.0 64.0
160.0 64.0
165.0 64.0
170.0 64.0
175.0 64.0
180.0 64.0
185.0 64.1
190.0 64.2
195.0 64.3
200.0 64.5
206.0 64.60000000000001
212.0 64.7
218.0 64.8
224.0 64.8
230.0 64.8
236.0 64.7
240.0 64.7
250.0 64.60000000000001
258.0 64.7
265.0 64.7
272.0 64.8
280.0 64.8
290.0 64.8
300.0 64.7
307.0 64.7
315.0 64.60000000000001
325.0 64.7
335.0 64.7
345.0 64.8
355.0 64.8
365.0 64.90000000000002
375.0 64.90000000000002
387.0 64.90000000000002
400.0 64.90000000000002
412.0 64.90000000000002
425.0 64.99999999999999
437.0 65.1
450.0 65.1
462.0 65.1
475.0 65.1
487.0 64.99999999999999
500.0 64.90000000000002
515.0 64.7
530.0 64.60000000000001
545.0 64.7
560.0 64.90000000000002
580.0 64.8
600.0 64.8
615.0 65.1
630.0 65.5
650.0 65.7
670.0 65.8
690.0 65.8
710.0 65.4
730.0 64.99999999999999
750.0 64.60000000000001
775.0 64.0
800.0 63.60000000000001
825.0 63.7
850.0 63.89999999999999
875.0 64.1
900.0 64.0
925.0 63.500000000000014
950.0 63.10000000000001
975.0 62.89999999999999
1000.0 63.2
1030.0 63.3
1060.0 63.2
1090.0 62.8
1120.0 62.8
1150.0 63.0
1180.0 63.3
1220.0 63.3
1250.0 63.39999999999999
1280.0 64.0
1320.0 64.60000000000001
1360.0 64.60000000000001
1400.0 64.60000000000001
1450.0 64.60000000000001
1500.0 64.7
1550.0 64.7
1600.0 64.8
1650.0 64.99999999999999
1700.0 65.3
1750.0 65.6
1800.0 65.7
1850.0 65.7
1900.0 65.6
1950.0 65.3
2000.0 64.8
2060.0 64.0
2120.0 63.3
2180.0 62.89999999999999
2240.0 62.7
2300.0 62.7
2360.0 62.8
2400.0 62.7
2500.0 62.10000000000001
2580.0 61.000000000000014
2650.0 59.8
2720.0 59.3
2800.0 59.89999999999999
2900.0 60.89999999999999
3000.0 61.60000000000001
3070.0 61.39999999999999
3150.0 60.7
3250.0 59.999999999999986
3350.0 60.10000000000001
3450.0 60.7
3550.0 61.000000000000014
3650.0 60.8
3750.0 60.8
3870.0 61.60000000000001
4000.0 62.7
4120.0 63.500000000000014
4250.0 63.8
4370.0 64.5
4500.0 65.1
4620.0 65.1
4750.0 64.1
4870.0 62.89999999999999
5000.0 62.39999999999999
5150.0 62.0
5300.0 60.89999999999999
5450.0 60.7
5600.0 61.39999999999999
5800.0 61.8
6000.0 62.60000000000001
6150.0 63.60000000000001
6300.0 64.5
6500.0 65.2
6700.0 64.90000000000002
6900.0 63.89999999999999
7100.0 64.5
7300.0 65.1
7500.0 65.4
7750.0 65.8
8000.0 65.9
8250.0 65.8
8500.0 65.4
8750.0 65.7
9000.0 65.6
9250.0 65.6
9500.0 65.5
9750.0 65.8
10000.0 65.9
10300.0 66.09999999999998
10600.0 66.2
10900.0 66.5
11200.0 66.9
11500.0 67.40000000000002
11800.0 67.6
12200.0 67.49999999999999
12500.0 67.49999999999999
12800.0 67.49999999999999
13200.0 67.2
13600.0 66.39999999999999
14000.0 65.6
14500.0 64.5
15000.0 63.39999999999999
15500.0 62.60000000000001
16000.0 62.7
16500.0 63.2
17000.0 63.39999999999999
17500.0 63.39999999999999
18000.0 63.39999999999999
18500.0 63.39999999999999
19000.0 63.3
19500.0 63.39999999999999
