Freq "On Axis"
22.4 60.900000000000006
23.0 61.2
23.6 61.5
24.0 61.79999999999998
25.0 62.0
25.8 62.2
26.5 62.400000000000006
27.2 62.599999999999994
28.0 62.7
29.0 62.900000000000006
30.0 63.0
30.7 63.19999999999999
31.5 63.3
32.5 63.400000000000006
33.5 63.599999999999994
34.5 63.7
35.5 63.8
36.5 63.8
37.5 63.900000000000006
38.7 63.900000000000006
40.0 64.0
41.2 64.0
42.5 64.0
43.7 64.0
45.0 64.0
46.2 64.0
47.5 64.0
48.7 64.0
50.0 64.0
51.5 64.1
53.0 64.20000000000002
54.5 64.29999999999998
56.0 64.4
58.0 64.29999999999998
60.0 64.20000000000002
61.5 64.1
63.0 64.0
65.0 64.1
67.0 64.29999999999998
69.0 64.5
71.0 64.6
73.0 64.5
75.0 64.4
77.5 64.29999999999998
80.0 64.20000000000002
82.5 64.1
85.0 64.0
87.5 63.900000000000006
90.0 63.8
92.5 63.599999999999994
95.0 63.5
97.5 63.400000000000006
100.0 63.3
103.0 63.19999999999999
106.0 63.19999999999999
109.0 63.19999999999999
112.0 63.19999999999999
115.0 63.3
118.0 63.400000000000006
122.0 63.5
125.0 63.599999999999994
128.0 63.7
132.0 63.8
136.0 63.900000000000006
140.0 64.0
145.0 64.0
150.0 64.0
155.0 64.0
160.0 64.0
165.0 64.0
170.0 64.0
175.0 64.0
180.0 64.0
185.0 64.1
190.0 64.20000000000002
195.0 64.29999999999998
200.0 64.5
206.0 64.6
212.0 64.7
218.0 64.8
224.0 64.8
230.0 64.8
236.0 64.7
240.0 64.7
250.0 64.6
258.0 64.7
265.0 64.7
272.0 64.8
280.0 64.8
290.0 64.8
300.0 64.7
307.0 64.7
315.0 64.6
325.0 64.7
335.0 64.7
345.0 64.8
355.0 64.8
365.0 64.9
375.0 64.9
387.0 64.9
400.0 64.9
412.0 64.9
425.0 65.0
437.0 65.1
450.0 65.1
462.0 65.1
475.0 65.1
487.0 65.0
500.0 64.9
515.0 64.7
530.0 64.6
545.0 64.7
560.0 64.9
580.0 64.8
600.0 64.8
615.0 65.1
630.0 65.5
650.0 65.69999999999999
670.0 65.8
690.0 65.8
710.0 65.4
730.0 65.0
750.0 64.6
775.0 64.0
800.0 63.599999999999994
825.0 63.7
850.0 63.900000000000006
875.0 64.1
900.0 64.0
925.0 63.5
950.0 63.099999999999994
975.0 62.900000000000006
1000.0 63.19999999999999
1030.0 63.3
1060.0 63.19999999999999
1090.0 62.80000000000001
1120.0 62.80000000000001
1150.0 63.0
1180.0 63.3
1220.0 63.3
1250.0 63.400000000000006
1280.0 64.0
1320.0 64.6
1360.0 64.6
1400.0 64.6
1450.0 64.6
1500.0 64.7
1550.0 64.7
1600.0 64.8
1650.0 65.0
1700.0 65.30000000000001
1750.0 65.6
1800.0 65.69999999999999
1850.0 65.69999999999999
1900.0 65.6
1950.0 65.30000000000001
2000.0 64.8
2060.0 64.0
2120.0 63.3
2180.0 62.900000000000006
2240.0 62.7
2300.0 62.7
2360.0 62.80000000000001
2400.0 62.7
2500.0 62.099999999999994
2580.0 61.0
2650.0 59.8
2720.0 59.29999999999998
2800.0 59.900000000000006
2900.0 60.900000000000006
3000.0 61.599999999999994
3070.0 61.400000000000006
3150.0 60.69999999999999
3250.0 60.0
3350.0 60.099999999999994
3450.0 60.69999999999999
3550.0 61.0
3650.0 60.8
3750.0 60.8
3870.0 61.599999999999994
4000.0 62.7
4120.0 63.5
4250.0 63.8
4370.0 64.5
4500.0 65.1
4620.0 65.1
4750.0 64.1
4870.0 62.900000000000006
5000.0 62.400000000000006
5150.0 62.0
5300.0 60.900000000000006
5450.0 60.69999999999999
5600.0 61.400000000000006
5800.0 61.79999999999998
6000.0 62.599999999999994
6150.0 63.599999999999994
6300.0 64.5
6500.0 65.2
6700.0 64.9
6900.0 63.900000000000006
7100.0 64.5
7300.0 65.1
7500.0 65.4
7750.0 65.8
8000.0 65.9
8250.0 65.8
8500.0 65.4
8750.0 65.69999999999999
9000.0 65.6
9250.0 65.6
9500.0 65.5
9750.0 65.8
10000.0 65.9
10300.0 66.1
10600.0 66.2
10900.0 66.5
11200.0 66.9
11500.0 67.4
11800.0 67.6
12200.0 67.5
12500.0 67.5
12800.0 67.5
13200.0 67.2
13600.0 66.4
14000.0 65.6
14500.0 64.5
15000.0 63.400000000000006
15500.0 62.599999999999994
16000.0 62.7
16500.0 63.19999999999999
17000.0 63.400000000000006
17500.0 63.400000000000006
18000.0 63.400000000000006
18500.0 63.400000000000006
19000.0 63.3
19500.0 63.400000000000006
