Freq,On Axis,Listening Window,Sound Power,Early Reflections,Early Reflections DI,Sound Power DI,DI offset
20.5078,79.0277,79.01964303729173,78.60936681484803,78.81216320237732,50.20747983491441,50.4102762224437,50
21.9727,81.6501,81.64171190240253,81.2529749837689,81.44049050861244,50.20122139379009,50.38873691863364,50
23.4375,83.6376,83.63213837292544,83.26559233852085,83.4432946417068,50.18884373121864,50.36654603440459,50
24.9023,85.2628,85.2576871149287,84.87136164659529,85.06062303928861,50.197064075640085,50.38632546833341,50
26.3672,87.0755,87.06998041228852,86.71507703958932,86.8871871678291,50.18279324445942,50.3549033726992,50
27.832,89.0438,89.03691344390458,88.68671732190398,88.85504898497682,50.18186445892776,50.3501961220006,50
29.2969,90.45999999999998,90.45362547945346,90.0742581513416,90.25975931085114,50.19386616860233,50.37936732811187,50
30.7617,92.1729,92.1684763796458,91.85187364535973,92.00464701326689,50.163829366378906,50.316602734286064,50
32.2266,93.39249999999998,93.38724627140147,93.04419013162902,93.21110935020998,50.176136921191485,50.34305613977244,50
33.6914,94.76050000000001,94.75464716921456,94.39808010489025,94.57135529322674,50.18329187598782,50.35656706432431,50
35.1562,95.8093,95.80133989986334,95.41797409833535,95.60372427508337,50.19761562477997,50.38336580152799,50
36.6211,96.5131,96.5058114524522,96.13453652766606,96.31409015279877,50.19172129965344,50.37127492478615,50
38.0859,97.0254,97.01825787205068,96.64430723960834,96.82527079216021,50.19298707989047,50.373950632442344,50
39.5508,97.2693,97.26179499853399,96.88932113005833,97.06942653074725,50.192368467786736,50.37247386847565,50
41.0156,97.40470000000002,97.39591914676149,97.00680391855146,97.19421950730174,50.20169963945975,50.38911522821003,50
42.4805,97.49110000000002,97.48277638446046,97.09747061763872,97.28317719693555,50.19959918752491,50.385305766821745,50
43.9453,97.5362,97.52668444999992,97.12555942560233,97.31875970879108,50.20792474120884,50.40112502439759,50
45.4102,97.47379999999998,97.46499538458396,97.07585991920936,97.2634789389153,50.20151644566866,50.38913546537459,50
46.875,97.46780000000001,97.45942131380258,97.07511347658632,97.26054206420255,50.198879249600026,50.384307837216255,50
48.3398,97.45499999999998,97.4464883028045,97.06526306167832,97.24807709002444,50.19841121278006,50.381225241126174,50
51.2695,97.4435,97.43353394384678,97.0372910773176,97.22666725957879,50.20686668426799,50.39624286652918,50
52.7344,97.4439,97.43321048447844,97.02900696874119,97.22259027456646,50.21062020991198,50.40420351573725,50
54.1992,97.4677,97.45679621188228,97.05102275338973,97.24564686343196,50.21114934845032,50.40577345849255,50
55.6641,97.5021,97.49141050577805,97.0938392567662,97.28402538302373,50.20738512275432,50.39757124901185,50
58.5938,97.4016,97.39018565266707,96.96594767166464,97.17061862712514,50.219567025541934,50.424237981002435,50
60.0586,97.4439,97.43220257358696,97.00825499301632,97.21230433484446,50.2198982387425,50.42394758057064,50
62.9883,97.4336,97.42044436529167,96.97824863044191,97.19042292832512,50.23002143696655,50.44219573484976,50
64.4531,97.3927,97.37839563258683,96.921042069117,97.1398807956416,50.23851483694523,50.45735356346984,50
67.3828,97.0954,97.08319768768428,96.6686897248567,96.863429193107,50.21976849457728,50.41450796282757,50
68.8477,97.0216,97.00932036824798,96.59412426596023,96.78937675458779,50.21994361366019,50.41519610228775,50
71.7773,96.9788,96.96393698635686,96.50034626167587,96.72174021069158,50.24219677566528,50.463590724680984,50
74.707,96.853,96.83580236239331,96.34970122944229,96.58392287689212,50.25187948550119,50.48610113295102,50
77.6367,96.675,96.65864991196027,96.20074394480469,96.41884550986217,50.2398044020981,50.45790596715558,50
79.1016,96.5765,96.55984572990354,96.10835520562902,96.322011868452,50.23783386145155,50.45149052427452,50
82.0312,96.4223,96.40520538780041,95.93943788573289,96.15926726341908,50.245938124381325,50.46576750206752,50
84.9609,96.33960000000002,96.32321988637398,95.87258736148927,96.08375481590232,50.23946507047165,50.45063252488471,50
87.8906,96.3947,96.37495452273826,95.89715758251161,96.12127001053537,50.253684512202895,50.47779694022665,50
90.8203,96.46000000000001,96.43591370010239,95.88730308344695,96.14603321190518,50.28988048819721,50.54861061665544,50
95.2148,96.5409,96.51513241337828,95.92930713961258,96.20666611437217,50.30846629900611,50.58582527376571,50
98.1445,96.6775,96.6510551748313,96.06251739660412,96.34151853138373,50.30953664344757,50.58853777822718,50
101.074,96.681,96.65596305191467,96.07991818811229,96.35395108521773,50.30201196669694,50.57604486380238,50
105.469,96.8127,96.78412417720278,96.1739404196978,96.46705257766061,50.317071599542174,50.610183757504984,50
108.398,97.11159999999998,97.07827230682605,96.37862264200254,96.72193144463958,50.35634086218647,50.69964966482351,50
112.793,97.3236,97.2875706311851,96.55049093990822,96.91011319071701,50.37745744046809,50.73707969127689,50
117.188,97.44900000000001,97.41308004393319,96.67786775915195,97.03516295737094,50.37791708656225,50.73521228478124,50
120.117,97.5154,97.47838752258878,96.72176528394137,97.09089238657447,50.38749513601431,50.75662223864741,50
124.512,97.6328,97.59345424815541,96.82130984364098,97.19776946340124,50.39568478475417,50.772144404514435,50
128.906,97.6995,97.65621275074813,96.86774408595086,97.24676788315487,50.40944486759325,50.788468664797264,50
133.301,97.7412,97.69657672734266,96.91694118293009,97.28842008012838,50.408156647214284,50.77963554441257,50
139.16,97.76,97.7123419863529,96.89124260613359,97.27837726393334,50.43396472241956,50.82109938021931,50
143.555,97.8389,97.7844190687093,96.85642754105342,97.29825065385786,50.486168414851434,50.92799152765588,50
147.949,97.9034,97.84011122161783,96.82581919540925,97.30929724273817,50.530813978879664,51.01429202620858,50
153.809,97.8699,97.80555856533998,96.69600978437975,97.2325478073704,50.573010757969584,51.109548780960225,50
159.668,97.9734,97.9168206593687,96.88398671682081,97.38363170502947,50.533188954339224,51.03283394254788,50
165.527,98.0739,98.0099768294377,96.9725797441642,97.47574112198842,50.534235707449284,51.03739708527351,50
171.387,98.19040000000001,98.1130035790845,96.86650039053532,97.47893050656005,50.63407307252446,51.246503188549184,50
177.246,98.16059999999999,98.0763182622403,96.785327750944,97.41951554160015,50.65680272064016,51.2909905112963,50
183.105,98.0523,97.96716989834951,96.70432216972227,97.31201701476073,50.655152883588784,51.262847728627236,50
188.965,98.0197,97.93561226634301,96.56635223263976,97.23399699390512,50.70161527243789,51.369260033703256,50
196.289,98.1538,98.06412275451208,96.61966622302909,97.33687116308938,50.7272515914227,51.444456531483,50
203.613,98.2362,98.13726963778615,96.45937152869594,97.30742954602417,50.82984009176198,51.67789810909021,50
210.938,98.2909,98.18817264559593,96.35240224782139,97.30887351557816,50.87929913001777,51.83577039777454,50
218.262,98.1096,98.00861445140308,96.37214760308945,97.21218560625962,50.79642884514345,51.63646684831363,50
225.586,98.2135,98.10687303140313,96.41345210116091,97.27064956338958,50.83622346801354,51.69342093024221,50
232.91,98.4479,98.33463715597787,96.34327763498376,97.39356795235584,50.941069203622035,51.99135952099411,50
241.699,98.1868,98.07743187239852,96.15804020029061,97.18538265593284,50.89204921646568,51.919391672107906,50
250.488,98.5273,98.3755069171732,96.13219103301626,97.31126840796037,51.06423850921283,52.24331588415694,50
259.277,98.2808,98.16211226489176,96.13784622741792,97.17773541564564,50.98437684924612,52.024266037473836,50
268.066,97.8993,97.76649220745878,95.80349312956335,96.8037545819232,50.96273762553558,51.96299907789543,50
276.855,98.185,98.02366497821598,95.76160959966397,96.89763095971006,51.12603401850592,52.262055378552006,50
287.109,97.8485,97.69805997732054,95.4421493892738,96.5881151876594,51.10994478966114,52.255910588046746,50
297.363,98.2704,98.10924887130295,95.80191068424006,96.96243079096358,51.14681808033937,52.307338187062896,50
307.617,98.49009999999998,98.27522662550311,95.63791540279242,97.03720260729287,51.23802401821024,52.63731122271069,50
319.336,98.55679999999998,98.35435447715452,95.39998789467171,96.99903791509865,51.35531656205586,52.954366582482805,50
329.59,97.99880000000002,97.82077996779238,94.99605120094786,96.5350588465188,51.28572112127358,52.824728766844515,50
341.309,98.27100000000002,98.04241692678735,95.0883236297934,96.70435894399105,51.3380579827963,52.95409329699396,50
353.027,98.1266,97.9522388009905,94.94563454532494,96.5869502709542,51.365288530036295,53.006604255665565,50
366.211,98.3268,98.1460235605068,94.83395260619079,96.7017385976759,51.444284962830906,53.31207095431601,50
379.395,98.7271,98.52555127182589,95.27695451268465,97.21498961765252,51.31056165417337,53.248596759141236,50
392.578,97.9742,97.79046981374749,94.7652055036111,96.51191374415954,51.27855606958795,53.02526431013639,50
405.762,97.8465,97.62271091490206,94.61386797577211,96.31011653406973,51.31259438083232,53.00884293912995,50
420.41,97.9668,97.6927365913222,94.39121649343942,96.26766482183302,51.42507176948918,53.301520097882786,50
435.059,97.7421,97.49189270867718,94.41065707579494,96.1520814353288,51.33981127334839,53.08123563288224,50
451.172,98.7678,98.44368392413345,94.41010143032904,96.6792643306178,51.764419593515655,54.03358249380442,50
465.82,98.5806,98.25319610147992,94.18168059652578,96.46878480491286,51.78441129656706,54.071515504954135,50
483.398,98.5279,98.2318161173838,94.6172728035709,96.67751383093398,51.554302286449825,53.6145433138129,50
499.512,98.1388,97.7168976027435,94.13245248076588,96.11643104381596,51.600466558927536,53.58444512197762,50
517.09,98.571,98.055483117886,94.35656319951991,96.27647708165048,51.779006036235515,53.69891991836609,50
536.133,98.7439,98.2369536127837,93.53446823603235,95.78246904339449,52.45448456938921,54.70248537675134,50
555.176,98.8576,98.39942424218096,93.32201205351456,96.09040143790484,52.30902280427611,55.0774121886664,50
574.219,98.8003,98.2339928345313,93.21849632973519,95.95452152829766,52.279471306233646,55.01549650479612,50
594.727,98.5494,97.92599488382982,92.50395005323509,95.34092208258014,52.58507280124968,55.42204483059473,50
615.234,98.2588,97.71916424780561,92.07409100092188,95.1120374760535,52.60712677175211,55.645073246883726,50
637.207,98.0175,97.37299665404521,91.99976541541017,95.00700379425047,52.365992859794744,55.37323123863504,50
659.18,97.26829999999998,96.59021826827177,91.27546439547118,94.08383509986793,52.50638316840384,55.314753872800594,50
682.617,98.2365,97.60117664967424,91.80512167076583,94.68486551361079,52.916311136063456,55.796054978908415,50
707.52,98.1247,97.52478970784135,91.77349970572944,94.96747619419882,52.55731351364253,55.751290002111915,50
732.422,97.5026,96.97701303189521,91.5209538496315,94.3821009712301,52.59491206066511,55.456059182263715,50
757.324,98.10329999999999,97.56156400763368,92.08965734720412,95.07071984168962,52.490844165944054,55.47190666042955,50
785.156,97.347,97.06012570609278,91.99341024639973,94.84067119079955,52.21945451529322,55.06671545969304,50
811.523,97.74109999999999,97.30789373045441,92.45606940593885,95.15984730961443,52.148046420839975,54.85182432451556,50
840.82,97.9348,97.63699878310183,93.10261698657317,95.55471385899511,52.082284924106716,54.53438179652866,50
870.117,98.1671,98.0013297434436,93.24065789191616,95.489326602707,52.51200314073661,54.76067185152745,50
900.879,98.6246,98.37613396466055,93.61675389444476,96.13784839458364,52.23828557007691,54.7593800702158,50
933.105,98.26830000000001,98.2980991126703,93.72143166466003,96.1081722635305,52.189926849139795,54.57666744801027,50
965.332,98.6687,98.5082865232352,93.85937915521475,96.33945148478328,52.16883503845192,54.648907368020446,50
1000.49,98.28459999999998,98.44683414933652,93.88420896045099,96.22526736827157,52.22156678106495,54.562625188885534,50
1035.64,98.4047,98.47191828749223,93.828060649559,96.2866251933607,52.185293094131524,54.64385763793322,50
1072.27,97.9834,98.14946163499195,93.54189548918849,95.94871543485468,52.200746200137274,54.60756614580346,50
1108.89,98.5589,98.24118060414781,93.25686224819269,95.82589063032236,52.41528997382545,54.984318355955125,50
1148.44,98.5054,97.9963510539929,93.06393515566495,95.5298092722111,52.4665417817818,54.932415898327946,50
1189.45,98.2314,97.79558384220292,92.70944071450026,95.19813078064568,52.59745306155723,55.086143127702655,50
1230.47,98.9774,98.10033404567454,92.70092826197651,95.34190992763034,52.7584241180442,55.39940578369803,50
1274.41,99.2842,98.2527850710399,92.50574565817391,95.365969617287,52.88681545375289,55.74703941286599,50
1319.82,99.09120000000001,98.13185720631968,92.18311354952677,95.11363594358275,53.01822126273693,55.948743656792914,50
1366.7,98.8442,97.70250201185591,91.71465743615802,94.80632426541874,52.896177746437175,55.98784457569789,50
1413.57,98.4434,97.22783495260573,90.97555547866885,94.19533674443632,53.032498208169415,56.25227947393688,50
1463.38,98.00029999999998,96.60228429427694,90.36363881755884,93.67938393686688,52.92290035741006,56.238645476718105,50
1516.11,97.5564,96.03005067249144,89.93264987984209,93.1533514511219,52.876699221369535,56.09740079264935,50
1568.85,97.0947,95.76330532161282,89.69174652147731,92.83769806299946,52.925607258613354,56.071558800135506,50
1624.51,97.8664,96.62323953719803,90.03474726597861,93.0767538234828,53.54648571371523,56.58849227121942,50
1681.64,98.7971,97.72600610544477,90.55401872162037,93.6724882760242,54.05351782942057,57.1719873838244,50
1741.7,98.63069999999999,97.96048003144833,90.4196825092775,93.73411382124732,54.22636621020101,57.540797522170834,50
1803.22,98.2378,97.6490287666605,90.70332315957072,93.32935008737341,54.319678679287094,56.94570560708979,50
1866.21,97.14590000000001,96.93499233556949,89.98935031737408,92.75754241137254,54.17744992419695,56.945642018195414,50
1932.13,96.2858,96.59496257854522,90.15155419640806,92.34307705854613,54.25188551999909,56.443408382137164,50
1999.51,97.7873,97.61796197191971,91.92550737552854,93.44291093359988,54.175051038319836,55.69245459639117,50
2069.82,98.1025,97.88528513584794,91.14846223328473,93.38094287782894,54.504342258018994,56.736822902563205,50
2143.07,98.6265,98.36092989101175,91.20117879415456,93.62592369720787,54.73500619380388,57.15975109685719,50
2219.24,97.5915,97.69440450285836,90.79699130509275,93.21375704048614,54.48064746237222,56.897413197765616,50
2296.88,99.0174,97.13801382855938,90.65724647268117,92.92730912202411,54.21070470653527,56.480767355878214,50
2378.91,98.6403,98.18055980833559,91.26688593228015,94.27466913688488,53.905890671450706,56.91367387605544,50
2462.4,99.8466,98.92804841476438,91.05530732809206,94.31045372234229,54.61759469242209,57.87274108667232,50
2548.83,100.255,98.99431987549116,91.02720102935217,94.49430505643016,54.50001481906099,57.96711884613899,50
2639.65,99.6054,98.12412547874831,90.50257486198329,94.11443541411916,54.009690064629154,57.62155061676502,50
2731.93,98.5194,97.26730941014699,89.76210545691387,93.36426623580128,53.90304317434571,57.50520395323312,50
2828.61,98.5529,97.73231115938218,89.88644294190489,93.5076219527485,54.224689206633684,57.84586821747729,50
2928.22,99.4783,98.42702535369678,90.52907782839473,94.11435547900122,54.31266987469556,57.897947525302044,50
3030.76,99.6052,98.46343421437292,90.6866765597787,94.28315787710073,54.18027633727219,57.77675765459422,50
3137.7,99.1398,98.28230237076176,90.63591420472268,94.21318958790978,54.069112782851974,57.646388166039074,50
3249.02,98.3983,97.69449943073431,90.44576379529252,94.05768916654398,53.63681026419033,57.24873563544179,50
3363.28,97.6082,97.38788455808597,90.29000255578376,93.70582226400475,53.68206229408122,57.097882002302214,50
3481.93,97.7719,97.42599100501873,90.4318454347715,93.81577134005052,53.61021966496821,56.99414557024723,50
3604.98,98.3289,97.7011766962302,90.83396563376633,94.0322157666164,53.6689609296138,56.86721106246388,50
3732.42,99.0029,98.50419047819892,90.99798267115884,94.20250641597528,54.30168406222364,57.506207807040084,50
3864.26,98.6148,98.01957931588197,90.58066707101683,94.06988831129044,53.94969100459153,57.438912244865136,50
4000.49,98.8827,97.8961165309578,90.32517909779865,93.98925726831598,53.90685926264182,57.570937433159145,50
4141.11,99.70860000000002,98.74890574919797,90.74264099913965,94.62402813909365,54.12487761010432,58.00626475005832,50
4287.6,100.025,98.7910491451562,90.81287558136363,94.76566790838643,54.02538123676976,57.978173563792566,50
4438.48,99.7009,98.80102049970986,90.81504415474787,94.80023959708235,54.00078090262751,57.985976344962,50
4595.21,98.5507,98.29895142847734,90.39342786756595,94.34869258224785,53.95025884622949,57.90552356091139,50
4756.35,99.4581,99.09886518200662,90.84152244393772,94.90403825800244,54.194826924004175,58.2573427380689,50
4924.8,99.7733,99.33087030603375,90.78044482431656,94.70397787202566,54.626892434008084,58.550425481717184,50
5097.66,98.8303,98.43940819668735,90.30852133546057,94.32062692447494,54.118781272212416,58.130886861226784,50
5277.83,98.751,98.41832009426473,90.26726755332214,94.28916930872612,54.12915078553861,58.15105254094259,50
5463.87,98.7589,98.34102656254805,90.20051783199767,94.12728416577758,54.21374239677047,58.14050873055038,50
5657.23,98.941,98.3099133380198,89.99291756317415,93.81543436696167,54.49447897105813,58.31699577484565,50
5856.45,97.9786,97.520065093509,89.43134108688659,93.16022119090744,54.35984390260157,58.088724006622414,50
6062.99,98.4005,98.10194749205652,89.77836452388298,93.61441000394257,54.48753748811396,58.32358296817354,50
6276.86,98.5976,97.74234657687931,89.49884408435291,93.67567076816093,54.06667580871839,58.2435024925264,50
6498.05,98.6828,97.95621718264503,89.5785445720404,93.9199733139772,54.03624386866784,58.377672610604634,50
6726.56,98.715,97.92699054394922,89.4436813510712,93.54337929154417,54.383611252405046,58.48330919287801,50
6963.87,99.074,97.850251094486,89.41583306904108,93.46695582092349,54.38329527356251,58.43441802544491,50
7209.96,98.93379999999999,98.36768528186009,89.89841007895927,93.91721796859224,54.45046731326785,58.46927520290082,50
7464.84,98.2173,98.14358721037195,89.64355584008416,93.79950475473632,54.34408245563563,58.500031370287786,50
7727.05,99.13389999999998,98.34238745822336,89.92686655960586,94.19323875208211,54.14914870614125,58.4155208986175,50
7999.51,98.6389,98.24173474059388,89.81828159955187,94.24562094216367,53.996113798430216,58.42345314104202,50
8282.23,98.5578,98.18820849387764,89.935811624798,94.47170665477094,53.7165018391067,58.25239686907963,50
8573.73,98.3568,98.2424838941914,89.90825507483726,94.50726673106425,53.735217163127146,58.33422881935414,50
8876.95,98.6049,98.2064769168696,89.62537735433212,94.12607537716835,54.080401539701256,58.58109956253749,50
9188.96,97.869,97.87478049153914,89.26116100815412,93.57830689671752,54.29647359482162,58.61361948338502,50
9514.16,98.3975,98.14184017255806,89.39992139505553,93.92862067793318,54.21321949462488,58.74191877750253,50
9849.61,98.1566,97.9335676236121,89.24868382484904,93.91475174060056,54.01881588301154,58.68488379876307,50
10196.8,98.7494,98.19658213949391,89.41353152628812,94.12070009764538,54.07588204184853,58.78305061320579,50
10555.7,98.70859999999999,98.1482416669925,89.13772598945785,93.84958584049842,54.298655826494084,59.010515677534656,50
10927.7,98.9956,98.31868623372382,89.0248888395197,93.71991242495329,54.59877380877053,59.29379739420412,50
11313.0,99.1685,98.32804054256466,88.84512316025649,93.46048840859856,54.8675521339661,59.48291738230817,50
11712.9,99.1388,98.40887034252826,88.93809408611436,93.6178719006688,54.79099844185946,59.4707762564139,50
12126.0,99.299,98.45533821399738,89.0267461874227,93.84004727822915,54.61529093576823,59.42859202657468,50
12553.7,99.23059999999998,98.48216459084883,89.09443262700364,94.01395227822819,54.468212312620636,59.387731963845184,50
