Freq "Side Wall Bounce"
22.4 53.002352839999375
23.0 52.11161790121564
23.6 51.315848283146735
24.0 50.492913115882814
25.0 49.83696350575629
25.8 50.51458263407956
26.5 52.042182110685545
27.2 53.70354562588601
28.0 55.02806564872415
29.0 55.34098345150018
30.0 55.66294093446861
30.7 56.24192834193883
31.5 56.93123996370382
32.5 58.245583215899174
33.5 59.57523982543255
34.5 60.510417751656476
35.5 61.633722727600755
36.5 62.73219973966603
37.5 63.751417982312276
38.7 65.22644297213091
40.0 66.69508511734047
41.2 68.18586811069186
42.5 69.72559908083205
43.7 71.13224882724829
45.0 72.47157131560816
46.2 73.67157131560815
47.5 74.61160022136504
48.7 75.36018133189567
50.0 75.87440888813997
51.5 76.18050938082534
53.0 76.25271944892768
54.5 76.10053767120918
56.0 75.83901438103105
58.0 75.54225343787893
60.0 75.30149032904735
61.5 75.15201467078431
63.0 75.07474636747978
65.0 75.06196004630975
67.0 75.09649781287563
69.0 75.14838835319708
71.0 75.22515470433756
73.0 75.33583095276545
75.0 75.5091400462183
77.5 75.74466917433617
80.0 76.0514037024853
82.5 76.30326594185222
85.0 76.61943637177079
87.5 76.91593636441908
90.0 77.18223518970784
92.5 77.32223909969235
95.0 77.2437559455202
97.5 77.05757764001676
100.0 76.82076829482763
103.0 76.70933342857937
106.0 76.8506078793825
109.0 77.13382784766081
112.0 77.4956595463748
115.0 77.83097245783011
118.0 78.14304037856297
122.0 78.50385843214383
125.0 78.84965261677154
128.0 79.21064444028126
132.0 79.5180314980767
136.0 79.73880510912811
140.0 79.86802721986167
145.0 79.89772783326679
150.0 79.88347009071025
155.0 79.89772783326679
160.0 79.96403510838714
165.0 80.09703530344964
170.0 80.24648829735723
175.0 80.39119046046343
180.0 80.46126858246801
185.0 80.33029513055278
190.0 79.50834304194679
195.0 77.52180107680984
200.0 74.68741567514233
206.0 72.3133392335118
212.0 71.508481117628
218.0 72.59232619848531
224.0 74.75464405027718
230.0 76.73809796968395
236.0 78.17768431915799
240.0 79.32144858410585
250.0 80.16475982688453
258.0 80.58587502289996
265.0 80.43427435068831
272.0 79.61878745879686
280.0 78.2802375033773
290.0 76.70212534516808
300.0 75.08950391951865
307.0 73.65130495951378
315.0 72.51048487424042
325.0 71.47430687851951
335.0 70.59523237274429
345.0 69.77487864963665
355.0 68.62935656808494
365.0 67.32053142276202
375.0 66.99652265712628
387.0 67.7313232500849
400.0 69.05710991242888
412.0 69.9930122907811
425.0 70.23078824478156
437.0 70.01635751169569
450.0 68.97363179430802
462.0 67.14975454746202
475.0 65.39311795340878
487.0 64.35319145304
500.0 64.6569607486319
515.0 66.09825257566614
530.0 67.62680026778285
545.0 68.43304470889976
560.0 68.72882921357625
580.0 68.90169057270712
600.0 69.27741163790925
615.0 70.05870510811961
630.0 71.19383405079796
650.0 72.40381402937531
670.0 73.69930171219083
690.0 74.5168223045936
710.0 74.65047668100502
730.0 73.69313354674071
750.0 71.47850787843244
775.0 69.13757640569834
800.0 67.45359664589421
825.0 67.279211943043
850.0 68.31651680888521
875.0 69.37860968850491
900.0 70.0878777738529
925.0 70.77770315021432
950.0 71.46291747460737
975.0 72.0408901203041
1000.0 72.30500996375208
1030.0 72.24735909074168
1060.0 71.87825419843394
1090.0 71.23056981014302
1120.0 70.63999779849668
1150.0 69.68677569131259
1180.0 68.64326565904766
1220.0 68.42754954415231
1250.0 68.80070980607836
1280.0 69.44686721439096
1320.0 69.6086004803505
1360.0 68.98575966570236
1400.0 67.64090399036131
1450.0 66.07875035362909
1500.0 64.76739413678993
1550.0 63.28683422075798
1600.0 62.24600952869331
1650.0 61.954635285649786
1700.0 62.14495947979516
1750.0 62.808981453091675
1800.0 63.49771855178055
1850.0 63.60819316691355
1900.0 63.85761065308576
1950.0 64.55328463171485
2000.0 65.42539813789959
2060.0 66.26724555383784
2120.0 66.07771392237534
2180.0 64.75704130051378
2240.0 63.48544688365779
2300.0 62.964598309612455
2360.0 62.78753280509534
2400.0 63.09691046948346
2500.0 63.309481862478904
2580.0 62.768539140529725
2650.0 62.27144957571265
2720.0 61.65260596984973
2800.0 61.113596944532205
2900.0 60.987260429223724
3000.0 60.923293227083875
3070.0 60.39618589670057
3150.0 59.4865826947165
3250.0 58.166621201864515
3350.0 56.54938402864262
3450.0 55.71637793023635
3550.0 55.25578156253822
3650.0 55.17077282867619
3750.0 55.637222106822435
3870.0 55.40146335599546
4000.0 54.448624810114225
4120.0 53.788025057707884
4250.0 53.93604824569711
4370.0 55.80896597477519
4500.0 58.80785053581418
4620.0 61.47058013553283
4750.0 62.8283190012006
4870.0 62.9434865120065
5000.0 62.26889886930181
5150.0 61.34053036177704
5300.0 60.865435306437476
5450.0 60.861676192288044
5600.0 61.05582084359584
5800.0 61.42125898165396
6000.0 61.7796276942711
6150.0 62.06982120614734
6300.0 62.46640865722431
6500.0 62.68242536948868
6700.0 62.424097565285166
6900.0 62.43689366203077
7100.0 62.80975716293203
7300.0 63.91293192214859
7500.0 65.24414348078531
7750.0 65.56202899218177
8000.0 64.78522429377499
8250.0 63.58689220729579
8500.0 62.73108115841195
8750.0 62.551397750485634
9000.0 62.83167184526026
9250.0 63.154385441076414
9500.0 63.1594735689751
9750.0 63.053590610605156
10000.0 62.68722039676486
10300.0 61.74895976129396
10600.0 60.67244825985526
10900.0 59.69349794306444
11200.0 58.7024746359386
11500.0 57.65151355665046
11800.0 56.47305426473004
12200.0 55.54958950661833
12500.0 54.9901553216656
12800.0 55.0096913367892
13200.0 56.21386723486745
13600.0 57.829270004865876
14000.0 59.309746794044
14500.0 60.93820715454186
15000.0 62.09589390956232
15500.0 62.4319977046445
16000.0 62.68269342211583
16500.0 62.28475443685468
17000.0 61.008610329043066
17500.0 58.46111696924419
18000.0 53.976586383275745
18500.0 48.220947622854695
19000.0 43.08651642654151
19500.0 39.617459849371116
