Freq,Floor Bounce,Ceiling Bounce,Front Wall Bounce,Side Wall Bounce,Rear Wall Bounce,Total Early Reflection
20.0,53.64755208110729,53.18473982693031,53.45795597484276,53.45795597484276,53.45795597484276,53.44373190714505
20.2909,53.8045520811073,53.341739826930294,53.61495597484277,53.61495597484277,53.61495597484277,53.60073190714506
20.586,54.029885547799935,53.56740673277248,53.84095597484277,53.84095597484277,53.84095597484277,53.82652944135303
20.8855,54.313552081107346,53.85073982693031,54.12495597484276,54.12495597484276,54.12495597484276,54.11033390307908
21.1893,54.60288554779997,54.14040673277246,54.41395597484275,54.41395597484275,54.41395597484275,54.39952944135304
21.4975,54.91455208110732,54.45173982693031,54.72495597484276,54.72495597484276,54.72495597484276,54.710731907145046
21.8102,55.2625520811073,54.79973982693029,55.073955974842775,55.073955974842775,55.073955974842775,55.059333903079064
22.1274,55.628552081107316,55.165739826930306,55.438955974842756,55.438955974842756,55.438955974842756,55.424731907145045
22.4492,56.084552081107304,55.621739826930295,55.89595597484278,55.89595597484278,55.89595597484278,55.88133390307907
22.7758,56.594552081107324,56.131739826930314,56.40595597484277,56.40595597484277,56.40595597484277,56.39133390307909
23.1071,57.18555208110733,56.722739826930294,56.99595597484277,56.99595597484277,56.99595597484277,56.98173190714506
23.4432,57.872552081107315,57.409739826930306,57.682955974842756,57.682955974842756,57.682955974842756,57.668731907145045
23.7841,58.65755208110731,58.1947398269303,58.46795597484278,58.46795597484278,58.46795597484278,58.45373190714507
24.1301,59.50422331610959,59.04140673277247,59.31495597484276,59.31495597484276,59.31495597484276,59.30060023558188
24.4811,60.42755208110732,59.964739826930284,60.23895597484277,60.23895597484277,60.23895597484277,60.22433390307906
24.8372,61.410552081107326,60.94773982693029,61.22095597484277,61.22095597484277,61.22095597484277,61.206731907145056
25.1984,62.44255208110731,61.9797398269303,62.25295597484276,62.25295597484276,62.25295597484276,62.23873190714504
25.5649,63.455552081107314,62.99307628700571,63.26695597484276,63.26695597484276,63.26695597484276,63.25239729264524
25.9368,64.5015520811073,64.0387398269303,64.31195597484276,64.31195597484276,64.31195597484276,64.29773190714504
26.3141,65.49622331610958,65.03340673277246,65.30695597484277,65.30695597484277,65.30695597484277,65.29260023558189
26.6968,66.45655208110732,65.9940762870057,66.26795597484276,66.26795597484276,66.26795597484276,66.25339729264525
27.0851,67.29655208110731,66.8337398269303,67.10795597484277,67.10795597484277,67.10795597484277,67.09333390307906
27.4791,67.99622331610958,67.53340673277246,67.80695597484277,67.80695597484277,67.80695597484277,67.79260023558189
27.8788,68.5715520811073,68.10873982693029,68.38195597484277,68.38195597484277,68.38195597484277,68.36773190714506
28.2843,69.03855208110731,68.5757398269303,68.84995597484277,68.84995597484277,68.84995597484277,68.83533390307906
28.6957,69.42955208110732,68.96673982693031,69.24095597484276,69.24095597484276,69.24095597484276,69.22633390307907
29.1131,69.88755208110732,69.4247398269303,69.69895597484276,69.69895597484276,69.69895597484276,69.68433390307906
29.5365,70.46155208110731,69.9987398269303,70.27195597484278,70.27195597484278,70.27195597484278,70.25773190714506
29.9661,71.2005520811073,70.73773982693031,71.01095597484277,71.01095597484277,71.01095597484277,70.99673190714506
30.402,72.04055208110732,71.57773982693031,71.85195597484277,71.85195597484277,71.85195597484277,71.83733390307907
30.8442,72.96155208110731,72.4987398269303,72.77195597484278,72.77195597484278,72.77195597484278,72.75773190714506
31.2929,73.87255208110732,73.40973982693029,73.68395597484276,73.68395597484276,73.68395597484276,73.66933390307906
31.748,74.7015520811073,74.23940673277247,74.51295597484277,74.51295597484277,74.51295597484277,74.49845955298656
32.2098,75.5365520811073,75.07340673277245,75.34695597484277,75.34695597484277,75.34695597484277,75.33266914694971
32.6783,76.29355208110732,75.8307398269303,76.10395597484275,76.10395597484275,76.10395597484275,76.08973190714504
33.1536,76.94955208110731,76.4867398269303,76.76095597484277,76.76095597484277,76.76095597484277,76.74633390307906
33.6359,77.52655208110731,77.0640762870057,77.33795597484277,77.33795597484277,77.33795597484277,77.32339729264525
34.1251,77.97955208110731,77.51707628700571,77.79095597484276,77.79095597484276,77.79095597484276,77.77639729264524
34.6215,78.35955208110732,77.89673982693031,78.16995597484278,78.16995597484278,78.16995597484278,78.15573190714505
35.125,78.68955208110732,78.22673982693031,78.49995597484276,78.49995597484276,78.49995597484276,78.48573190714505
35.6359,79.00555208110731,78.5427398269303,78.81695597484277,78.81695597484277,78.81695597484277,78.80233390307907
36.1543,79.29155208110731,78.8287398269303,79.10195597484277,79.10195597484277,79.10195597484277,79.08773190714506
36.6802,79.5545520811073,79.09207628700571,79.36595597484275,79.36595597484275,79.36595597484275,79.35139729264523
37.2137,79.77255208110732,79.309409406508,79.58295597484276,79.58235600247421,79.58195597484277,79.56834862141459
37.755,79.93855208110732,79.4757398269303,79.74895597484277,79.74855600247336,79.74737705553943,79.73433487355936
38.3041,80.0655520811073,79.60274589218197,79.87695597484277,79.87635600247422,79.87427178919275,79.86167612388603
38.8613,80.16188554779995,79.6987432186536,79.97338457446655,79.97175603931642,79.96895602331826,79.95744727380965
39.4265,80.23588089692015,79.77174589218197,80.04738457446656,80.04535609457974,80.04121926413691,80.03082989300674
40.0,80.29455208110733,79.82974589218196,80.10567028405205,80.10295620510128,80.097429845312,80.08858907684522
40.5818,80.35221433836709,79.88741279848934,80.16338457446655,80.15955637087849,80.15264053748557,80.14555833291836
41.1721,80.41254317975135,79.94708242926609,80.22409891186985,80.21975649984402,80.21085121947168,80.20539029627942
41.771,80.48154317975136,80.01541554829727,80.29309891186983,80.28775673006011,80.27685160734066,80.27346346916816
42.3785,80.55354317975137,80.08741901776426,80.36524181130832,80.35875709844825,80.34569401501244,80.34466041471494
42.9949,80.62920551408122,80.1627521109799,80.44224181130832,80.43435742997718,80.41906309130314,80.42005844712153
43.6203,80.70587207195676,80.2380887250785,80.5179562050937,80.50895804716914,80.49080068947535,80.49488311916471
44.2548,80.78820551408124,80.3197584833238,80.60152759608025,80.5909589682029,80.5701173397954,80.576671065334
44.8985,80.86653443185817,80.39709517444255,80.67924200865977,80.66715967723009,80.64296037537285,80.65316720342572
45.5515,80.95486340046226,80.48443191698694,80.76795646821596,80.75436065337266,80.72680409659657,80.74026572356686
46.2141,81.03119684325249,80.56010177735794,80.84467077745771,80.8293619888012,80.79848971490388,80.81535709906917
46.8863,81.11552583742821,80.64343859693399,80.9293852652042,80.91236295579735,80.87786019146054,80.89832269863088
47.5683,81.18785488243712,80.71444165085323,81.00152822103838,80.98236456752063,80.94402068882876,80.96866985602911
48.2602,81.25585086581772,80.78144165085322,81.07052822103839,81.04956604087168,81.00697125316509,81.03551801075298
48.9621,81.31885086581771,80.84311544384126,81.13395709322603,81.1109686379388,81.0639218288692,81.09683244753951
49.6743,81.38284257895192,80.9057855081519,81.19767166552724,81.17237110641102,81.12113653795555,81.15865492291927
50.3968,81.45650910895982,80.97945562336565,81.27238628478939,81.24517427378517,81.18893058757394,81.23119671080681
51.1299,81.52517175151347,81.04612972452558,81.34052930643766,81.31117593137668,81.24998919402536,81.29733998043459
51.8736,81.57983830679669,81.09946685228545,81.395958310208,81.36418044391802,81.29778352717487,81.35021742002887
52.6281,81.63750097492226,81.15547021003046,81.45467301400757,81.4201833909762,81.34868575563681,81.40611143249497
53.3936,81.6948264655791,81.21114461940786,81.51167301400756,81.47458814067927,81.39758829848405,81.46081196621432
54.1702,81.74382234503896,81.25881498968666,81.56181688129813,81.52199322493443,81.43933432386024,81.50804263198935
54.9581,81.79981863907295,81.31282274392787,81.61781688129811,81.57539739740885,81.48644928465632,81.5613968949852
55.7575,81.8481480409045,81.36016012848495,81.66667482285301,81.62160384155446,81.52624995465112,81.60754472506042
56.5685,81.88814804090451,81.39883065171126,81.7071040427962,81.6594093645147,81.55789372721968,81.6453011534982
57.3914,81.9314739425878,81.44083871303644,81.7511040427962,81.70041659295863,81.59238049802002,81.68631825589058
58.2261,81.98246997342626,81.48984692790297,81.80253391048484,81.74842428180506,81.63392179409841,81.73457799429794
59.073,82.04013300113193,81.54552609976145,81.86096324319539,81.80363404578829,81.68220158094341,81.78969726923232
59.9323,82.0971257114369,81.60086381825838,81.9181064435436,81.8574410407009,81.72921806363306,81.8438235991731
60.804,82.1497960802805,81.65153469814967,81.9713926323216,81.90805298165466,81.77218522126795,81.89393958993307
61.6884,82.200788867593,81.70021034085138,82.0222509214611,81.9552616528917,81.81204913516581,81.94154509226446
62.5857,82.24678180836115,81.74489030534043,82.06939555905684,81.9990727787383,81.84822879160119,81.98518324030083
63.496,82.28344509294654,81.77889944144566,82.10639555905686,82.0324834361745,81.87367475602835,82.0185884835402
64.4196,82.32443826416105,81.81823751990109,82.14839707133596,82.07089673130194,81.90428089759449,82.05694917755295
65.3566,82.36576815026584,81.85724688667251,82.1902556233545,82.1087107747184,81.93404564337786,82.09501135452466
66.3073,82.41443158882622,81.90458951267446,82.2398286547214,82.15492425093593,81.97170468261166,82.14100037291132
67.2717,82.4677615514031,81.95559918578996,82.29340065533992,82.20514217651557,82.01321232481824,82.19104410471118
68.2502,82.51875510599744,82.00460901243598,82.34497379951954,82.25235692170371,82.05219400667326,82.23871866408987
69.2429,82.58074881404923,82.0639574823602,82.4078326334221,82.31157341912625,82.10233849962786,82.29756329522026
70.2501,82.64241248352924,82.12296769322168,82.46954811622835,82.36919226003099,82.15090347089622,82.35542116748265
71.2719,82.69940642200055,82.1789780576177,82.52855015397856,82.42401035705537,82.1966269981973,82.41005638628161
72.3086,82.76240051392419,82.23898857554767,82.59140920366463,82.48283240399338,82.24614908394695,82.46905738090902
73.3603,82.81506438870495,82.28933809700047,82.64483924131748,82.5318550941384,82.28556257828096,82.51819468155094
74.4274,82.86305871102574,82.33468209776667,82.69355492103243,82.57647712533766,82.32071621533777,82.56272655685056
75.5099,82.9063891581298,82.37569315263708,82.73727213105454,82.61570345397264,82.3501386644004,82.60224535751259
76.6083,82.95071726682527,82.41738262694719,82.78284433712763,82.65672885804007,82.38130207367755,82.64318507980441
77.7226,82.98104781600931,82.44505490730886,82.8139904019137,82.68315735697279,82.3978288956505,82.66980036615098
78.8531,83.01437618128442,82.4764058131394,82.8477062878581,82.7127828072588,82.41678660451491,82.69939404140027
80.0,83.0430375347841,82.50242326429019,82.87699622049884,82.73801307856202,82.43121761487937,82.72433126521106
81.1636,83.07836828798246,82.53510219908846,82.91271223763724,82.76885088532892,82.45175894078344,82.75557502199263
82.3442,83.11502786735227,82.56878711846741,82.95085879974216,82.80188111580809,82.47424938043119,82.78861036489141
83.5419,83.15269233196206,82.60447239463346,82.98943307243438,82.83571256119255,82.497425917818,82.8226266138587
84.757,83.19468780531767,82.64282488875978,83.03114924887775,82.87235170443891,82.52323797531113,82.85979733354498
85.9899,83.23568343211663,82.68117092369113,83.07329615830541,82.90958737844846,82.54910733424181,82.89697826485909
87.2406,83.28034810184022,82.72319087048098,83.1188707038584,82.95022902983989,82.57850072726399,82.9377067675232
88.5096,83.32800875688143,82.76853726161406,83.1675870395683,82.99386986397793,82.61095400532952,82.98154441579655
89.797,83.38200875688143,82.81956428298253,83.22173429629014,83.04331387047341,82.64872836586609,83.03111950903924
91.1031,83.4410048443123,82.87557802393027,83.28188171252594,83.09836256739852,82.69198172840493,83.08611717796896
92.4282,83.49899747947151,82.92993236430264,83.34074215138386,83.15140102120446,82.73323048890312,83.13955064236522
93.7726,83.55599402720026,82.98462016781876,83.39945873985725,83.20525213807252,82.77485596810217,83.19304102470646
95.1366,83.60165918384654,83.02730142055935,83.44560649362741,83.2459016286025,82.80400043658867,83.2342359885681
96.5204,83.63498758295687,83.0576636932594,83.47975440687584,83.2747556533194,82.81989158026452,83.26311976462553
97.9243,83.65165289327804,83.0700194185173,83.49690247959389,83.28601406726634,82.8193077873911,83.27486956758935
99.3486,83.66131541654927,83.07770860023142,83.50833382380519,83.29167428578815,82.81253143053613,83.2807695362537
100.794,83.6659809062241,83.07873930571965,83.51291171316564,83.29072976475155,82.79905510830694,83.28034530269008
102.26,83.68397829813696,83.09442930315434,83.53234318895943,83.30499656909417,82.8007050158702,83.29453463686978
103.747,83.70397584346598,83.11044511578928,83.55349176828533,83.31985833131849,82.8027089900244,83.30977834086946
105.256,83.73563931354127,83.13847720153287,83.58535301364721,83.34592832133636,82.81577420799005,83.33636403022243
106.787,83.76163724249086,83.1618351061451,83.61350185548659,83.36798970369728,82.82484167482569,83.35852518636547
108.34,83.77863532485117,83.17552648131966,83.63065085674344,83.37926342665796,82.82307067588718,83.37046131717496
109.916,83.79463356062226,83.18822699400518,83.64751240214353,83.39033864871679,82.820773721623,83.38180505904522
111.515,83.80096433718658,83.19091916093649,83.65494715994852,83.39182020389508,82.80874635250485,83.38348131511836
113.137,83.80563049239726,83.19195385728894,83.6605234082093,83.39070750157137,82.7942419273107,83.38313517757769
114.783,83.81029547157044,83.19298916759382,83.6656729343639,83.38998451971504,82.77963111759927,83.38276852557748
116.452,83.82729439773246,83.20668260889134,83.68482261989153,83.40247207739107,82.7782473302105,83.39549561620463
118.146,83.85695996514103,83.23304328419552,83.71511689002105,83.42636566397921,82.78821770812601,83.42009511807889
119.865,83.91795927484297,83.29041324855594,83.77712246903096,83.48185740945293,82.82966793284014,83.47613683247971
121.608,83.98329255750328,83.3514507047613,83.84327263262529,83.54116866159382,82.87516608154785,83.53620352186768
123.377,84.06062512361942,83.42546966306598,83.92185290014993,83.61326955862077,82.93263750968704,83.60871590384743
125.171,84.1206249702257,83.4818511682515,83.98242995778502,83.66717226379707,82.97198414253462,83.66339647129335
126.992,84.17562497022571,83.53289031408288,84.03915406074027,83.71688186634523,83.00711898170215,83.71356666288052
128.839,84.20995927558523,83.5629300737859,84.07401676791015,83.7447891194453,83.02058123762828,83.74236319405625
130.713,84.24495973573094,83.59430357497249,84.110167690124,83.77390390616934,83.03439713557653,83.77215676404533
132.615,84.2659603492585,83.61134455924957,84.13275166674906,83.78943135608434,83.03481200698324,83.78817699655632
134.543,84.28662849884569,83.62738615732555,84.15361472065459,83.80296169025287,83.03347782469835,83.80287822143445
136.5,84.28962949578941,83.62677245305235,84.1579109140151,83.80009961275503,83.01487539930832,83.80068089797994
138.486,84.29696587135807,83.62979386669736,84.16706252987252,83.80122570709504,83.00059764503112,83.80274023678662
140.5,84.29996732831701,83.62885902832458,84.171214304979,83.79816892262794,82.98189722336828,83.8004227176989
142.544,84.30630283428509,83.63090323664139,84.17879649027755,83.79832817229443,82.9657826028491,83.80125885137649
144.617,84.3133046747242,83.63394805873287,84.18723711706254,83.7988732289895,82.95018276944178,83.80280148901902
146.721,84.35064076891443,83.66633840614811,84.2248197598483,83.82844488200278,82.96365469060005,83.83377450670866
148.855,84.39031326244516,83.70139591969992,84.26611725640355,83.86120258104927,82.98010726943865,83.86774047187826
151.02,84.41398412034303,83.7201097693903,84.29083957783007,83.8781626158948,82.9797269519584,83.88543481125056
153.217,84.40032131342585,83.70183589502057,84.27842280028352,83.8577579005531,82.94261434702484,83.8660125626672
155.445,84.34365886468932,83.64088424427386,84.2230062748452,83.7935513188064,82.86101528263245,83.80326912934794
157.706,84.25799608133212,83.5502910473903,84.13944829616717,83.70114827473418,82.75127620177422,83.71190767805497
160.0,84.19800298189527,83.485007802254,84.08017741796101,83.6327499912184,82.66509856045425,83.64518968559942
162.327,84.18934454207864,83.47141689695523,84.07361998199404,83.61714208859543,82.63124542322414,83.63064748042406
164.688,84.23834953013747,83.5158146964726,84.12349344778774,83.65836578829192,82.65396708155359,83.67323878821126
167.084,84.29735696211242,83.56889320048138,84.18379280929473,83.70878617877106,82.68611273485915,83.72543949767987
169.514,84.3376966608353,83.60427943294732,84.22566690084743,83.74163368608392,82.69942770306129,83.75942777196907
171.98,84.35170976387023,83.61202710841927,84.24096677786191,83.74667886416945,82.6849951433367,83.76628643141908
174.481,84.34305035713139,83.5981092938735,84.23384149502014,83.72953681123862,82.64784471317633,83.75083466072817
177.019,84.32205954775019,83.57119285979861,84.21414188748791,83.70020761338395,82.59759320491445,83.72280116434645
179.594,84.30940080531438,83.55327780615475,84.20345222110025,83.6790924105777,82.55565169909391,83.70337816502828
182.206,84.29608254413638,83.53303037890389,84.1913280305488,83.6555993416714,82.5107861836485,83.68213512764925
184.856,84.27675889068551,83.50813313043426,84.17434984728648,83.62770410563367,82.46094650642604,83.65591092155043
187.545,84.25810598660308,83.48354092740108,84.15750574767694,83.60003349090535,82.41077458859898,83.62995210658137
190.273,84.23712645092125,83.45531313869098,84.1383825363584,83.56876101316601,82.3563962577605,83.60091650988228
193.041,84.228140860225,83.43973830735814,84.13141620494297,83.54952052998792,82.31368251454789,83.58402873781651
195.849,84.22515588266519,83.42986321047765,84.13000402510777,83.53651491720152,82.2754261069018,83.57283104883247
198.697,84.22850578291032,83.42630796866946,84.1355967326092,83.5296989610572,82.24282630869291,83.56802311149409
201.587,84.24119333878608,83.4307546265258,84.14976700815978,83.53091144221683,82.21752992775147,83.57159893224689
204.52,84.26888186376341,83.45153621726764,84.17993592561587,83.54755306469416,82.20748665731774,83.59082280650561
207.494,84.29057135772509,83.46567001802768,84.20368279018852,83.55800104408104,82.18964354503852,83.60356545218282
210.512,84.2895994041085,83.45649000061466,84.20472076713365,83.54449148264833,82.14741820241815,83.59304834889325
213.574,84.26929101517489,83.42762900840872,84.1858935282305,83.51135020683923,82.08411014901428,83.56274475564068
216.681,84.22565599604529,83.37577046880337,84.14493320176447,83.4557047142907,81.99656751185437,83.50953746217286
219.833,84.19034974741993,83.33191438167886,84.11225154699935,83.40725897759673,81.91573881072257,83.46418663384445
223.03,84.19004446715472,83.3220977213884,84.11400220271847,83.39325812161736,81.86746366569639,83.45312342650894
226.274,84.23075179990768,83.35359950817225,84.15748191684217,83.42006180796866,81.85980602911592,83.48326399262001
229.565,84.26778765346636,83.38112312303227,84.1975115070291,83.44412404869908,81.84624849503736,83.50966619134454
232.905,84.28649847982015,83.38931756614825,84.21870229853272,83.4472117916904,81.81130432747561,83.51655907391735
236.292,84.3118718638108,83.40451583995375,84.24689422773999,83.4577405631553,81.78090617562441,83.53020466362418
