Freq "Rear Wall Bounce"
20.0 53.45795597484276
20.2909 53.61495597484277
20.586 53.84095597484277
20.8855 54.12495597484276
21.1893 54.41395597484275
21.4975 54.72495597484276
21.8102 55.073955974842775
22.1274 55.438955974842756
22.4492 55.89595597484278
22.7758 56.40595597484277
23.1071 56.99595597484277
23.4432 57.682955974842756
23.7841 58.46795597484278
24.1301 59.31495597484276
24.4811 60.23895597484277
24.8372 61.22095597484277
25.1984 62.25295597484276
25.5649 63.26695597484276
25.9368 64.31195597484276
26.3141 65.30695597484277
26.6968 66.26795597484276
27.0851 67.10795597484277
27.4791 67.80695597484277
27.8788 68.38195597484277
28.2843 68.84995597484277
28.6957 69.24095597484276
29.1131 69.69895597484276
29.5365 70.27195597484278
29.9661 71.01095597484277
30.402 71.85195597484277
30.8442 72.77195597484278
31.2929 73.68395597484276
31.748 74.51295597484277
32.2098 75.34695597484277
32.6783 76.10395597484275
33.1536 76.76095597484277
33.6359 77.33795597484277
34.1251 77.79095597484276
34.6215 78.16995597484278
35.125 78.49995597484276
35.6359 78.81695597484277
36.1543 79.10195597484277
36.6802 79.36595597484275
37.2137 79.58195597484277
37.755 79.74737705553943
38.3041 79.87427178919275
38.8613 79.96895602331826
39.4265 80.04121926413691
40.0 80.097429845312
40.5818 80.15264053748557
41.1721 80.21085121947168
41.771 80.27685160734066
42.3785 80.34569401501244
42.9949 80.41906309130314
43.6203 80.49080068947535
44.2548 80.5701173397954
44.8985 80.64296037537285
45.5515 80.72680409659657
46.2141 80.79848971490388
46.8863 80.87786019146054
47.5683 80.94402068882876
48.2602 81.00697125316509
48.9621 81.0639218288692
49.6743 81.12113653795555
50.3968 81.18893058757394
51.1299 81.24998919402536
51.8736 81.29778352717487
52.6281 81.34868575563681
53.3936 81.39758829848405
54.1702 81.43933432386024
54.9581 81.48644928465632
55.7575 81.52624995465112
56.5685 81.55789372721968
57.3914 81.59238049802002
58.2261 81.63392179409841
59.073 81.68220158094341
59.9323 81.72921806363306
60.804 81.77218522126795
61.6884 81.81204913516581
62.5857 81.84822879160119
63.496 81.87367475602835
64.4196 81.90428089759449
65.3566 81.93404564337786
66.3073 81.97170468261166
67.2717 82.01321232481824
68.2502 82.05219400667326
69.2429 82.10233849962786
70.2501 82.15090347089622
71.2719 82.1966269981973
72.3086 82.24614908394695
73.3603 82.28556257828096
74.4274 82.32071621533777
75.5099 82.3501386644004
76.6083 82.38130207367755
77.7226 82.3978288956505
78.8531 82.41678660451491
80.0 82.43121761487937
81.1636 82.45175894078344
82.3442 82.47424938043119
83.5419 82.497425917818
84.757 82.52323797531113
85.9899 82.54910733424181
87.2406 82.57850072726399
88.5096 82.61095400532952
89.797 82.64872836586609
91.1031 82.69198172840493
92.4282 82.73323048890312
93.7726 82.77485596810217
95.1366 82.80400043658867
96.5204 82.81989158026452
97.9243 82.8193077873911
99.3486 82.81253143053613
100.794 82.79905510830694
102.26 82.8007050158702
103.747 82.8027089900244
105.256 82.81577420799005
106.787 82.82484167482569
108.34 82.82307067588718
109.916 82.820773721623
111.515 82.80874635250485
113.137 82.7942419273107
114.783 82.77963111759927
116.452 82.7782473302105
118.146 82.78821770812601
119.865 82.82966793284014
121.608 82.87516608154785
123.377 82.93263750968704
125.171 82.97198414253462
126.992 83.00711898170215
128.839 83.02058123762828
130.713 83.03439713557653
132.615 83.03481200698324
134.543 83.03347782469835
136.5 83.01487539930832
138.486 83.00059764503112
140.5 82.98189722336828
142.544 82.9657826028491
144.617 82.95018276944178
146.721 82.96365469060005
148.855 82.98010726943865
151.02 82.9797269519584
153.217 82.94261434702484
155.445 82.86101528263245
157.706 82.75127620177422
160.0 82.66509856045425
162.327 82.63124542322414
164.688 82.65396708155359
167.084 82.68611273485915
169.514 82.69942770306129
171.98 82.6849951433367
174.481 82.64784471317633
177.019 82.59759320491445
179.594 82.55565169909391
182.206 82.5107861836485
184.856 82.46094650642604
187.545 82.41077458859898
190.273 82.3563962577605
193.041 82.31368251454789
195.849 82.2754261069018
198.697 82.24282630869291
201.587 82.21752992775147
204.52 82.20748665731774
207.494 82.18964354503852
210.512 82.14741820241815
213.574 82.08411014901428
216.681 81.99656751185437
219.833 81.91573881072257
223.03 81.86746366569639
226.274 81.85980602911592
229.565 81.84624849503736
232.905 81.81130432747561
236.292 81.78090617562441
239.729 81.68912439503781
243.216 81.55445000606422
246.754 81.44860911672617
250.343 81.33390099864742
253.984 81.25211127252956
257.678 81.22079149237219
261.426 81.18352951976398
265.229 81.15949170781343
269.087 81.15377870991638
273.001 81.16112059388955
276.972 81.15510618245709
281.0 81.12606166589343
285.088 81.0858510632751
289.234 81.00983821351922
293.441 80.86437629267242
297.709 80.68625724651504
302.04 80.48373660198162
306.433 80.3391086352111
310.89 80.25810133124745
315.412 80.20431857466973
320.0 80.1337117309544
324.655 80.05101269381157
329.377 79.95330756107113
334.168 79.84823873598516
339.028 79.73230177234332
343.959 79.5865967884852
348.962 79.3814399066625
354.038 79.17231263348059
359.188 79.11925993328764
364.412 79.15401638771957
369.713 79.21878961061134
375.09 79.21456745384587
380.546 79.14298040156314
386.081 79.05817399223643
391.697 79.03932415391328
397.394 79.00121727550264
403.175 78.92464307127825
409.039 78.78135079916242
414.989 78.57719881098056
421.025 78.39069133966805
427.149 78.36249755092376
433.362 78.43457779434189
439.665 78.51996245651354
446.06 78.57285573116972
452.548 78.58131179584811
459.131 78.5548238810501
465.809 78.49387670228806
472.584 78.4483898252257
479.458 78.40776218097945
486.432 78.3102421875919
493.507 78.24207151991288
500.686 78.15780126958552
507.968 78.07383301327853
515.357 78.02066466622965
522.853 77.95254013745485
530.458 77.88465473219507
538.174 77.81662440855688
546.002 77.73593792279776
553.943 77.66643013614429
562.001 77.57723542831029
570.175 77.51675141374231
578.469 77.4576207820929
586.883 77.40734882014273
595.419 77.36210515928589
604.08 77.32502179348207
612.866 77.29204004324178
621.78 77.267657983819
630.824 77.25473773167364
640.0 77.23852782156628
649.309 77.23380123706292
658.753 77.2184435655843
668.335 77.19510211208629
678.056 77.16888841547309
687.919 77.13176011373757
697.925 77.10094648626436
708.077 77.04253980432898
718.376 76.97615414863458
728.825 76.88945205252253
739.426 76.78885786496724
750.181 76.66640980915615
761.093 76.52793601561378
772.163 76.36486038781038
783.394 76.18586925802315
794.789 75.99428169526054
806.349 75.77523409399447
818.078 75.53624700073227
829.977 75.28526055375691
842.05 75.03051538990863
854.298 74.76109670752756
866.724 74.49625762150372
879.33 74.22683851630764
892.12 73.97453272139579
905.097 73.72986061692079
918.262 73.52622782192711
931.618 73.32720098657232
945.169 73.16473645043355
958.917 73.01971343630754
972.864 72.90880486109859
987.015 72.79493954985573
1001.37 72.70970122850851
1015.94 72.6329254718123
1030.71 72.5906071002367
1045.71 72.57392382565763
1060.92 72.58067998365314
1076.35 72.56770466647087
1092.0 72.56861609047833
1107.89 72.59160841378473
1124.0 72.61663167818607
1140.35 72.64714539213864
1156.94 72.6824979604494
1173.77 72.68765249144577
1190.84 72.69773537100576
1208.16 72.70924782140115
1225.73 72.72357460594009
1243.56 72.75330192137204
1261.65 72.7700960880711
1280.0 72.78956632398399
1298.62 72.78521511456421
1317.51 72.74908506890468
1336.67 72.69982033160677
1356.11 72.6287056974703
1375.84 72.54829365232598
1395.85 72.46715168343758
1416.15 72.37264327859627
1436.75 72.276944467922
1457.65 72.1884388009783
1478.85 72.10287897372277
1500.36 72.0278642337224
1522.19 71.96396515935079
1544.33 71.9053929341712
1566.79 71.85131239619395
1589.58 71.78745686950931
1612.7 71.73006120032112
1636.16 71.67011332333969
1659.95 71.61148749659976
1684.1 71.5315946888124
1708.6 71.45977808169863
1733.45 71.38642360471937
1758.66 71.33237427254393
1784.24 71.27440610656087
1810.19 71.22851487086065
1836.52 71.17746038158948
1863.24 71.12753262551901
1890.34 71.07117879788123
1917.83 71.01513599553707
1945.73 70.9388004419516
1974.03 70.83604789152648
2002.74 70.70830236103608
2031.87 70.56980855674034
2061.43 70.42400320334308
2091.41 70.27652927460592
2121.83 70.13718964242877
2152.69 70.01911662601808
2184.01 69.91907822060506
2215.77 69.83500820005524
2248.0 69.74329869238584
2280.7 69.63999780712659
2313.87 69.51522144485958
2347.53 69.3746129760274
2381.68 69.21863386224159
2416.32 69.05685502496756
2451.46 68.89364318749233
2487.12 68.74872023616105
2523.3 68.62811189085865
2560.0 68.53214048931757
2597.24 68.44603073019996
2635.01 68.3574720413183
2673.34 68.2394685153387
2712.23 68.10647942846305
2751.68 67.95954582575513
2791.7 67.80506746654821
2832.31 67.64517747178697
2873.5 67.47169075251823
2915.3 67.28595022444851
2957.7 67.09567729119756
3000.72 66.9115622678756
3044.37 66.7435301965089
3088.65 66.61566010303682
3133.58 66.53398114073755
3179.16 66.4849498644857
3225.4 66.43745194518532
3272.31 66.3397666662614
3319.91 66.17126264675443
3368.2 65.96483821616638
3417.19 65.77363836248888
3466.89 65.62938503531336
3517.32 65.50923792603736
3568.48 65.39597583218034
3620.39 65.27325299268621
3673.05 65.17657291289474
3726.47 65.1792296560372
3780.67 65.30027448374088
3835.67 65.47382272078744
3891.46 65.58355968278214
3948.06 65.56891505524442
4005.49 65.51584294042941
4063.75 65.57836546364484
4122.86 65.79089215980369
4182.82 66.01487905041786
4243.66 66.0601636239204
4305.39 65.844813546549
4368.01 65.4809283652262
4431.55 65.14017206145907
4496.01 64.92310080937347
4561.4 64.79792607960415
4627.75 64.71499904610491
4695.06 64.67833700713659
4763.35 64.70289899065253
4832.64 64.73227618157959
4902.93 64.74442848888701
4974.24 64.77624897249147
5046.6 64.81980175262593
5120.0 64.81551347733792
5194.47 64.70404266675489
5270.03 64.53755066343447
5346.68 64.41545105107652
5424.45 64.3833346365463
5503.35 64.37033555012357
5583.4 64.313539915177
5664.61 64.24562868852887
5747.01 64.16657047648043
5830.6 64.00411058763613
5915.41 63.72161470149274
6001.45 63.39701891213757
6088.74 63.196709802604545
6177.3 63.18706477074001
6267.15 63.1869833893187
6358.31 63.08158655624591
6450.8 62.96773203849763
6544.62 62.97518711010666
6639.82 63.10926701708425
6736.4 63.23664404369673
6834.38 63.273763824748414
6933.79 63.23626150792117
7034.64 63.07246490501244
7136.96 62.75059191091533
7240.77 62.40908082999265
7346.09 62.11792785405014
7452.94 61.806827721649285
7561.35 61.738465167622095
7671.33 62.076805702824075
7782.91 62.42489816756185
7896.12 62.59893647561199
8010.97 62.62381612899112
8127.49 62.473912623440825
8245.71 62.407014085933326
8365.65 62.40366509335858
8487.33 62.0258565327823
8610.78 61.35838456332995
8736.03 60.781452590478
8863.09 60.74789127227352
8992.01 61.270117549466406
9122.8 61.693715280238294
9255.5 61.78882423845583
9390.12 61.56296819933
9526.7 61.136775532116204
9665.27 60.71725050053335
9805.86 60.643988388196945
9948.49 60.98998560736304
10093.2 61.399892271182964
10240.0 61.49575824933494
10388.9 61.67258848001951
10540.1 61.671280310467765
10693.4 61.12626771738972
10848.9 60.206352693080774
11006.7 59.391969976172774
11166.8 59.35508768840704
11329.2 59.35819279866202
11494.0 59.68751995050319
11661.2 59.652428819505374
11830.8 59.02562018494375
12002.9 57.744797888032124
12177.5 57.05796086969765
12354.6 56.91084561187934
12534.3 57.093021634169006
12716.6 57.067248563499405
12901.6 56.440006035685386
13089.2 55.66092145701971
13279.6 55.166219235744975
13472.8 54.91892725035488
13668.8 55.2119546789249
13867.6 55.595499537645125
14069.3 55.18201369326671
14273.9 54.22684598656694
14481.5 53.14422740711031
14692.2 52.6083291474974
14905.9 52.72427325915358
15122.7 52.639803734986444
15342.7 52.20420563026907
15565.8 51.33965572190728
15792.2 51.14631504177153
16021.9 52.161695900601856
16255.0 52.67864316813184
16491.4 52.31632574262288
16731.3 51.80628923107339
16974.7 52.14488798680425
17221.6 52.711974626040174
17472.1 53.219696282198996
17726.2 53.067307764594815
17984.0 53.04733604903417
18245.6 53.94310639170352
18511.0 54.88871960238744
18780.2 55.18072719923477
19053.4 55.26392232111799
19330.5 55.81552557965209
19611.7 56.06914406964363
19897.0 56.636817059381386
