Freq,Floor Bounce,Ceiling Bounce,Front Wall Bounce,Side Wall Bounce,Rear Wall Bounce,Total Early Reflection
20.0,68.19286884527341,67.3526978730362,68.15357923087446,67.71248352234811,67.40823861091108,67.77860098043249
20.2909,68.46315290259092,67.63316009488533,68.42550176596654,67.97815174612892,67.66719933822148,68.04810435501801
20.586,68.85526092378515,68.03762176452332,68.81319644091397,68.34559020153736,68.0532423561469,68.43554465869026
20.8855,69.19677964698955,68.36137413188366,69.17257872386037,68.64381547975775,68.37194695842751,68.76511028161269
21.1893,69.50887621426651,68.70378570260598,69.46157872386037,68.96629908092457,68.6482790816508,69.07320452023711
21.4975,69.75880347979061,68.95883070532338,69.70757872386038,69.21798457579573,68.90168530705569,69.32418810857062
21.8102,70.00060382123101,69.24083070532338,69.96427788778483,69.46537027880883,69.15864180936858,69.58049592016724
22.1274,70.20494296747462,69.47581546153876,70.17900200021376,69.6705726119463,69.35851422958343,69.7921464860568
22.4492,70.40993142626554,69.67116646627923,70.38192779551247,69.862186989295,69.53814341691573,69.98771026091936
22.7758,70.65998319399161,69.90729213426704,70.63679874550984,70.09270482737938,69.77193740668741,70.22951163131218
23.1071,70.83886658566422,70.1114004126257,70.83482363783276,70.27258306905513,69.95139622490743,70.41759350680547
23.4432,71.05603038539563,70.33331827573488,71.02582363783277,70.49873364471503,70.14355467057347,70.62715513156346
23.7841,71.30603038539564,70.58331827573488,71.27582363783276,70.74873364471505,70.40557421188642,70.87930816762287
24.1301,71.58303038539565,70.88826086297226,71.57795465179632,71.02573364471503,70.66338993432883,71.16362905676388
24.4811,71.79639217193414,71.07939028092893,71.76877020084189,71.22881967426227,70.8669709996389,71.36413149443038
24.8372,72.1605544100204,71.46807210937502,72.13928417380416,71.59129892002339,71.2251924927528,71.73290728085985
25.1984,72.41355189826969,71.72632020638748,72.39178076560148,71.8182989200234,71.44153233272604,71.97525747827905
25.5649,72.6167864829322,71.87744436012584,72.57032508034658,72.00577279503807,71.60801475756078,72.15371140645686
25.9368,72.84548269956932,72.09395756993506,72.79332508034659,72.25014743119621,71.84206129613717,72.3828516945261
26.3141,72.99648269956931,72.24495756993504,72.94432508034657,72.4051226092861,71.97035991477453,72.53062371968402
26.6968,73.08670258834422,72.39795756993506,73.0973250803466,72.5581226092861,72.12389338615502,72.66981835854871
27.0851,73.26875134970035,72.58695756993502,73.28632508034657,72.76454043429183,72.28911883611919,72.85650880134264
27.4791,73.4969722209527,72.84602436465987,73.48388516253145,72.97047848811052,72.51954109492343,73.0798336692033
27.8788,73.78350819230964,73.10302436465987,73.72642963062017,73.22370465369947,72.74729314593802,73.33433013217775
28.2843,73.93657815154276,73.26502436465987,73.88842963062017,73.37608018585846,72.89385745965355,73.4897801717191
28.6957,74.07250376192056,73.40469148995132,74.05242963062015,73.50981259337127,73.04923211948508,73.63555156553986
29.1131,74.33950376192055,73.62859480713536,74.31942963062018,73.77681259337128,73.27452270828651,73.88713803372538
29.5365,74.52350376192055,73.85704160065313,74.55975001084036,74.02681259337128,73.49537658995672,74.11128995630588
29.9661,74.78150376192055,74.13802436465988,74.82349290855652,74.26487703854536,73.75163437053865,74.37070711042828
30.402,74.98003446021072,74.30559480713535,74.99642963062016,74.48887459313741,73.93348454705894,74.55981286900789
30.8442,75.21094815249438,74.54359480713535,75.23118913489846,74.72177438426283,74.16174509807253,74.79284635382142
31.2929,75.44366172666278,74.8025320686528,75.48112951287114,74.95915719819222,74.39176253724004,75.03478916607897
31.748,75.68881506733568,75.0032071296723,75.69114057963994,75.18832517965365,74.6153772967294,75.25689248767164
32.2098,75.9578150673357,75.34659480713535,76.02353640679377,75.5246794557988,74.91771553904763,75.57304250524152
32.6783,76.1762049957766,75.51167295597486,76.21628360214285,75.69194518595526,75.10717595659222,75.76058067591535
33.1536,76.38133921358734,75.74274766247905,76.43487479982986,75.94162759416105,75.31821323004161,75.9834177877134
33.6359,76.51381309371376,75.87601284156214,76.56593229500538,76.06383484444443,75.45415695064342,76.11429124824085
34.1251,76.80982786005195,76.17151128873856,76.88316682435837,76.36812362146875,75.72994618352841,76.41309859056754
34.6215,77.03977480189813,76.40174745634391,77.12415665313901,76.60843150907907,75.96208819025595,76.64799010619217
35.125,77.23985311444714,76.57267502782402,77.31236025614098,76.79112350415657,76.13216972154902,76.83135536612315
35.6359,77.44068783854962,76.82720712967232,77.53344323097747,77.05029833600838,76.37836279478924,77.06617416736613
36.1543,77.64868783854962,77.03621023476443,77.74230181590774,77.24417811631653,76.56800611829907,77.26861560342167
36.6802,77.90134991428614,77.26665793680603,78.0083445778915,77.50604907580501,76.81211269380582,77.5204447608207
37.2137,78.15099798218851,77.51585314860031,78.22130550443026,77.74865763193621,77.03461942742847,77.75580961988047
37.755,78.36057485137403,77.75557298364478,78.49033570989376,77.99381123374337,77.27195748741599,77.99617902592125
38.3041,78.5789189375722,77.94384031128558,78.67116538083948,78.18501897294432,77.46492829549933,78.19072560154105
38.8613,78.7004437579705,78.09898906929564,78.83333570989376,78.34111480699997,77.59771080327837,78.33652309414721
39.4265,78.9340750555297,78.31113866680008,79.05933570989376,78.56613368411854,77.82039099393407,78.56080912455786
40.0,79.18512379402918,78.53278866342464,79.28833570989376,78.78629649516505,78.06229471151306,78.79365011305997
40.5818,79.36258625132703,78.76244979542106,79.52133570989378,79.01528104667271,78.24347746406863,79.00438005004716
41.1721,79.55412379402918,78.90115294761803,79.65733570989376,79.17448503999535,78.41031524394225,79.16283303626926
41.771,79.68904860773375,79.08636816902779,79.7946503167141,79.35069508535291,78.5634186913217,79.31914823814333
42.3785,79.79290606410407,79.1594606771732,79.93176461580182,79.45108454898609,78.63110146836581,79.41788833807331
42.9949,79.95102436465989,79.35180354775468,80.08833570989376,79.60548503999533,78.81704708836686,79.5860309975962
43.6203,80.14374999799398,79.5733681690278,80.28524710110587,79.83670104499595,79.02152227701023,79.79488828109594
44.2548,80.34244553116245,79.6863681690278,80.46246371017213,79.98619274074315,79.15566306111788,79.9518544975948
44.8985,80.55102436465987,79.93861836040644,80.68833570989376,80.19502928431619,79.38255422435796,80.17566962215213
45.5515,80.77202436465987,80.17280354775468,80.90933570989375,80.42332203221481,79.60355422435796,80.40063485995181
46.2141,80.93702436465988,80.33780354775467,81.07433570989376,80.6122887362403,79.80604393207106,80.57672018987628
46.8863,81.15102436465988,80.55180354775467,81.28833570989376,80.8428177920711,80.01005463811693,80.79238813488928
47.5683,81.35102436465989,80.75180354775468,81.51411812094173,81.06057840461807,80.20375779430483,81.00072754954162
48.2602,81.55102436465987,80.9518035477547,81.71733081666912,81.26057840461809,80.42200372122046,81.20449311936113
48.9621,81.65102436465989,81.05180354775469,81.81733081666911,81.36057840461808,80.50977547482321,81.30245309212596
49.6743,81.82102436465988,81.22180354775469,81.96843009995867,81.53057840461807,80.65908330277696,81.4647597769488
50.3968,81.97644045043047,81.41080354775468,82.14733570989375,81.71957840461808,80.8162021800883,81.63892990020649
51.1299,82.16944045043047,81.5709929018726,82.34033570989376,81.88012233301363,80.99777637404688,81.81722562390661
51.8736,82.36644045043047,81.7679929018726,82.51916628232256,82.04858943159782,81.17303941173552,82.0007525669929
52.6281,82.56844045043046,81.94700449638034,82.71146371017215,82.25058943159783,81.34845454869367,82.19182757900303
53.3936,82.80396433307808,82.26668783854961,83.000193171222,82.52411352491832,81.62320240110076,82.46950486758732
54.1702,83.08544045043047,82.4869929018726,83.25633570989376,82.76916033633334,81.89973876221343,82.7254435325833
54.9581,83.26496393069402,82.66968783854962,83.44143881657087,82.96223000624852,82.04246119558097,82.90351003283612
55.7575,83.52044045043047,82.9219929018726,83.69133570989376,83.21720932216854,82.32548528536175,83.16155492702653
56.5685,83.71136816902779,83.13074680025672,83.88746371017214,83.40623000624852,82.48894176099111,83.35213510346462
57.3914,83.98357955704844,83.38578139899367,84.1534065892835,83.65269175864326,82.76976946382155,83.61587791838036
58.2261,84.18436816902778,83.58668783854961,84.36046371017216,83.85877468760178,82.93814365886988,83.81386099092727
59.073,84.41336816902779,83.83792445015362,84.58946371017214,84.10823000624852,83.19905493092062,84.05645053319644
59.9323,84.6067142548504,84.03088427680126,84.7797351468769,84.31192698861132,83.39074867400728,84.25085434749099
60.804,84.87094012991903,84.27472467303656,85.03704529384785,84.55906249869594,83.62562729216333,84.50137260257704
61.6884,85.01395670041568,84.43474445533423,85.17294883621076,84.68369147479216,83.75212666275279,84.6395986794754
62.5857,85.1569576790566,84.5898957099492,85.36046371017216,84.84272036615428,83.91341387157745,84.80123069591426
63.496,85.40800549874736,84.84333401240747,85.58057469278569,85.07569147479215,84.15830501442385,85.04106145998378
64.4196,85.52428796018508,84.99013472865155,85.72846371017215,85.20840320431687,84.28032664312815,85.17460143743045
65.3566,85.7576154152309,85.17809569538734,85.90346371017213,85.40944285121327,84.48078552718255,85.37416960388468
66.3073,85.9712791091912,85.37501698972096,86.10965031671411,85.61852499155745,84.6958397361228,85.58225055362635
67.2717,86.10556110217331,85.55218870584395,86.26051391885885,85.75475601053833,84.81355429045144,85.7261888073194
68.2502,86.29252556126286,85.74107480726958,86.44978694608817,85.94341691100551,84.99795838845891,85.91397150413991
69.2429,86.48628350601788,85.92178542748672,86.60744525742518,86.0835780900083,85.16637751340276,86.08219849296606
70.2501,86.70059480713536,86.16512849464446,86.86046371017216,86.32910773861425,85.39020723987394,86.31865509232652
71.2719,86.94559480713535,86.36090446415517,87.06046371017214,86.55600624081438,85.61099963415813,86.53645744942074
72.3086,87.1135320686528,86.53474445533423,87.21346644226401,86.70548521826223,85.77482030638231,86.69779466038361
73.3603,87.35159480713534,86.76497069974059,87.46046371017215,86.92553195013932,85.98873389544578,86.92886144733966
74.4274,87.55959480713534,87.00338052862455,87.66046371017215,87.14468715801164,86.19917558307397,87.14355248586564
75.5099,87.59398583802664,87.02963061944695,87.69527978575665,87.17072332041865,86.23494823658126,87.17501584262521
76.6083,87.78998583802665,87.23181615934493,87.93822520227505,87.36304276873098,86.42885577528928,87.38176912627131
77.7226,87.89133368339235,87.33451811558963,88.01706141301727,87.46383803627211,86.5281156524735,87.47782559536155
78.8531,87.99436934576636,87.44060046896398,88.1023706788742,87.55927325418277,86.62061903271767,87.57423565332552
80.0,88.1537615547085,87.58974445533423,88.23505795432777,87.68089361156687,86.76410830492773,87.71554732418409
81.1636,88.29252556126285,87.71899290187261,88.36046371017216,87.77926173338436,86.87709172342363,87.83731762262595
82.3442,88.35026278285483,87.81411501080659,88.46046371017215,87.87623994760281,86.9447514020571,87.92123607165169
83.5419,88.45026278285482,87.8908590498867,88.53658985579426,87.92501197825244,87.01886306196783,87.99704872295618
84.757,88.56929803736669,88.04268783854963,88.63562128111712,88.04459339506789,87.13235706863304,88.11721202656952
85.9899,88.68436816902779,88.1189929018726,88.76046371017215,88.15175538321945,87.23352175228183,88.22312278779097
87.2406,88.75806122986387,88.2189929018726,88.81076510115284,88.20057816251241,87.2827256443673,88.28791093768989
88.5096,88.8883681690278,88.35580354775468,88.96446371017214,88.31789120479482,87.44633261268112,88.42754118547411
89.797,89.0518035477547,88.51899290187261,89.10416225489527,88.46463888556242,87.5612084257517,88.57458699377848
91.1031,89.16736816902778,88.63480354775469,89.21605224012484,88.58357816251241,87.67333400503958,88.68948412365155
92.4282,89.35180354775468,88.78668783854962,89.36046371017216,88.70057816251241,87.8176648945556,88.83900079555274
93.7726,89.35180354775468,88.8189929018726,89.40416225489527,88.70057816251241,87.83983079051758,88.85878068004217
95.1366,89.41880354775468,88.91880354775469,89.47116225489528,88.76757816251241,87.90683079051759,88.93230268945587
96.5204,89.52546655721396,88.97180354775469,89.52416225489527,88.82057816251242,87.95375934473766,88.99640952040436
97.9243,89.61974252701737,89.0518035477547,89.60416225489527,88.88158495192546,88.02922604295858,89.07528703790149
99.3486,89.51974252701737,88.95180354775468,89.50416225489526,88.78158495192544,87.92922604295859,88.9752870379015
100.794,89.50274252701738,88.93480354775468,89.48716225489527,88.7408604081077,87.8755833870229,88.94801372528596
102.26,89.47900939993372,88.95180354775468,89.43305224012482,88.71873861680601,87.85346685915965,88.92614581145818
103.747,89.45488425486229,88.9189929018726,89.40416225489527,88.65644972368804,87.8263614213605,88.89148151224438
105.256,89.45488425486229,88.85180354775468,89.40416225489527,88.6070892971477,87.76740086270854,88.85948057492547
106.787,89.56814158607614,89.0518035477547,89.51566150349112,88.72363178948635,87.90722066010125,88.99454073148087
108.34,89.61255372903473,89.04097993870307,89.55305908700318,88.75273204388206,87.90916993484963,89.01674127672638
109.916,89.62357796632944,89.0518035477547,89.50416225489526,88.70473935235016,87.89553910827271,88.99932363012556
111.515,89.68057796632945,89.10880354775469,89.56116225489528,88.72160900189118,87.91221380716547,89.04261075974493
113.137,89.62357796632944,89.0518035477547,89.50764177299943,88.65050975603609,87.8667280174848,88.98555800035645
114.783,89.6296308230765,89.03780354775468,89.5227162371905,88.62415900260896,87.83808545743652,88.97824540470063
116.452,89.5595032606946,88.95212669430916,89.40474203434104,88.52692760310056,87.72467122404032,88.88250125755141
118.146,89.45950326069458,88.85180354775468,89.31533883818122,88.3632965003082,87.59162690130876,88.76812154641945
119.865,89.37894473913103,88.80180354775469,89.2270260742068,88.25269985378313,87.47984954166304,88.68185526102515
121.608,89.39506795176149,88.75307216785268,89.23139356336513,88.25523956472513,87.47250466981403,88.67601949041301
123.377,89.26312497936732,88.65180354775468,89.08267030608931,88.07357564865275,87.32407114027478,88.53505787737541
125.171,89.22294473913104,88.59181476064072,89.03633831495549,87.98173877142432,87.2610511030272,88.47670244253396
126.992,89.19596028204916,88.55180354775469,88.9838249170251,87.90773238949943,87.18392799854404,88.42530522574243
128.839,89.18946996637641,88.53862789490084,89.00038166107974,87.9033021177784,87.17448378564632,88.42261571503752
130.713,89.07976344866864,88.37080354775469,88.89109260271255,87.731694877618,86.98553370635523,88.27831937398338
132.615,89.1191754741331,88.43380354775468,88.89787722966071,87.69001449800517,86.97315087544965,88.29319429986808
134.543,89.08362581631266,88.34180354775468,88.85876403502762,87.63064905250069,86.91340201830816,88.23749749159802
136.5,89.1050967594259,88.33129653459011,88.86567570417199,87.59344964281247,86.89232544554045,88.23262980747609
138.486,89.17009675942592,88.36935118696118,88.93067570417199,87.62048667683689,86.91723767514733,88.27971063276976
140.5,89.06263952421604,88.24265000427027,88.82113336799107,87.47462376400651,86.77185364835935,88.15572834856219
142.544,88.89821217501316,88.04032941641161,88.6616069749703,87.25891676621691,86.5615996265033,87.96934542614564
144.617,88.78434537805127,87.87085111121412,88.53699201495822,87.09145824884068,86.39330791170038,87.82475139603567
146.721,88.6466576144618,87.70073022094553,88.391623657185,86.90374957125688,86.20942070950879,87.66364928764091
148.855,88.50385239677766,87.50301552626291,88.25251698486518,86.71470136010939,86.00697999049106,87.49443496953722
151.02,88.38155411099777,87.35422628393596,88.1590870281574,86.56098976416007,85.84956249289012,87.36353539000646
153.217,88.28378049218001,87.2081773921684,88.04433779139676,86.40289984413178,85.69915196351553,87.23465729289585
155.445,88.26731481646526,87.16959523173705,88.04215773744501,86.36105058553363,85.63426976350704,87.20629714698099
157.706,88.11053176245525,86.95349841101151,87.9067176473379,86.15755548254468,85.42983688926098,87.02872030571433
160.0,87.88694473913104,86.68157796632944,87.66833885694268,85.85713686574636,85.14217782986694,86.77066840689872
162.327,87.69044015035954,86.47473979784289,87.48064756469228,85.65261397116862,84.9063170297593,86.56762235799111
164.688,87.5203806855514,86.28822917076654,87.32481734560793,85.45699042047136,84.6950904823876,86.38813647892995
167.084,87.41546242669361,86.17466735824009,87.23385257486964,85.31061760844199,84.54916038989776,86.27279867230355
169.514,87.38883070532337,86.13051907802806,87.21632259298099,85.24856086955096,84.48975825767789,86.23496356046041
171.98,87.43953542456242,86.16859095532574,87.26185997259358,85.2552227634834,84.47052955921748,86.2655976501881
174.481,87.50766616854696,86.2423649051241,87.34543684110847,85.29164601587485,84.49430991756319,86.32787744157406
177.019,87.50331121659019,86.24839053032184,87.34578374063713,85.26383844930756,84.46248031473691,86.31947192526994
179.594,87.41129401739114,86.15745190543419,87.25856100200497,85.12287517506525,84.30971465660761,86.21335809673278
182.206,87.41550700423244,86.17749943944202,87.26956519905616,85.0948314781864,84.26776140328056,86.21150295912327
184.856,87.4397995385984,86.20722015938837,87.28841180825836,85.07411638925431,84.22361024794117,86.21984958327216
187.545,87.4483568227553,86.23532681871859,87.30625628840014,85.04458136944729,84.1716414333892,86.22126869930403
190.273,87.45821295980745,86.25160342220079,87.31799474986364,85.00063229957722,84.12031588327204,86.21713919876831
193.041,87.48840716294275,86.29565775685198,87.3557532230808,84.99248101906251,84.08032286837219,86.23771018030112
195.849,87.4369238631715,86.25340244429103,87.31057317810823,84.89605741489413,83.96130390074885,86.1748481024528
198.697,87.45280547569378,86.26994473913105,87.31433625313915,84.84450015964858,83.86821223348036,86.16474417737624
201.587,87.38374853031443,86.22297557404202,87.26431236204367,84.74757412473355,83.7205305791175,86.09191096359102
204.52,87.4696878385496,86.31194473913104,87.31331236204366,84.74652817114195,83.70428215097196,86.14437117286835
207.494,87.53374903489859,86.34694473913105,87.34831236204366,84.7475808427661,83.652086521945,86.17253296482818
210.512,87.59674252701737,86.40594473913103,87.42447959917686,84.73184220978314,83.59061106038496,86.21312189893534
213.574,87.58271079482856,86.40223454763769,87.42590404409431,84.64664353211356,83.44352315689204,86.18094059618703
216.681,87.58780354775467,86.40165810477036,87.44114513525,84.59284056144658,83.3150027243658,86.16526937501678
219.833,87.5374962395386,86.35669088328441,87.39105680614696,84.48724398691894,83.12785226602676,86.0944743164352
223.03,87.51064156143065,86.32890577280618,87.36635077717118,84.40692994847677,82.95432898249932,86.04604070883985
226.274,87.48872399931405,86.28607439325688,87.33236133528203,84.30048060611702,82.74994598918221,85.98722961573505
229.565,87.45627587767679,86.2476611266955,87.29482318981843,84.21312401513671,82.55152128652824,85.92918670801171
232.905,87.45437414872663,86.21640436818129,87.27403174009233,84.12495343497103,82.34932650833687,85.88613756169791
236.292,87.39172399931404,86.14357697602921,87.22416742352803,84.00414120237002,82.11221383581568,85.80191462186568
