Freq "Front Wall Bounce"
20.0 68.15357923087446
20.2909 68.42550176596654
20.586 68.81319644091397
20.8855 69.17257872386037
21.1893 69.46157872386037
21.4975 69.70757872386038
21.8102 69.96427788778483
22.1274 70.17900200021376
22.4492 70.38192779551247
22.7758 70.63679874550984
23.1071 70.83482363783276
23.4432 71.02582363783277
23.7841 71.27582363783276
24.1301 71.57795465179632
24.4811 71.76877020084189
24.8372 72.13928417380416
25.1984 72.39178076560148
25.5649 72.57032508034658
25.9368 72.79332508034659
26.3141 72.94432508034657
26.6968 73.0973250803466
27.0851 73.28632508034657
27.4791 73.48388516253145
27.8788 73.72642963062017
28.2843 73.88842963062017
28.6957 74.05242963062015
29.1131 74.31942963062018
29.5365 74.55975001084036
29.9661 74.82349290855652
30.402 74.99642963062016
30.8442 75.23118913489846
31.2929 75.48112951287114
31.748 75.69114057963994
32.2098 76.02353640679377
32.6783 76.21628360214285
33.1536 76.43487479982986
33.6359 76.56593229500538
34.1251 76.88316682435837
34.6215 77.12415665313901
35.125 77.31236025614098
35.6359 77.53344323097747
36.1543 77.74230181590774
36.6802 78.0083445778915
37.2137 78.22130550443026
37.755 78.49033570989376
38.3041 78.67116538083948
38.8613 78.83333570989376
39.4265 79.05933570989376
40.0 79.28833570989376
40.5818 79.52133570989378
41.1721 79.65733570989376
41.771 79.7946503167141
42.3785 79.93176461580182
42.9949 80.08833570989376
43.6203 80.28524710110587
44.2548 80.46246371017213
44.8985 80.68833570989376
45.5515 80.90933570989375
46.2141 81.07433570989376
46.8863 81.28833570989376
47.5683 81.51411812094173
48.2602 81.71733081666912
48.9621 81.81733081666911
49.6743 81.96843009995867
50.3968 82.14733570989375
51.1299 82.34033570989376
51.8736 82.51916628232256
52.6281 82.71146371017215
53.3936 83.000193171222
54.1702 83.25633570989376
54.9581 83.44143881657087
55.7575 83.69133570989376
56.5685 83.88746371017214
57.3914 84.1534065892835
58.2261 84.36046371017216
59.073 84.58946371017214
59.9323 84.7797351468769
60.804 85.03704529384785
61.6884 85.17294883621076
62.5857 85.36046371017216
63.496 85.58057469278569
64.4196 85.72846371017215
65.3566 85.90346371017213
66.3073 86.10965031671411
67.2717 86.26051391885885
68.2502 86.44978694608817
69.2429 86.60744525742518
70.2501 86.86046371017216
71.2719 87.06046371017214
72.3086 87.21346644226401
73.3603 87.46046371017215
74.4274 87.66046371017215
75.5099 87.69527978575665
76.6083 87.93822520227505
77.7226 88.01706141301727
78.8531 88.1023706788742
80.0 88.23505795432777
81.1636 88.36046371017216
82.3442 88.46046371017215
83.5419 88.53658985579426
84.757 88.63562128111712
85.9899 88.76046371017215
87.2406 88.81076510115284
88.5096 88.96446371017214
89.797 89.10416225489527
91.1031 89.21605224012484
92.4282 89.36046371017216
93.7726 89.40416225489527
95.1366 89.47116225489528
96.5204 89.52416225489527
97.9243 89.60416225489527
99.3486 89.50416225489526
100.794 89.48716225489527
102.26 89.43305224012482
103.747 89.40416225489527
105.256 89.40416225489527
106.787 89.51566150349112
108.34 89.55305908700318
109.916 89.50416225489526
111.515 89.56116225489528
113.137 89.50764177299943
114.783 89.5227162371905
116.452 89.40474203434104
118.146 89.31533883818122
119.865 89.2270260742068
121.608 89.23139356336513
123.377 89.08267030608931
125.171 89.03633831495549
126.992 88.9838249170251
128.839 89.00038166107974
130.713 88.89109260271255
132.615 88.89787722966071
134.543 88.85876403502762
136.5 88.86567570417199
138.486 88.93067570417199
140.5 88.82113336799107
142.544 88.6616069749703
144.617 88.53699201495822
146.721 88.391623657185
148.855 88.25251698486518
151.02 88.1590870281574
153.217 88.04433779139676
155.445 88.04215773744501
157.706 87.9067176473379
160.0 87.66833885694268
162.327 87.48064756469228
164.688 87.32481734560793
167.084 87.23385257486964
169.514 87.21632259298099
171.98 87.26185997259358
174.481 87.34543684110847
177.019 87.34578374063713
179.594 87.25856100200497
182.206 87.26956519905616
184.856 87.28841180825836
187.545 87.30625628840014
190.273 87.31799474986364
193.041 87.3557532230808
195.849 87.31057317810823
198.697 87.31433625313915
201.587 87.26431236204367
204.52 87.31331236204366
207.494 87.34831236204366
210.512 87.42447959917686
213.574 87.42590404409431
216.681 87.44114513525
219.833 87.39105680614696
223.03 87.36635077717118
226.274 87.33236133528203
229.565 87.29482318981843
232.905 87.27403174009233
236.292 87.22416742352803
239.729 87.15272781519963
243.216 87.17083343593306
246.754 87.1755148453581
250.343 87.16524238600974
253.984 87.18336261900117
257.678 87.18236261900117
261.426 87.14935806774865
265.229 87.20100104015236
269.087 87.2194685752405
273.001 87.20809277493613
276.972 87.22868242377152
281.0 87.27474809790337
285.088 87.31954923897887
289.234 87.33132461668923
293.441 87.40569474200673
297.709 87.4368432182128
302.04 87.42487862317269
306.433 87.38342458682422
310.89 87.35610113169072
315.412 87.27001262162435
320.0 87.24425316342388
324.655 87.20835257847631
329.377 87.11979495799798
334.168 87.03302624394246
339.028 86.94567347308595
343.959 86.88758350382332
348.962 86.88758350382332
354.038 86.92033095673682
359.188 86.91555953396065
364.412 86.91555953396065
369.713 86.91679093585584
375.09 86.97202306000158
380.546 87.03327838854699
386.081 87.10010112039282
391.697 87.09611540739756
397.394 87.09089818735868
403.175 87.07436212503394
409.039 87.03888580335719
414.989 87.02188797868165
421.025 87.01003279112292
427.149 86.9763464917681
433.362 86.9345525444609
439.665 86.92036985857555
446.06 86.95334168931018
452.548 87.00412339959277
459.131 87.03865705405525
465.809 87.08940868107277
472.584 87.16154195269813
479.458 87.27770837333296
486.432 87.39451518849233
493.507 87.48817645626164
500.686 87.57625725203621
507.968 87.66326510123817
515.357 87.74361677233834
522.853 87.85817308331383
530.458 87.88813789065205
538.174 87.88813789065205
546.002 87.87564453033889
553.943 87.83084634476684
562.001 87.78986058964277
570.175 87.74044716239855
578.469 87.70167130873487
586.883 87.6710765154056
595.419 87.63489119010052
604.08 87.63489119010052
612.866 87.63489119010052
621.78 87.63951809486795
630.824 87.67895986283483
640.0 87.68861990355076
649.309 87.69720929221205
658.753 87.7257560958042
668.335 87.7238607705322
678.056 87.70977970435999
687.919 87.64924400548345
697.925 87.62299883159862
708.077 87.60666447199785
718.376 87.63213390275841
728.825 87.71213570939238
739.426 87.81783399797052
750.181 87.988917591217
761.093 88.08722470601157
772.163 88.10824168166221
783.394 88.0962534286549
794.789 88.02220733840811
806.349 87.94620998008845
818.078 87.9200457212074
829.977 87.92353521091039
842.05 87.96096548685075
854.298 87.9763010601094
866.724 87.91768769430735
879.33 87.82710749516019
892.12 87.71483927023301
905.097 87.55738299397434
918.262 87.45547679571408
931.618 87.41322731250348
945.169 87.40480716736693
958.917 87.43170531122709
972.864 87.50335259782128
987.015 87.5624028956631
1001.37 87.55858874423919
1015.94 87.4762317483177
1030.71 87.37112835737966
1045.71 87.32082180441068
1060.92 87.31765222340947
1076.35 87.27071916016716
1092.0 87.17337168363134
1107.89 87.04928218615268
1124.0 86.94536784885025
1140.35 86.80829459619281
1156.94 86.59530927371114
1173.77 86.36224564746662
1190.84 86.28239941018992
1208.16 86.39450522629235
1225.73 86.46544345026959
1243.56 86.46255349841582
1261.65 86.48662635028202
1280.0 86.69016641638312
1298.62 86.91607130828477
1317.51 86.92556632750076
1336.67 86.78474025533062
1356.11 86.69099745776407
1375.84 86.66207133212495
1395.85 86.49388856610413
1416.15 86.21652470548526
1436.75 86.09263451130346
1457.65 86.15755021110004
1478.85 86.15665756647203
1500.36 86.16925668937941
1522.19 86.37897012025005
1544.33 86.60745140387908
1566.79 86.64477011836289
1589.58 86.63825204675767
1612.7 86.66361759516674
1636.16 86.6593483492823
1659.95 86.64750730138373
1684.1 86.72309592959259
1708.6 86.81177036754453
1733.45 86.92368944276001
1758.66 87.03793903706463
1784.24 87.09685339864221
1810.19 87.179137046975
1836.52 87.20921309842508
1863.24 87.11238402939816
1890.34 87.140574699293
1917.83 87.2702556139427
1945.73 87.23735528048834
1974.03 87.36574943078868
2002.74 87.56479491624212
2031.87 87.526485656539
2061.43 87.5267504298545
2091.41 87.46467389238848
2121.83 87.2637288485601
2152.69 87.11975518150345
2184.01 87.02932797846152
2215.77 87.1780090585113
2248.0 87.12273977138919
2280.7 87.03094525975926
2313.87 87.0737526641576
2347.53 86.92671389145609
2381.68 86.66453024965169
2416.32 86.4954073437615
2451.46 86.64913324822994
2487.12 86.71998979674004
2523.3 86.91543702130586
2560.0 86.86396394713196
2597.24 86.82411393002411
2635.01 86.70804034327763
2673.34 87.00585035553468
2712.23 87.08662052730227
2751.68 87.24806870523058
2791.7 86.97098010587405
2832.31 86.79117072108033
2873.5 86.56295343418353
2915.3 86.81738280038479
2957.7 86.84390536956361
3000.72 86.83819754656886
3044.37 86.59895748637977
3088.65 86.49385643689263
3133.58 86.66694098452543
3179.16 86.94307704247589
3225.4 86.90550034476783
3272.31 86.83009111429581
3319.91 86.78150933769905
3368.2 87.03806623091202
3417.19 87.06981447102163
3466.89 87.00224477131948
3517.32 86.9217540253508
3568.48 86.82640894879475
3620.39 86.9547721131911
3673.05 87.02791016235437
3726.47 87.01282429603569
3780.67 86.86547961169467
3835.67 86.83296147071565
3891.46 86.88887791786065
3948.06 86.73866399940766
4005.49 86.60341905577211
4063.75 86.587020184056
4122.86 86.57322688074845
4182.82 86.5323145853788
4243.66 86.44526773154571
4305.39 86.43629217172926
4368.01 86.35480252798338
4431.55 86.26323795749192
4496.01 86.23747311299951
4561.4 86.36904428316365
4627.75 86.44406348028922
4695.06 86.40059929601831
4763.35 86.37270427059548
4832.64 86.42958097497734
4902.93 86.49165927509883
4974.24 86.47493527607531
5046.6 86.67025800323103
5120.0 86.7375666152351
5194.47 86.70763148455724
5270.03 86.80863842733325
5346.68 86.77106357598751
5424.45 86.73929517826919
5503.35 86.67205483582268
5583.4 86.5989883022731
5664.61 86.48701529226301
5747.01 86.45716182327611
5830.6 86.47437570716825
5915.41 86.42297742747294
6001.45 86.52738678653456
6088.74 86.55585597056128
6177.3 86.62830141127621
6267.15 86.67715660574262
6358.31 86.63112946797975
6450.8 86.53231966712751
6544.62 86.42213681867412
6639.82 86.38479154906476
6736.4 86.49790336582939
6834.38 86.63080318942774
6933.79 86.86649024295241
7034.64 87.04063344462628
7136.96 87.25785480528884
7240.77 87.41045747068367
7346.09 87.55121778974191
7452.94 87.54564704683034
7561.35 87.42690570354647
7671.33 87.10900748439322
7782.91 86.8212013361245
7896.12 86.58468938999071
8010.97 86.66989564315413
8127.49 86.81199531201136
8245.71 87.07402877205277
8365.65 87.01667881960311
8487.33 86.90077744901664
8610.78 86.61275670971126
8736.03 86.4064480321398
8863.09 86.23605783409948
8992.01 86.27672136145874
9122.8 86.37793296497333
9255.5 86.5303982916876
9390.12 86.54846133248017
9526.7 86.56073053469402
9665.27 86.5279273850425
9805.86 86.49911277772287
9948.49 86.52840444479955
10093.2 86.45176834291091
10240.0 86.23929441349496
10388.9 85.9584258521509
10540.1 85.68477213350315
10693.4 85.4998150745589
10848.9 85.26675580548144
11006.7 84.86759224232024
11166.8 84.56202246351457
11329.2 84.43329293518393
11494.0 84.46750556748
11661.2 84.46771570034527
11830.8 84.39062356214242
12002.9 84.35749588462916
12177.5 84.42384682504272
12354.6 84.48922255739643
12534.3 84.50691650385905
12716.6 84.63505960532669
12901.6 84.9401391105428
13089.2 85.3413933998489
13279.6 85.64375995105965
13472.8 85.90861401747061
13668.8 86.31372090528723
13867.6 86.81181312834586
14069.3 87.14198665367769
14273.9 87.2617213438323
14481.5 87.26099118072719
14692.2 87.16538437602094
14905.9 87.00336565522475
15122.7 86.92114910935447
15342.7 87.01717677895164
15565.8 86.99347941688451
15792.2 86.62551048598527
16021.9 86.10433316047272
16255.0 85.63870906551091
16491.4 85.24276069610664
16731.3 85.04068813014221
16974.7 85.02128253298304
17221.6 84.88878102566358
17472.1 84.51337861581455
17726.2 84.12564329389174
17984.0 83.77076151152428
18245.6 83.43250179082266
18511.0 83.2283901109072
18780.2 83.07069424482467
19053.4 82.85878967284508
19330.5 82.65130658232553
19611.7 82.31510836108251
19897.0 81.96491706351443
