Freq "Side Wall Bounce"
20.0 67.71248352234811
20.2909 67.97815174612892
20.586 68.34559020153736
20.8855 68.64381547975775
21.1893 68.96629908092457
21.4975 69.21798457579573
21.8102 69.46537027880883
22.1274 69.6705726119463
22.4492 69.862186989295
22.7758 70.09270482737938
23.1071 70.27258306905513
23.4432 70.49873364471503
23.7841 70.74873364471505
24.1301 71.02573364471503
24.4811 71.22881967426227
24.8372 71.59129892002339
25.1984 71.8182989200234
25.5649 72.00577279503807
25.9368 72.25014743119621
26.3141 72.4051226092861
26.6968 72.5581226092861
27.0851 72.76454043429183
27.4791 72.97047848811052
27.8788 73.22370465369947
28.2843 73.37608018585846
28.6957 73.50981259337127
29.1131 73.77681259337128
29.5365 74.02681259337128
29.9661 74.26487703854536
30.402 74.48887459313741
30.8442 74.72177438426283
31.2929 74.95915719819222
31.748 75.18832517965365
32.2098 75.5246794557988
32.6783 75.69194518595526
33.1536 75.94162759416105
33.6359 76.06383484444443
34.1251 76.36812362146875
34.6215 76.60843150907907
35.125 76.79112350415657
35.6359 77.05029833600838
36.1543 77.24417811631653
36.6802 77.50604907580501
37.2137 77.74865763193621
37.755 77.99381123374337
38.3041 78.18501897294432
38.8613 78.34111480699997
39.4265 78.56613368411854
40.0 78.78629649516505
40.5818 79.01528104667271
41.1721 79.17448503999535
41.771 79.35069508535291
42.3785 79.45108454898609
42.9949 79.60548503999533
43.6203 79.83670104499595
44.2548 79.98619274074315
44.8985 80.19502928431619
45.5515 80.42332203221481
46.2141 80.6122887362403
46.8863 80.8428177920711
47.5683 81.06057840461807
48.2602 81.26057840461809
48.9621 81.36057840461808
49.6743 81.53057840461807
50.3968 81.71957840461808
51.1299 81.88012233301363
51.8736 82.04858943159782
52.6281 82.25058943159783
53.3936 82.52411352491832
54.1702 82.76916033633334
54.9581 82.96223000624852
55.7575 83.21720932216854
56.5685 83.40623000624852
57.3914 83.65269175864326
58.2261 83.85877468760178
59.073 84.10823000624852
59.9323 84.31192698861132
60.804 84.55906249869594
61.6884 84.68369147479216
62.5857 84.84272036615428
63.496 85.07569147479215
64.4196 85.20840320431687
65.3566 85.40944285121327
66.3073 85.61852499155745
67.2717 85.75475601053833
68.2502 85.94341691100551
69.2429 86.0835780900083
70.2501 86.32910773861425
71.2719 86.55600624081438
72.3086 86.70548521826223
73.3603 86.92553195013932
74.4274 87.14468715801164
75.5099 87.17072332041865
76.6083 87.36304276873098
77.7226 87.46383803627211
78.8531 87.55927325418277
80.0 87.68089361156687
81.1636 87.77926173338436
82.3442 87.87623994760281
83.5419 87.92501197825244
84.757 88.04459339506789
85.9899 88.15175538321945
87.2406 88.20057816251241
88.5096 88.31789120479482
89.797 88.46463888556242
91.1031 88.58357816251241
92.4282 88.70057816251241
93.7726 88.70057816251241
95.1366 88.76757816251241
96.5204 88.82057816251242
97.9243 88.88158495192546
99.3486 88.78158495192544
100.794 88.7408604081077
102.26 88.71873861680601
103.747 88.65644972368804
105.256 88.6070892971477
106.787 88.72363178948635
108.34 88.75273204388206
109.916 88.70473935235016
111.515 88.72160900189118
113.137 88.65050975603609
114.783 88.62415900260896
116.452 88.52692760310056
118.146 88.3632965003082
119.865 88.25269985378313
121.608 88.25523956472513
123.377 88.07357564865275
125.171 87.98173877142432
126.992 87.90773238949943
128.839 87.9033021177784
130.713 87.731694877618
132.615 87.69001449800517
134.543 87.63064905250069
136.5 87.59344964281247
138.486 87.62048667683689
140.5 87.47462376400651
142.544 87.25891676621691
144.617 87.09145824884068
146.721 86.90374957125688
148.855 86.71470136010939
151.02 86.56098976416007
153.217 86.40289984413178
155.445 86.36105058553363
157.706 86.15755548254468
160.0 85.85713686574636
162.327 85.65261397116862
164.688 85.45699042047136
167.084 85.31061760844199
169.514 85.24856086955096
171.98 85.2552227634834
174.481 85.29164601587485
177.019 85.26383844930756
179.594 85.12287517506525
182.206 85.0948314781864
184.856 85.07411638925431
187.545 85.04458136944729
190.273 85.00063229957722
193.041 84.99248101906251
195.849 84.89605741489413
198.697 84.84450015964858
201.587 84.74757412473355
204.52 84.74652817114195
207.494 84.7475808427661
210.512 84.73184220978314
213.574 84.64664353211356
216.681 84.59284056144658
219.833 84.48724398691894
223.03 84.40692994847677
226.274 84.30048060611702
229.565 84.21312401513671
232.905 84.12495343497103
236.292 84.00414120237002
239.729 83.92358028089645
243.216 83.8794448739613
246.754 83.81315287188721
250.343 83.76429725039145
253.984 83.74365770632528
257.678 83.67134776606915
261.426 83.62459268965188
265.229 83.63853839433216
269.087 83.65458774572635
273.001 83.58686955154162
276.972 83.55128145546564
281.0 83.54146336199811
285.088 83.56467115331296
289.234 83.54219515803243
293.441 83.55424794346779
297.709 83.55136771116996
302.04 83.45198567606651
306.433 83.3553286834454
310.89 83.22457839434472
315.412 83.08543775056006
320.0 82.96688545612875
324.655 82.82247025494989
329.377 82.64503925973641
334.168 82.43981836877778
339.028 82.24410949726844
343.959 82.06771703999658
348.962 81.94898164836722
354.038 81.85173800010111
359.188 81.73783891619271
364.412 81.62118481640576
369.713 81.54496937061641
375.09 81.48698296396392
380.546 81.4423221615667
386.081 81.38717656201742
391.697 81.26896266883661
397.394 81.12705651842029
403.175 80.96309151135726
409.039 80.78464999221669
414.989 80.61448049039959
421.025 80.42361177673631
427.149 80.20324199636872
433.362 80.00894604650014
439.665 79.83476163978712
446.06 79.75799449089577
452.548 79.69058269788397
459.131 79.65670855569383
465.809 79.64143625817067
472.584 79.66202255200818
479.458 79.7642291730375
486.432 79.8922628226318
493.507 80.0095905022511
500.686 80.1482684555575
507.968 80.296978339777
515.357 80.45959430500392
522.853 80.65152742552307
530.458 80.74993249281886
538.174 80.7823162834802
546.002 80.84104151239642
553.943 80.857137520492
562.001 80.86203476742439
570.175 80.87160953020862
578.469 80.88947685328667
586.883 80.94204512774105
595.419 80.99108195507429
604.08 81.04365386910328
612.866 81.1465423209403
621.78 81.17448002883184
630.824 81.18916859127089
640.0 81.20238867270797
649.309 81.24257375069973
658.753 81.32368473007193
668.335 81.43354903686546
678.056 81.58067135100812
687.919 81.72957884742405
697.925 81.90076780392252
708.077 82.09475399653986
718.376 82.35315002274817
728.825 82.60103961724846
739.426 82.87834837281854
750.181 83.18347467682707
761.093 83.3920161267859
772.163 83.51690609340275
783.394 83.61439001045106
794.789 83.64500828646038
806.349 83.6916250236974
818.078 83.82986769185945
829.977 84.0231598789108
842.05 84.21142672168108
854.298 84.33818914275261
866.724 84.3986738021583
879.33 84.42870869455014
892.12 84.43707858953046
905.097 84.46953857087928
918.262 84.53193855377697
931.618 84.58685554669718
945.169 84.6236034443123
958.917 84.6103516301756
972.864 84.52843444579763
987.015 84.47045053834746
1001.37 84.35511153446672
1015.94 84.21440529806877
1030.71 84.070247178449
1045.71 83.96943761018282
1060.92 83.91669800722799
1076.35 83.90035323763826
1092.0 83.88246510489668
1107.89 83.92957602649307
1124.0 84.00714831771162
1140.35 84.04047988738125
1156.94 83.94380859530915
1173.77 83.784500967672
1190.84 83.7455109782712
1208.16 83.88235097812228
1225.73 83.9691095945848
1243.56 83.97885458629018
1261.65 84.02067439283451
1280.0 84.22875900294483
1298.62 84.4580855160477
1317.51 84.44714509393299
1336.67 84.34007939065499
1356.11 84.40864063238804
1375.84 84.62333529709439
1395.85 84.68082991182015
1416.15 84.53940140377858
1436.75 84.52823147100045
1457.65 84.71724390152247
1478.85 84.83146228605145
1500.36 84.90086976799219
1522.19 85.05981557188628
1544.33 85.21966337355313
1566.79 85.22860269748332
1589.58 85.26236343714949
1612.7 85.32690996017746
1636.16 85.36631405714286
1659.95 85.35586671993758
1684.1 85.33671984904453
1708.6 85.34080695288327
1733.45 85.37569441533645
1758.66 85.37297850415462
1784.24 85.2548356778569
1810.19 85.21438980059207
1836.52 85.26272432049683
1863.24 85.21773369861369
1890.34 85.27909595196176
1917.83 85.39164895983295
1945.73 85.32447172865363
1974.03 85.42070412726488
2002.74 85.52549567574493
2031.87 85.46620918384214
2061.43 85.5614669751389
2091.41 85.50798409121283
2121.83 85.31684902628389
2152.69 85.27466233648491
2184.01 85.14542889875896
2215.77 85.1360735710414
2248.0 84.9787618730165
2280.7 84.82086934615238
2313.87 84.74683680513843
2347.53 84.52444884201805
2381.68 84.51096061915618
2416.32 84.43936187733354
2451.46 84.33897303609702
2487.12 84.12653704994146
2523.3 83.99554367726229
2560.0 83.63269660997423
2597.24 83.55701614636266
2635.01 83.61671144830808
2673.34 84.0252580012044
2712.23 84.20261029567811
2751.68 84.48595374497472
2791.7 84.42800400409143
2832.31 84.67677364304427
2873.5 84.69579163945525
2915.3 84.95412457393749
2957.7 84.80745858245194
3000.72 84.7855614635694
3044.37 84.62181312845733
3088.65 84.7386216679921
3133.58 84.94391917438163
3179.16 85.1263756933448
3225.4 85.13580873285255
3272.31 85.19536835458261
3319.91 85.3522529122629
3368.2 85.58160042138495
3417.19 85.59000903257227
3466.89 85.58607089891161
3517.32 85.47943984728589
3568.48 85.39626172251064
3620.39 85.37312139170778
3673.05 85.36097787147149
3726.47 85.27097208273865
3780.67 85.26266165995754
3835.67 85.33814300518293
3891.46 85.44058833800756
3948.06 85.30942947541354
4005.49 85.22214317242542
4063.75 85.17485515441619
4122.86 85.05051629712914
4182.82 84.94384049161674
4243.66 84.8862587877574
4305.39 84.91296560248398
4368.01 84.92566521904874
4431.55 85.01657568930668
4496.01 85.08898821357678
4561.4 85.14284069280316
4627.75 85.27240095408811
4695.06 85.22830898889069
4763.35 85.14582818340418
4832.64 85.19308914566295
4902.93 85.16041383719585
4974.24 85.03529547414388
5046.6 85.12875039582167
5120.0 85.0792008124397
5194.47 84.97104541742131
5270.03 85.0019564411741
5346.68 84.89201482265237
5424.45 84.75989643925567
5503.35 84.62998622165945
5583.4 84.4350568210734
5664.61 84.20650208693303
5747.01 84.06368856017663
5830.6 83.94940691560899
5915.41 83.7843417078459
6001.45 83.85481009744935
6088.74 83.85126802640323
6177.3 83.89983077567513
6267.15 83.85760028722501
6358.31 83.7614429218611
6450.8 83.59892475107367
6544.62 83.45080975714323
6639.82 83.3591066716082
6736.4 83.33374027197358
6834.38 83.30355422033483
6933.79 83.27582781260311
7034.64 83.15044226919638
7136.96 83.02155463870443
7240.77 82.82154894413594
7346.09 82.66513919837243
7452.94 82.48538776347019
7561.35 82.32899917670008
7671.33 82.09173580986221
7782.91 81.84240418360159
7896.12 81.4361969621972
8010.97 81.10079562778914
8127.49 80.74838342409434
8245.71 80.66119328865187
8365.65 80.53462927826735
8487.33 80.36488389404131
8610.78 79.96791602919893
8736.03 79.7449913805483
8863.09 79.69234567664405
8992.01 79.84636940781385
9122.8 79.88332284202161
9255.5 79.74769085476032
9390.12 79.31896215440295
9526.7 79.02839633932068
9665.27 78.84092564135024
9805.86 78.70183972314777
9948.49 78.59471326636749
10093.2 78.40726426762052
10240.0 78.25544402257165
10388.9 78.18586743128523
10540.1 78.22806738927369
10693.4 78.34114394380384
10848.9 78.4240443541155
11006.7 78.28742684027526
11166.8 78.08143311085821
11329.2 77.90818271587831
11494.0 77.76207156806696
11661.2 77.56247424767503
11830.8 77.49091614282457
12002.9 77.53606442420048
12177.5 77.58916396812415
12354.6 77.5583450728761
12534.3 77.6109321328093
12716.6 77.8050599189594
12901.6 77.98261027108816
13089.2 78.1514207482526
13279.6 78.32136231752071
13472.8 78.35944346267561
13668.8 78.29263348508599
13867.6 78.18924546517202
14069.3 78.0436166124378
14273.9 77.84423244553314
14481.5 77.63156829748614
14692.2 77.2682472787928
14905.9 76.60464619896997
15122.7 75.77974350096915
15342.7 75.03721444457676
15565.8 74.29209956871063
15792.2 73.5401302498932
16021.9 73.00264401489663
16255.0 72.61805357776969
16491.4 72.31055593178978
16731.3 72.36637323880875
16974.7 72.53157631251842
17221.6 72.52896251377132
17472.1 72.19308445926877
17726.2 71.74795387825961
17984.0 71.18949241031187
18245.6 70.63249013240687
18511.0 70.28006783467433
18780.2 70.07088194188961
19053.4 69.85998877937885
19330.5 69.65807313859594
19611.7 69.23756455123059
19897.0 68.83109029164912
