Freq "Total Early Reflection"
20.0 67.77860098043249
20.2909 68.04810435501801
20.586 68.43554465869026
20.8855 68.76511028161269
21.1893 69.07320452023711
21.4975 69.32418810857062
21.8102 69.58049592016724
22.1274 69.7921464860568
22.4492 69.98771026091936
22.7758 70.22951163131218
23.1071 70.41759350680547
23.4432 70.62715513156346
23.7841 70.87930816762287
24.1301 71.16362905676388
24.4811 71.36413149443038
24.8372 71.73290728085985
25.1984 71.97525747827905
25.5649 72.15371140645686
25.9368 72.3828516945261
26.3141 72.53062371968402
26.6968 72.66981835854871
27.0851 72.85650880134264
27.4791 73.0798336692033
27.8788 73.33433013217775
28.2843 73.4897801717191
28.6957 73.63555156553986
29.1131 73.88713803372538
29.5365 74.11128995630588
29.9661 74.37070711042828
30.402 74.55981286900789
30.8442 74.79284635382142
31.2929 75.03478916607897
31.748 75.25689248767164
32.2098 75.57304250524152
32.6783 75.76058067591535
33.1536 75.9834177877134
33.6359 76.11429124824085
34.1251 76.41309859056754
34.6215 76.64799010619217
35.125 76.83135536612315
35.6359 77.06617416736613
36.1543 77.26861560342167
36.6802 77.5204447608207
37.2137 77.75580961988047
37.755 77.99617902592125
38.3041 78.19072560154105
38.8613 78.33652309414721
39.4265 78.56080912455786
40.0 78.79365011305997
40.5818 79.00438005004716
41.1721 79.16283303626926
41.771 79.31914823814333
42.3785 79.41788833807331
42.9949 79.5860309975962
43.6203 79.79488828109594
44.2548 79.9518544975948
44.8985 80.17566962215213
45.5515 80.40063485995181
46.2141 80.57672018987628
46.8863 80.79238813488928
47.5683 81.00072754954162
48.2602 81.20449311936113
48.9621 81.30245309212596
49.6743 81.4647597769488
50.3968 81.63892990020649
51.1299 81.81722562390661
51.8736 82.0007525669929
52.6281 82.19182757900303
53.3936 82.46950486758732
54.1702 82.7254435325833
54.9581 82.90351003283612
55.7575 83.16155492702653
56.5685 83.35213510346462
57.3914 83.61587791838036
58.2261 83.81386099092727
59.073 84.05645053319644
59.9323 84.25085434749099
60.804 84.50137260257704
61.6884 84.6395986794754
62.5857 84.80123069591426
63.496 85.04106145998378
64.4196 85.17460143743045
65.3566 85.37416960388468
66.3073 85.58225055362635
67.2717 85.7261888073194
68.2502 85.91397150413991
69.2429 86.08219849296606
70.2501 86.31865509232652
71.2719 86.53645744942074
72.3086 86.69779466038361
73.3603 86.92886144733966
74.4274 87.14355248586564
75.5099 87.17501584262521
76.6083 87.38176912627131
77.7226 87.47782559536155
78.8531 87.57423565332552
80.0 87.71554732418409
81.1636 87.83731762262595
82.3442 87.92123607165169
83.5419 87.99704872295618
84.757 88.11721202656952
85.9899 88.22312278779097
87.2406 88.28791093768989
88.5096 88.42754118547411
89.797 88.57458699377848
91.1031 88.68948412365155
92.4282 88.83900079555274
93.7726 88.85878068004217
95.1366 88.93230268945587
96.5204 88.99640952040436
97.9243 89.07528703790149
99.3486 88.9752870379015
100.794 88.94801372528596
102.26 88.92614581145818
103.747 88.89148151224438
105.256 88.85948057492547
106.787 88.99454073148087
108.34 89.01674127672638
109.916 88.99932363012556
111.515 89.04261075974493
113.137 88.98555800035645
114.783 88.97824540470063
116.452 88.88250125755141
118.146 88.76812154641945
119.865 88.68185526102515
121.608 88.67601949041301
123.377 88.53505787737541
125.171 88.47670244253396
126.992 88.42530522574243
128.839 88.42261571503752
130.713 88.27831937398338
132.615 88.29319429986808
134.543 88.23749749159802
136.5 88.23262980747609
138.486 88.27971063276976
140.5 88.15572834856219
142.544 87.96934542614564
144.617 87.82475139603567
146.721 87.66364928764091
148.855 87.49443496953722
151.02 87.36353539000646
153.217 87.23465729289585
155.445 87.20629714698099
157.706 87.02872030571433
160.0 86.77066840689872
162.327 86.56762235799111
164.688 86.38813647892995
167.084 86.27279867230355
169.514 86.23496356046041
171.98 86.2655976501881
174.481 86.32787744157406
177.019 86.31947192526994
179.594 86.21335809673278
182.206 86.21150295912327
184.856 86.21984958327216
187.545 86.22126869930403
190.273 86.21713919876831
193.041 86.23771018030112
195.849 86.1748481024528
198.697 86.16474417737624
201.587 86.09191096359102
204.52 86.14437117286835
207.494 86.17253296482818
210.512 86.21312189893534
213.574 86.18094059618703
216.681 86.16526937501678
219.833 86.0944743164352
223.03 86.04604070883985
226.274 85.98722961573505
229.565 85.92918670801171
232.905 85.88613756169791
236.292 85.80191462186568
239.729 85.74413602532854
243.216 85.73765790307732
246.754 85.71032388861245
250.343 85.69697110536985
253.984 85.69954303581788
257.678 85.67988062186717
261.426 85.65365675686043
265.229 85.6943777783934
269.087 85.70751217042738
273.001 85.6968740911849
276.972 85.71836820578875
281.0 85.74815394801921
285.088 85.79027956138586
289.234 85.82902001027898
293.441 85.8814810030292
297.709 85.91830042468064
302.04 85.91910643737044
306.433 85.88985674079214
310.89 85.83659369649854
315.412 85.78177173293909
320.0 85.77036806802609
324.655 85.74307229025487
329.377 85.68147195945886
334.168 85.59975982590032
339.028 85.53924637564059
343.959 85.49250694550483
348.962 85.48881356972153
354.038 85.4876973376497
359.188 85.46580933014047
364.412 85.44563162296716
369.713 85.43893247355749
375.09 85.45077048526886
380.546 85.47051749874261
386.081 85.50917830782542
391.697 85.4682685032343
397.394 85.4343616566367
403.175 85.37218130550471
409.039 85.30912135019825
414.989 85.2661287402789
421.025 85.20640896575176
427.149 85.11518983160703
433.362 85.02114761973267
439.665 84.94686617864397
446.06 84.92201953693375
452.548 84.89766906365136
459.131 84.87579065013168
465.809 84.87199841803343
472.584 84.89258443842364
479.458 84.96935703536133
486.432 85.06209061543512
493.507 85.12920023753011
500.686 85.19326610321151
507.968 85.25466728070396
515.357 85.32788661318978
522.853 85.4284015009145
530.458 85.4607268741837
538.174 85.44965018259985
546.002 85.4709975857448
553.943 85.48024125068065
562.001 85.49247844210771
570.175 85.50470379119572
578.469 85.52203486333211
586.883 85.5538835753616
595.419 85.56420626700178
604.08 85.58954655215393
612.866 85.59634647299488
621.78 85.60377313688979
630.824 85.63093590576753
640.0 85.63830238851156
649.309 85.64022877489624
658.753 85.62683173130353
668.335 85.62241327915572
678.056 85.59962241591471
687.919 85.55245822871163
697.925 85.49945688974734
708.077 85.46838919831237
718.376 85.47765115446748
728.825 85.49691930140116
739.426 85.53444181657497
750.181 85.63738113634776
761.093 85.69727413625053
772.163 85.70601212114708
783.394 85.69976791694052
794.789 85.62040456281797
806.349 85.50750553025134
818.078 85.41390211963554
829.977 85.34074704351428
842.05 85.28772749951673
854.298 85.22815232334345
866.724 85.14162003531038
879.33 85.04633141926566
892.12 84.94249900403297
905.097 84.81833985022327
918.262 84.74215045832342
931.618 84.69814983312722
945.169 84.66273525854137
958.917 84.62501234675031
972.864 84.58487201898298
987.015 84.54724886293697
1001.37 84.48997365043263
1015.94 84.41067069963844
1030.71 84.35651127835476
1045.71 84.36540156953008
1060.92 84.4222968499756
1076.35 84.4534252839771
1092.0 84.42812685352128
1107.89 84.38406745449652
1124.0 84.35496427802386
1140.35 84.3399934039624
1156.94 84.30337624127006
1173.77 84.23340204878838
1190.84 84.2025021039951
1208.16 84.24101868475879
1225.73 84.2697004711021
1243.56 84.30453485291278
1261.65 84.36917827472303
1280.0 84.50539145042913
1298.62 84.64280170848869
1317.51 84.6496046851726
1336.67 84.60749840213671
1356.11 84.61119117651324
1375.84 84.64727734062875
1395.85 84.58469589989443
1416.15 84.42555665822502
1436.75 84.33697062663538
1457.65 84.36261843248417
1478.85 84.36774854593315
1500.36 84.37519864555466
1522.19 84.45549144473085
1544.33 84.4960230618543
1566.79 84.40641763079509
1589.58 84.3202211252307
1612.7 84.29989800396716
1636.16 84.26878627620417
1659.95 84.15511687546592
1684.1 84.03399887601145
1708.6 83.94688500998714
1733.45 83.89402736015151
1758.66 83.82636834867135
1784.24 83.70465111277099
1810.19 83.61672080649763
1836.52 83.51994847092075
1863.24 83.34394728364315
1890.34 83.27471151000104
1917.83 83.30160362272494
1945.73 83.20031544692935
1974.03 83.23417107664105
2002.74 83.32993767187989
2031.87 83.24373402510207
2061.43 83.21371828912675
2091.41 83.1111589435117
2121.83 82.91854963489412
2152.69 82.8349699608728
2184.01 82.74410248092082
2215.77 82.83238777011974
2248.0 82.75691985733785
2280.7 82.65576787750523
2313.87 82.68954266245112
2347.53 82.56783206619323
2381.68 82.45142844146376
2416.32 82.37120181102449
2451.46 82.46148793056923
2487.12 82.4837950941331
2523.3 82.61486964497614
2560.0 82.55627884683099
2597.24 82.56728093909115
2635.01 82.58775966263649
2673.34 82.9483607725951
2712.23 83.18205994150496
2751.68 83.46271731435587
2791.7 83.42983064578773
2832.31 83.47272824730422
2873.5 83.49147283737258
2915.3 83.77564204551182
2957.7 83.90451837270899
3000.72 84.02119499628748
3044.37 83.96150697779792
3088.65 84.01414748963437
3133.58 84.2595543317951
3179.16 84.52062337308732
3225.4 84.49846770656089
3272.31 84.41689920920054
3319.91 84.33423757520337
3368.2 84.39259420901524
3417.19 84.31203268088416
3466.89 84.22313488677516
3517.32 84.16033264252653
3568.48 84.17727751279847
3620.39 84.37739789116637
3673.05 84.60851855631327
3726.47 84.77969396301685
3780.67 84.90888040276931
3835.67 85.09115351465394
3891.46 85.28302690454254
3948.06 85.3006982173692
4005.49 85.26757553138223
4063.75 85.32334093309642
4122.86 85.31794685899317
4182.82 85.2742932252335
4243.66 85.27172974716694
4305.39 85.36241793518684
4368.01 85.40910917148193
4431.55 85.43094592260232
4496.01 85.42113844063653
4561.4 85.41091533647558
4627.75 85.36329338237344
4695.06 85.21353103028932
4763.35 85.06865175275426
4832.64 85.00147527478921
4902.93 84.94878627480065
4974.24 84.82492181730254
5046.6 84.91528969075095
5120.0 85.02815164395332
5194.47 85.07256686389907
5270.03 85.27191367367242
5346.68 85.35985287346696
5424.45 85.23313213740505
5503.35 85.16949726408319
5583.4 85.07616209465888
5664.61 84.89029338314995
5747.01 84.79334935969636
5830.6 84.62967444315868
5915.41 84.31471777209558
6001.45 84.21889520610961
6088.74 84.13691116620839
6177.3 84.0607229301211
6267.15 84.05845344100658
6358.31 83.94757000901798
6450.8 83.94091958370976
6544.62 84.0127223027101
6639.82 84.17285809975992
6736.4 84.41618641228536
6834.38 84.56138361945565
6933.79 84.62905151546714
7034.64 84.64010298240277
7136.96 84.58240417681895
7240.77 84.55269352388802
7346.09 84.49898732826608
7452.94 84.43511809899243
7561.35 84.35435270011396
7671.33 84.1723478282401
7782.91 84.00716735140173
7896.12 83.76542703611149
8010.97 83.69160874539571
8127.49 83.64308738974044
8245.71 83.7650892671659
8365.65 83.67947616409175
8487.33 83.55205346042936
8610.78 83.25045988052148
8736.03 82.9945136916006
8863.09 82.75447711686665
8992.01 82.75929892025451
9122.8 82.81035275698333
9255.5 82.92087208981222
9390.12 82.8534583878602
9526.7 82.804333591286
9665.27 82.69440540861332
9805.86 82.61711511546423
9948.49 82.57749722598757
10093.2 82.4686549970977
10240.0 82.29301475475773
10388.9 82.08936039221379
10540.1 81.93405271275816
10693.4 81.8177379577767
10848.9 81.63899945765007
11006.7 81.30905743018434
11166.8 81.03671075960135
11329.2 80.90057156478359
11494.0 80.89535710835456
11661.2 80.88576508805521
11830.8 80.85794869519039
12002.9 80.83174152308139
12177.5 80.82545438554081
12354.6 80.78173364713234
12534.3 80.69531430431375
12716.6 80.67211686468522
12901.6 80.8155535563144
13089.2 81.09814601673098
13279.6 81.34476281421861
13472.8 81.5605654208951
13668.8 81.86971151240658
13867.6 82.22835609352097
14069.3 82.44227088335276
14273.9 82.48900523343214
14481.5 82.43628531728731
14692.2 82.29795393226162
14905.9 82.06113755728947
15122.7 81.85587519316151
15342.7 81.79741863224166
15565.8 81.66586751213647
15792.2 81.27509429287092
16021.9 80.77584733295389
16255.0 80.30619286842598
16491.4 79.86024111945333
16731.3 79.5844139971841
16974.7 79.47675620905291
17221.6 79.27626199014638
17472.1 78.84420613645295
17726.2 78.3996976830808
17984.0 77.99297285474361
18245.6 77.63969503572326
18511.0 77.45643076651056
18780.2 77.3228293471159
19053.4 77.11726557541786
19330.5 76.90950645111556
19611.7 76.58372324048625
19897.0 76.23921351420633
