Freq "Front Wall Bounce"
20.5078 37.97236600000001
21.9727 42.46036500000001
23.4375 45.72737099999999
24.9023 48.103370999999996
26.3672 51.274367999999996
27.832 53.89736899999998
29.2969 56.24736800000001
30.7617 58.72236600000001
32.2266 61.033366999999984
33.6914 62.998363
35.1562 64.79036700000002
36.6211 66.31037099999999
38.0859 68.19336700000001
39.5508 70.042366
41.0156 71.74337000000001
42.4805 73.241371
43.9453 74.58536500000001
45.4102 75.849365
46.875 76.84137
48.3398 77.891365
51.2695 79.333366
52.7344 79.746368
54.1992 80.014366
55.6641 80.213371
58.5938 80.50336499999999
60.0586 80.64637
62.9883 80.888367
64.4531 80.985367
67.3828 81.135368
68.8477 81.211365
71.7773 81.36136599999999
74.707 81.508369
77.6367 81.643372
79.1016 81.717369
82.0312 81.861366
84.9609 81.995369
87.8906 82.108368
90.8203 82.21836899999998
95.2148 82.353371
98.1445 82.420364
101.074 82.48037
105.469 82.545364
108.398 82.575371
112.793 82.607368
117.188 82.617371
120.117 82.622368
124.512 82.63936600000001
128.906 82.634369
133.301 82.561371
139.16 82.434372
143.555 82.389366
147.949 82.367371
300.0 81.72302801701446
307.0 81.78202652366099
315.0 81.8423405311103
325.0 81.90742639515405
335.0 81.96316381122098
345.0 82.01043915275518
355.0 82.05009698003634
365.0 82.08290620993272
375.0 82.10957011970753
387.0 82.13402457506331
400.0 82.15313090804348
412.0 82.16563591374698
425.0 82.17472258073559
437.0 82.18016264794781
450.0 82.18381468439429
462.0 82.18596984630473
475.0 82.18776635786033
487.0 82.18941871524528
500.0 82.19160373083871
515.0 82.19495697898536
530.0 82.19950711985489
545.0 82.20493976383976
560.0 82.21097545788975
580.0 82.21880911746648
600.0 82.22504481789498
615.0 82.2273542790459
630.0 82.22687711714465
650.0 82.22010969905222
670.0 82.20505013974316
690.0 82.17974298859127
710.0 82.14245179773452
730.0 82.09289287070773
750.0 82.03046974776528
775.0 81.93195726030264
800.0 81.81195738346017
825.0 81.671096285782
850.0 81.51097875071677
875.0 81.33405849354335
900.0 81.14377002875987
925.0 80.9445550959296
950.0 80.74182879200261
975.0 80.54244608132142
1000.0 80.35372123890433
1030.0 80.15148903673979
1060.0 79.98841637949936
1090.0 79.87192061394238
1120.0 79.80983843805714
1150.0 79.798155940378
1180.0 79.83256292309342
1220.0 79.92898819796822
1250.0 80.02317162167475
1280.0 80.12117633267007
1320.0 80.23932029577186
1360.0 80.3267175536373
1400.0 80.37204229529326
1450.0 80.36798729023023
1500.0 80.30510612546662
1550.0 80.20172504030856
1600.0 80.08212783660647
1650.0 79.96886725896367
1700.0 79.88060973615174
1750.0 79.82815755265675
1800.0 79.81822855817073
1850.0 79.85418659542444
1900.0 79.93728014409432
1950.0 80.06445635004735
2000.0 80.22613409339914
2060.0 80.44318174646375
2120.0 80.65241694301486
2180.0 80.82225762291844
2240.0 80.93373727963868
2300.0 80.98522740357797
2360.0 80.98874089175847
2430.0 80.9582100142729
2500.0 80.91976741701215
2580.0 80.89402789033618
2650.0 80.89573861177207
2720.0 80.91170398635407
2800.0 80.92376697083249
2900.0 80.89658193503423
3000.0 80.82757069422668
3070.0 80.7790480944159
3150.0 80.74554973702625
3250.0 80.74872608982358
3350.0 80.80122877112596
3450.0 80.89283875211255
3550.0 81.00215446895398
3650.0 81.10467044226546
3750.0 81.17895130075213
3870.0 81.20960579631566
4000.0 81.17736262027992
4120.0 81.12644618463831
4250.0 81.08774266341969
4370.0 81.06742648527525
4500.0 81.04298179290943
4620.0 81.03833884032238
4750.0 81.08400192611764
4870.0 81.1490486007137
5000.0 81.17287241786892
5150.0 81.03355543765586
5300.0 80.75162896728374
5450.0 80.58886218767108
5600.0 80.70679399761023
5800.0 80.92619476653216
6000.0 80.92592227641492
6150.0 80.91637518215269
6300.0 80.94504308254909
6500.0 80.97499425715353
6700.0 80.93836092291387
6900.0 80.79771581706011
7100.0 80.6976438080735
7300.0 80.65529544528177
7500.0 80.62118229254034
7750.0 80.6456557415483
8000.0 80.4897545490747
8250.0 80.31135964372392
8500.0 80.52994553536804
8750.0 80.67739765585593
9000.0 80.33217680731109
9250.0 80.21413181037146
9500.0 80.36001751395271
9750.0 80.06456399525568
10000.0 79.95218722958481
10300.0 80.35428665069846
10600.0 79.79348071347164
10900.0 79.64109572366763
11200.0 79.95624205431388
11500.0 80.0816265064553
11800.0 79.9444105976476
12200.0 80.36120118703653
12500.0 80.46962604024526
12800.0 80.14025230597515
13200.0 80.44519772193583
13600.0 79.91364766448027
14000.0 80.11907956973438
14500.0 79.91379561073875
15000.0 79.99878246659684
15500.0 79.97061741456443
16000.0 79.80336118184898
16500.0 79.35069219733423
17000.0 79.19969001969869
17500.0 78.92951242347448
18000.0 78.95103410048252
18500.0 78.90200704488618
19000.0 78.52603500246532
19500.0 78.37559974403983
