Freq,Floor Bounce,Ceiling Bounce,Front Wall Bounce,Side Wall Bounce,Rear Wall Bounce,Total Early Reflection
20.0,44.59408168207149,44.73954599225779,44.07553913835106,44.67197110925575,46.11465110819675,44.89510212238598
20.2909,45.62045550719502,45.76458982687997,45.106070226705086,45.692741522695215,47.12159650240794,45.915706489757994
20.586,46.50329543330484,46.659879002233154,45.99325600796722,46.569947920140706,47.98238025551784,46.79479675721079
20.8855,47.20716951870581,47.3399144366703,46.70216407032528,47.26813529052528,48.685815378348124,47.49370172642857
21.1893,47.76709956906602,47.926225536032675,47.2804930093573,47.85085628151607,49.246231346466416,48.066261466179284
21.4975,48.26501488257476,48.40556091380181,47.762022447281524,48.30891930110384,49.70391785800946,48.53972916636734
21.8102,48.66601488257477,48.796767494455636,48.15473795327732,48.691272838329226,50.06936144329576,48.92463023800467
22.1274,49.195521690512734,49.326491049235116,48.70038340917945,49.240700837109,50.597663393897435,49.46035397739122
22.4492,49.79057552580106,49.92168979054448,49.32746066855593,49.849022743222676,51.20146231994987,50.06562177737145
22.7758,50.44001488257477,50.57076749445564,49.99125746712643,50.46527283832923,51.823872119651284,50.704113120827415
23.1071,51.180737393768524,51.31476749445561,50.694783735830086,51.20722589815024,52.539582606739984,51.43294698487979
23.4432,51.82346771551313,51.98610104791614,51.31546066855593,51.86010842053456,53.15325069473785,52.0720049490577
23.7841,52.49146771551314,52.62333673681401,51.983460668555935,52.488229520639706,53.787795602910094,52.717826584313414
24.1301,53.09746771551316,53.19868797462202,52.58946066855593,53.07497457743396,54.34389078267479,53.30145144720943
24.4811,53.74110055134024,53.866888878880545,53.29046066855592,53.75666776751517,55.00750980509601,53.97196676608216
24.8372,54.417288931272154,54.57476749445563,54.00346066855592,54.41695935695263,55.67108983229723,54.654463471195086
25.1984,55.13546771551317,55.245561610245076,54.69263086920104,55.13009930323635,56.35575721783876,55.34895527254177
25.5649,55.766467715513144,55.86413059177981,55.29297998903961,55.74550230599418,56.93584610590686,55.95649138245072
25.9368,56.43546771551313,56.53313059177982,55.9326954305465,56.39427061067808,57.557023831125505,56.60466776262716
26.3141,57.01187997212172,57.13713059177984,56.53146066855591,56.95790523335147,58.1250745638968,57.18585025521669
26.6968,57.58753211832904,57.68909576871572,57.1434606685559,57.563961556410604,58.697430567025194,57.7680766737232
27.0851,58.20601488257476,58.304450838054336,57.76546066855592,58.166709542800064,59.27712853180229,58.37397450537917
27.4791,58.83470327824317,58.90113059177985,58.394299476773384,58.77222986209962,59.84514736419594,58.97709617252879
27.8788,59.44246771551313,59.54013059177983,59.005657860694285,59.37096169297199,60.46629595440187,59.59319494515928
28.2843,60.18373146502394,60.28139017325081,59.75465786069428,60.103961556410624,61.149776552514496,60.320181880862364
28.6957,60.73942400732663,60.837069571042534,60.334657860694264,60.66872841869191,61.69590584336528,60.87956598101782
29.1131,61.340424007326604,61.43806957104253,60.93565786069426,61.23265913930935,62.24970328537434,61.46216348589364
29.5365,61.92499491914053,62.00117354667849,61.54365786069427,61.83058425352242,62.80046209773944,62.04109549934445
29.9661,62.425014882574786,62.490130591779845,62.0438991778385,62.342584253522446,63.2681974874382,62.53358254345581
30.402,63.05201488257477,63.117130591779826,62.66851449586095,62.927865622026744,63.868245410835485,63.14582092189322
30.8442,63.58201488257477,63.64003410157797,63.19236398569795,63.43374024636928,64.32787755018809,63.65218376414255
31.2929,64.1063232013773,64.15406957104251,63.7097379532773,63.95704960462042,64.8372361049678,64.1695162854247
31.748,64.63521129888743,64.70006957104253,64.25573795327732,64.48781647244878,65.32759577762344,64.6963167780141
32.2098,65.28921129888745,65.32232729895217,64.8822646312207,65.13534662681626,65.94259786232256,65.32877185788747
32.6783,65.84308220105167,65.87494515219515,65.41365786069427,65.69273977759207,66.44267906276558,65.86667672280348
33.1536,66.44806957104252,66.48013059177983,66.04565786069426,66.29882309843315,67.02883033935889,66.47250466239653
33.6359,67.12006957104252,67.15213059177982,66.71765786069426,66.92640314655127,67.67621385454525,67.13040929107184
34.1251,67.84608209286382,67.85206957104252,67.44965786069426,67.65225521722888,68.32653778919997,67.83518771952363
34.6215,68.51501488257476,68.53015676274127,68.14565786069426,68.33800073694219,68.99863881320766,68.51485614985059
35.125,69.11901488257476,69.11901488257476,68.74965786069426,68.91393486755923,69.53278310524173,69.09489205589159
35.6359,69.7761447894647,69.7761447894647,69.41765786069426,69.53996709970048,70.14799779551743,69.7388402103981
36.1543,70.3959961318392,70.41913059177983,70.08465786069426,70.20696709970049,70.7851135795331,70.3849547620437
36.6802,70.94606957104251,70.97296709317848,70.64365786069426,70.76256126320682,71.27972614725131,70.92642135704266
37.2137,71.62006957104252,71.59984562032602,71.30899716974317,71.40671550538846,71.90660043186342,71.5733443384836
37.755,72.20606957104253,72.17301488257478,71.88665082053268,71.96311914527779,72.4197256213233,72.13383916176693
38.3041,72.64623580589148,72.61302155876143,72.32208883252638,72.39347928545254,72.84072889056073,72.56710703427363
38.8613,73.20145083805433,73.16813059177981,72.89108883252639,72.95411243765535,73.35829322006138,73.11796499081386
39.4265,73.70845083805433,73.67513059177983,73.37870945623156,73.46111243765536,73.8069264596976,73.60901031827363
40.0,74.12671211228131,74.06901488257478,73.82129154311014,73.88189555163741,74.2068468508155,74.02361612055981
40.5818,74.63964377693208,74.60637119304243,74.36565786069426,74.38611243765534,74.7025057793707,74.54223519292827
41.1721,75.17445083805433,75.14113059177983,74.90665786069425,74.92711243765537,75.20983237127906,75.07373240681096
41.771,75.88445083805432,75.84914762190833,75.57408883252639,75.61526130309538,75.84621673528792,75.75580931627263
42.3785,76.47045083805433,76.38100957316124,76.16008883252638,76.16827715757206,76.37301596864833,76.31234567455996
42.9949,77.08045673505762,77.02813059177983,76.8218071567453,76.8252691050072,76.99515129218081,76.95147658841
43.6203,77.66345083805432,77.62649654781701,77.42068790810589,77.39326297381434,77.5326085644045,77.52863049098727
44.2548,78.3267725751876,78.23284674665078,78.05186206300819,78.0509008509732,78.17329903802946,78.16844251967393
44.8985,78.93213944473675,78.85313059177982,78.67608883252636,78.64617738415265,78.72356259564536,78.76759297815302
45.5515,79.3954320841191,79.34944560187252,79.16880715674529,79.14509535093536,79.18141742352208,79.24927137111075
46.2141,79.92435140868501,79.82513059177982,79.70462538393532,79.63027672897047,79.65652864302662,79.74959668181177
46.8863,80.45340375882515,80.38642348020319,80.21090839746766,80.17257436970479,80.15777747812889,80.27789523640611
47.5683,80.89158572115126,80.82169521305295,80.68280715674528,80.59824255909881,80.58380134438434,80.71734517440667
48.2602,81.51535140868502,81.41613059177983,81.25460591759266,81.22127672897047,81.1368322279631,81.3110189800135
48.9621,81.82806947210243,81.75169521305294,81.62154162682486,81.55020961104479,81.45350512395142,81.64310086741914
49.6743,82.3457985587563,82.22491367713073,82.15278196724742,82.04773080154142,81.91227046546523,82.13922889420982
50.3968,82.76366862532494,82.66444560187252,82.55687804736233,82.48479749838484,82.3253936821044,82.56163436291493
51.1299,83.24472248142274,83.13269521305294,83.06751951693444,82.96031891632076,82.7840085786942,83.04067502194027
51.8736,83.67186285322715,83.57213419920909,83.4768071567453,83.39523455562448,83.17980487461143,83.46238276326976
52.6281,84.17868403909449,84.06969521305292,83.97646389111873,83.87387246346427,83.64703356770744,83.95292141673434
53.3936,84.55676749445561,84.4302689281233,84.38480715674528,84.26437963588235,84.01139931967568,84.33341066802998
54.1702,84.87304085089127,84.74269521305294,84.70040305336,84.60886313023978,84.3254510582629,84.65391711396508
54.9581,85.31327571927353,85.21096037795371,85.16445669953627,85.02227672897047,84.75792435018072,85.09798838926639
55.7575,85.48620627177918,85.38677800284053,85.3457569885926,85.21275966947685,84.89655384784126,85.27035138008019
56.5685,85.84245885637135,85.72526004416997,85.69602756366538,85.57583034982842,85.23551755540039,85.61991949364814
57.3914,85.90834836796452,85.79908720197913,85.78480715674529,85.68210417146138,85.31246347407479,85.70213663595942
58.2261,86.19009320791938,86.05735159465733,86.01866525807029,85.92927672897046,85.5340145583271,85.95147896399043
59.073,86.37888814619846,86.25606717420044,86.24750278076029,86.12701765278906,85.73002043524977,86.15355298936349
59.9323,86.52837324587662,86.41712762063209,86.4299983016469,86.28624028881823,85.88652378478677,86.31537830586142
60.804,86.63658982687997,86.53658982687998,86.53123973023533,86.44006963675831,85.98966282594797,86.43264949836673
61.6884,86.80758982687996,86.70758982687998,86.7184884735896,86.59649862765596,86.14310069442696,86.60089951114254
62.5857,86.93258982687998,86.83258982687998,86.83064775161553,86.70383183853407,86.22528618451734,86.7120517624124
63.496,87.03258982687997,86.93258982687998,86.93891198756198,86.81520436253243,86.33788657679678,86.81827684799084
64.4196,87.13258982687996,87.03258982687997,87.0538296439163,86.93571219202649,86.45243618343541,86.9280566035008
65.3566,87.11710009157439,86.98558982687997,87.0429157543887,86.92071107517296,86.4162900729335,86.90347165206452
66.3073,87.23258982687999,87.13258982687996,87.21029958960496,87.09509406489633,86.57404348721467,87.05553313908985
67.2717,87.20956091380181,87.10902304349334,87.15356237285508,87.03147534200764,86.51990385413367,87.01168233765654
68.2502,87.15738637115045,87.05710170707577,87.14884890212814,87.02686543400667,86.50426555196698,86.98550420668059
69.2429,87.30237461841925,87.20166830439548,87.26099021926053,87.12279376962975,86.6035829593467,87.10555645446237
70.2501,87.38831150393936,87.28767406373593,87.37511665207465,87.25249947874552,86.7067297951387,87.20923884857906
71.2719,87.38684539966879,87.29900000000002,87.39190325811519,87.26937258928935,86.73691513317932,87.22352527547994
72.3086,87.38447314724213,87.29900000000002,87.40069138321968,87.2815619366161,86.73391304745546,87.22679111966859
73.3603,87.4766963897915,87.39899999999999,87.48485448910236,87.37222188965444,86.82750684179312,87.31884904572584
74.4274,87.44054287927517,87.39899999999999,87.48485448910236,87.3737138310672,86.84049446857297,87.31400439584645
75.5099,87.43888356958846,87.39899999999999,87.48485448910236,87.37070330356913,86.83706040430832,87.31243665116584
76.6083,87.30596470207134,87.218,87.36179017597192,87.263117499436,86.73706040430831,87.18288745117307
77.7226,87.2736607274175,87.20668020870356,87.36292194122221,87.24384395268616,86.71808194874328,87.16685680393302
78.8531,87.26592185116051,87.199,87.33691355838599,87.23226589631628,86.70379630184988,87.1533501879969
80.0,87.20252592645102,87.154,87.24618537352383,87.18343346663944,86.65917213900832,87.0943570079164
81.1636,87.16592185116049,87.14110137974234,87.28485448910239,87.20460854453268,86.68038389045788,87.10049256099676
82.3442,87.16592185116049,87.099,87.25210187099994,87.15927588070905,86.66249055983302,87.07265610850793
83.5419,87.06155972559627,87.05719321423548,87.17367762425759,87.1288558212192,86.63351560163139,87.0151945713528
84.757,87.16592185116049,87.11371625344638,87.28485448910239,87.20555640615994,86.72510007663169,87.10333532981468
85.9899,87.1809218511605,87.1809218511605,87.31129079816971,87.2903726468397,86.80200648842892,87.15692189179187
87.2406,87.26592185116051,87.23258982687999,87.38485448910237,87.33927672897049,86.86740662894634,87.22181298217008
88.5096,87.29692185116049,87.29692185116049,87.42558495322093,87.41018335884989,86.95651315970672,87.28047669243598
89.797,87.26592185116051,87.27298670184668,87.46235596516483,87.41918505541588,86.9833022754595,87.28396322226702
91.1031,87.39899999999999,87.43258982687996,87.58485448910238,87.57457208890763,87.14782660223115,87.43063050605431
92.4282,87.43258982687996,87.4455284700596,87.58485448910238,87.599,87.18680360393078,87.45226563601199
93.7726,87.35258982687998,87.3859218511605,87.51899999999999,87.51899999999999,87.17249071290634,87.39167805921979
95.1366,87.43258982687996,87.46592185116049,87.599,87.63927672897047,87.27529952255017,87.48434181475973
96.5204,87.43258982687996,87.49976749445561,87.62780715674529,87.67057813683995,87.3222123113551,87.51245386317
97.9243,87.34958982687998,87.41676749445563,87.54480715674529,87.616,87.27439596843523,87.44211237942513
99.3486,87.16600000000001,87.26676749445562,87.366,87.46021547110557,87.1444164711267,87.28232855027319
100.794,87.049,87.14976749445562,87.24899999999998,87.32918335884987,87.03786179644852,87.16443562045288
102.26,87.03258982687997,87.12524439910602,87.28485448910239,87.37437204156346,87.09804514343864,87.18487386973078
103.747,87.03258982687997,87.09976749445562,87.2762762634632,87.35927588070905,87.11906448311711,87.17908719251247
105.256,87.099,87.19976749445561,87.31565061885993,87.4222930329029,87.22400761690149,87.25352709596257
106.787,87.1458612516248,87.28031708008953,87.38485448910237,87.47918335884987,87.31316017116006,87.32208898430846
108.34,87.099,87.19976749445561,87.33235435708178,87.45927588070904,87.2988309784059,87.27955889380934
109.916,87.16592185116049,87.29976749445561,87.40300460729004,87.55927588070905,87.40649222804952,87.36884227753555
111.515,87.23692185116049,87.37076749445562,87.47000000000001,87.63027588070904,87.51518227110284,87.44666676924584
113.137,87.30100092117537,87.43611539623923,87.55642449135816,87.68203025221445,87.61282687949385,87.51976914156312
114.783,87.36592185116051,87.49976749445561,87.55642449135816,87.7310491664176,87.66053067962464,87.56459141115079
116.452,87.2649218511605,87.39876749445561,87.45584746140939,87.65847773701243,87.62141584615644,87.48230679113678
118.146,87.31392185116049,87.4607643105883,87.54911004783108,87.72764597778591,87.69746638108576,87.55246659956046
119.865,87.24692185116051,87.43806682143143,87.4954314754443,87.67459588677458,87.6754938062958,87.50905765363126
121.608,87.4229218511605,87.56148891589466,87.58679508143206,87.76248958847735,87.77545700135163,87.62384934293077
123.377,87.46592185116049,87.59976749445562,87.62780715674529,87.80187684802388,87.83417881277293,87.6680410379176
125.171,87.46592185116049,87.59976749445562,87.60472369020003,87.8038363442361,87.84876183784972,87.66691859584262
126.992,87.47992185116051,87.61376749445562,87.61958386722877,87.81392097707209,87.86352478010916,87.68043951249967
128.839,87.56592185116051,87.69976749445563,87.68090711682,87.8999209770721,87.94785497659491,87.76123524659744
130.713,87.6229218511605,87.75676749445562,87.75800115155758,87.95692097707209,87.99135079565197,87.81937435145709
132.615,87.79053190177474,87.89062431361133,87.88292006750451,88.05946829130616,88.04023046877118,87.93395476908474
134.543,87.84914857461753,87.94359767421017,87.90883095191698,88.08632933798944,88.08521643275206,87.97567863032829
136.5,87.908,87.98164976622917,87.96824968761912,88.11676623276153,88.08283299118972,88.01218282374126
138.486,87.999,88.0659218511605,88.03349303157309,88.17145309948503,88.11336617679054,88.0770698052372
140.5,87.9656962163161,87.99335423646579,87.97190050785713,88.08047189736389,87.97199680723259,87.99689705935388
142.544,87.82234072397094,87.85605001004579,87.8567422413113,87.93808604427822,87.7647944152727,87.8479676349098
144.617,87.799,87.799,87.799,87.85914711008787,87.62756531864154,87.7774406564853
146.721,87.799,87.7659218511605,87.799,87.799,87.50289359702536,87.73468815752379
148.855,87.799,87.73258982687997,87.799,87.77908224130917,87.38120127604431,87.70108268676216
151.02,87.76573070894672,87.64976749445562,87.75617819750414,87.69923025494869,87.21218333598513,87.62142209375521
153.217,87.73258982687997,87.59976749445562,87.7370796506148,87.6327575451664,87.06456884885301,87.56038157251119
155.445,87.69397418100385,87.54976749445562,87.75617819750414,87.59326220923259,86.92594457951678,87.513747574852
157.706,87.6827674944556,87.48276749445562,87.75135485837171,87.54319474234183,86.78724976435403,87.46270333357235
160.0,87.72028343547436,87.52094488043524,87.81565792475705,87.57264052450181,86.69994368558228,87.483355658153
162.327,87.69992189831731,87.46721577004955,87.82772451758974,87.54108939675062,86.5887097460894,87.44598415102703
164.688,87.6442538844605,87.4003985768061,87.80545848571445,87.49253780998059,86.4456092498527,87.38263919860408
167.084,87.51465089060096,87.23927303468804,87.71348260758599,87.36423649403166,86.2384791955608,87.24292965568085
169.514,87.47682215260922,87.20556132431997,87.72152786887197,87.33939449758853,86.14825277037765,87.21060866336772
171.98,87.44328846681363,87.13944520570563,87.71360128466473,87.30297679181449,86.04754377003506,87.16531958503643
174.481,87.42263093561193,87.10206957104252,87.70875730852313,87.2798078527414,85.96197760016905,87.13444796377925
177.019,87.34013059177984,87.02251751128962,87.66478992233523,87.22431369277324,85.87430050852345,87.06615768593399
179.594,87.23898293229651,86.90673795504102,87.59713783579862,87.13509807176007,85.75284275050781,86.96923303090871
182.206,87.21876618430979,86.8780704288272,87.60498825045075,87.12598950153581,85.72702977303827,86.95532073734255
184.856,87.30613059177985,86.96930359845662,87.70174857899634,87.21359559863035,85.80290216682077,87.04395055189923
187.545,87.37819321618191,87.02718216819957,87.78875485525863,87.29288883745508,85.88215251189615,87.11929760599179
190.273,87.38080265866725,87.03213251971893,87.80505031042767,87.30279338481228,85.88472001154378,87.12707437234708
193.041,87.51414718395037,87.14434076927492,87.93206588712054,87.42679435867437,86.0104655780506,87.25172135248273
195.849,87.51328911496873,87.17293841267274,87.94932671937977,87.44070626616768,86.03967613064685,87.26845677099517
198.697,87.45451566079166,87.07506957104253,87.88359029468292,87.35428015613202,85.95861457802751,87.19131569302724
201.587,87.45088830246296,87.05279560285851,87.84308314243884,87.31551894170379,85.93246075964596,87.16474159297806
204.52,87.46913059177983,87.07221129888742,87.84908314243883,87.32151894170379,85.93729979374636,87.17580164305126
207.494,87.47125676009074,87.0739665576608,87.84433548164796,87.31457040342451,85.9058197696834,87.1693338624416
210.512,87.46906957104251,87.04440891207418,87.83610510687777,87.3111730286591,85.89092739996043,87.1582412553333
213.574,87.53906957104252,87.10750800786937,87.87913939533783,87.3235189417038,85.9019331061455,87.19990267587669
216.681,87.48306957104252,87.05150800786937,87.81974807389904,87.2675189417038,85.81233144565876,87.13814112625433
219.833,87.45177378438738,86.99526545068174,87.7572349061446,87.21023101681554,85.71250135913323,87.07924158011211
223.03,87.38691372917462,86.92748507917277,87.68772180279724,87.13952077034567,85.59443495061669,87.00378280865102
226.274,87.32745151382187,86.84197082560733,87.62080416773989,87.06334990329684,85.45182387890533,86.9220672709665
229.565,87.31147231368605,86.79983132105859,87.60052354971042,87.03684060376344,85.35411669601028,86.88619619066723
232.905,87.29464064687119,86.75826768880304,87.58560012233569,87.01726935475551,85.25465235836381,86.85287695210222
236.292,87.25771874655342,86.69913537071368,87.56569078740063,86.98735048193682,85.14826379568994,86.80756396245346
239.729,87.18029152016523,86.59480420655572,87.5196572492406,86.93464077686032,85.0039187679659,86.72851145295343
243.216,87.14944788019784,86.53168931965406,87.50566397438595,86.91865715621353,84.90420977891891,86.68941158758957
