Freq "Floor Bounce"
20.0 43.93269803427275
20.2909 44.959071859396275
20.586 45.8419117855061
20.8855 46.54578587090707
21.1893 47.105715921267276
21.4975 47.60363123477602
21.8102 48.00463123477603
22.1274 48.53413804271399
22.4492 49.12919187800232
22.7758 49.77863123477603
23.1071 50.51935374596978
23.4432 51.16208406771439
23.7841 51.830084067714395
24.1301 52.43608406771442
24.4811 53.079716903541495
24.8372 53.75590528347341
25.1984 54.47408406771443
25.5649 55.1050840677144
25.9368 55.774084067714384
26.3141 56.350496324322975
26.6968 56.92614847053029
27.0851 57.54463123477602
27.4791 58.173319630444425
27.8788 58.78108406771439
28.2843 59.522347817225196
28.6957 60.07804035952789
29.1131 60.67904035952786
29.5365 61.26361127134179
29.9661 61.76363123477604
30.402 62.39063123477602
30.8442 62.920631234776025
31.2929 63.44493955357855
31.748 63.97382765108868
32.2098 64.62782765108871
32.6783 65.18169855325293
33.1536 65.78668592324378
33.6359 66.45868592324378
34.1251 67.18469844506508
34.6215 67.85363123477602
35.125 68.45763123477602
35.6359 69.11476114166595
36.1543 69.73461248404045
36.6802 70.28468592324377
37.2137 70.95868592324378
37.755 71.54468592324379
38.3041 71.98485215809274
38.8613 72.54006719025558
39.4265 73.04706719025559
40.0 73.46532846448257
40.5818 73.97826012913333
41.1721 74.51306719025558
41.771 75.22306719025558
42.3785 75.80906719025559
42.9949 76.41907308725888
43.6203 77.00206719025557
44.2548 77.66538892738886
44.8985 78.270755796938
45.5515 78.73404843632035
46.2141 79.26296776088627
46.8863 79.7920201110264
47.5683 80.23020207335252
48.2602 80.85396776088628
48.9621 81.16668582430368
49.6743 81.68441491095756
50.3968 82.1022849775262
51.1299 82.583338833624
51.8736 83.01047920542841
52.6281 83.51730039129575
53.3936 83.89538384665687
54.1702 84.21165720309253
54.9581 84.65189207147479
55.7575 84.82482262398044
56.5685 85.18107520857261
57.3914 85.24696472016578
58.2261 85.52870956012063
59.073 85.71750449839972
59.9323 85.86698959807788
60.804 85.97520617908123
61.6884 86.14620617908122
62.5857 86.27120617908123
63.496 86.37120617908123
64.4196 86.47120617908122
65.3566 86.45571644377564
66.3073 86.57120617908124
67.2717 86.54817726600307
68.2502 86.49600272335171
69.2429 86.6409909706205
70.2501 86.72692785614062
71.2719 86.72546175187004
72.3086 86.72308949944339
73.3603 86.81531274199276
74.4274 86.77915923147643
75.5099 86.77749992178971
76.6083 86.64458105427259
77.7226 86.61227707961875
78.8531 86.60453820336177
80.0 86.54114227865227
81.1636 86.50453820336175
82.3442 86.50453820336175
83.5419 86.40017607779752
84.757 86.50453820336175
85.9899 86.51953820336176
87.2406 86.60453820336177
88.5096 86.63553820336175
89.797 86.60453820336177
91.1031 86.73761635220124
92.4282 86.77120617908122
93.7726 86.69120617908123
95.1366 86.77120617908122
96.5204 86.77120617908122
97.9243 86.68820617908123
99.3486 86.50461635220127
100.794 86.38761635220126
102.26 86.37120617908123
103.747 86.37120617908123
105.256 86.43761635220126
106.787 86.48447760382605
108.34 86.43761635220126
109.916 86.50453820336175
111.515 86.57553820336175
113.137 86.63961727337663
114.783 86.70453820336176
116.452 86.60353820336175
118.146 86.65253820336174
119.865 86.58553820336176
121.608 86.76153820336175
123.377 86.80453820336174
125.171 86.80453820336174
126.992 86.81853820336177
128.839 86.90453820336177
130.713 86.96153820336175
132.615 87.129148253976
134.543 87.18776492681879
136.5 87.24661635220126
138.486 87.33761635220125
140.5 87.30431256851736
142.544 87.1609570761722
144.617 87.13761635220126
146.721 87.13761635220126
148.855 87.13761635220126
151.02 87.10434706114798
153.217 87.07120617908123
155.445 87.03259053320511
157.706 87.02138384665686
160.0 87.05889978767561
162.327 87.03853825051857
164.688 86.98287023666175
167.084 86.85326724280222
169.514 86.81543850481047
171.98 86.78190481901488
174.481 86.76124728781319
177.019 86.6787469439811
179.594 86.57759928449777
182.206 86.55738253651104
184.856 86.6447469439811
187.545 86.71680956838317
190.273 86.7194190108685
193.041 86.85276353615163
195.849 86.85190546716998
198.697 86.79313201299291
201.587 86.78950465466421
204.52 86.80774694398109
207.494 86.809873112292
210.512 86.80768592324377
213.574 86.87768592324377
216.681 86.82168592324378
219.833 86.79039013658864
223.03 86.72553008137588
226.274 86.66606786602313
229.565 86.65008866588731
232.905 86.63325699907244
236.292 86.59633509875468
239.729 86.51890787236648
243.216 86.4880642323991
246.754 86.36329936248143
250.343 86.26097329008192
253.984 86.16525436903753
257.678 86.11218109836975
261.426 86.01370810669347
265.229 86.02611633182437
269.087 86.01788813535744
273.001 86.04988813535743
276.972 86.04988813535743
281.0 86.10619330615503
285.088 86.0988160255243
289.234 86.17610048003908
293.441 86.25633708358153
297.709 86.34710542300286
302.04 86.4141334911391
306.433 86.4198160255243
310.89 86.4198160255243
315.412 86.4198160255243
320.0 86.4198160255243
324.655 86.4198160255243
329.377 86.35127103896336
334.168 86.2773005822032
339.028 86.1923468882923
343.959 86.11356226644779
348.962 86.09022588422344
354.038 86.03073907304078
359.188 85.973440581051
364.412 85.89375108711987
369.713 85.83422026508866
375.09 85.7700989115795
380.546 85.72948309671649
386.081 85.72248309671652
391.697 85.62195093655625
397.394 85.51869471714657
403.175 85.41464054785979
409.039 85.31595867710668
414.989 85.263799859605
421.025 85.1998768511176
427.149 85.11543862319836
433.362 85.04060884637721
439.665 84.9635876905859
446.06 84.96316695413127
452.548 84.93796336242441
459.131 84.85387741814891
465.809 84.81188501807023
472.584 84.77307898354807
479.458 84.81272331925985
486.432 84.88975579458977
493.507 85.00801417524335
500.686 85.18701258539225
507.968 85.40839024636547
515.357 85.65041907559663
522.853 85.92503248966379
530.458 86.1036525773225
538.174 86.18219140657634
546.002 86.26754622540501
553.943 86.29627359237996
562.001 86.33734848983201
570.175 86.35355019240782
578.469 86.37495690015386
586.883 86.38263981138628
595.419 86.40308090181047
604.08 86.40970610719611
612.866 86.36010032748703
621.78 86.26310393173834
630.824 86.13503374101647
640.0 86.00761167934836
649.309 85.88477363296157
658.753 85.80187516005334
668.335 85.72159140947348
678.056 85.65993037368833
687.919 85.56108630863487
697.925 85.4387566905532
708.077 85.34297638736791
718.376 85.3183799012248
728.825 85.29846496414417
739.426 85.26575058495432
750.181 85.30087589396523
761.093 85.19363100277229
772.163 85.00873943241423
783.394 84.84865860494179
794.789 84.75407779275052
806.349 84.79524066657804
818.078 84.99300148427142
829.977 85.21869744821724
842.05 85.35701982014616
854.298 85.34895732278397
866.724 85.2561202071544
879.33 85.1357064218904
892.12 85.03001794033315
905.097 84.87675932350886
918.262 84.65079065883684
931.618 84.32739743579349
945.169 83.93872117269086
958.917 83.60712146010492
972.864 83.38161776369975
987.015 83.21502113504596
1001.37 83.00072307335238
1015.94 82.71690398894701
1030.71 82.5200280157231
1045.71 82.50156318693406
1060.92 82.54407020911887
1076.35 82.4478404442642
1092.0 82.22375386333422
1107.89 82.02243318659656
1124.0 81.8581427532158
1140.35 81.57858865591439
1156.94 81.00868457370511
1173.77 80.34925214499549
1190.84 80.05175881027017
1208.16 80.1288190339557
1225.73 80.21069111997085
1243.56 80.1228459633905
1261.65 80.21215062016744
1280.0 80.45635873800659
1298.62 80.48677068098205
1317.51 80.11229677545317
1336.67 79.62501763603917
1356.11 79.34589349440434
1375.84 79.01532895133306
1395.85 78.36661113905002
1416.15 77.80755472118311
1436.75 77.80334882218825
1457.65 77.93014639263822
1478.85 77.84964007016724
1500.36 77.82760839075543
1522.19 77.89982514078535
1544.33 77.80164181821905
1566.79 77.55334399462906
1589.58 77.34769184388203
1612.7 77.11330865718585
1636.16 76.89114728081495
1659.95 76.88266558525325
1684.1 76.74849949967093
1708.6 76.31052330517302
1733.45 75.79506073215676
1758.66 75.58098468532214
1784.24 75.78612929723894
1810.19 76.03880229541589
1836.52 75.8865094341117
1863.24 75.62592093605453
1890.34 75.35107381623658
1917.83 74.79317326679256
1945.73 74.62560574889349
1974.03 74.9414258655109
2002.74 74.94307549653628
2031.87 75.02268589480427
2061.43 74.97866453527297
2091.41 74.24602289185525
2121.83 73.66705669540481
2152.69 73.30731041627067
2184.01 73.21867367381894
2215.77 72.90204659918025
2248.0 72.28071235373667
2280.7 72.8364771015313
2313.87 72.79615928621637
2347.53 72.16214462784312
2381.68 71.8804347368035
2416.32 72.57366816598433
2451.46 72.9992871098349
2487.12 73.1448213395485
2523.3 73.33441278387215
2560.0 73.33191967838252
2597.24 73.11758667057197
2635.01 73.8670394938821
2673.34 74.56848356758299
2712.23 75.4810458237635
2751.68 76.01380683760432
2791.7 76.44166806580903
2832.31 76.47569168162066
2873.5 77.62717537876017
2915.3 78.35086391033839
2957.7 79.30984255731437
3000.72 79.54518986297849
3044.37 80.20971433817513
3088.65 80.64483229284913
3133.58 81.46078005780747
3179.16 82.14941794571185
3225.4 82.51027944681958
3272.31 82.8971645972278
3319.91 83.39885104846756
3368.2 83.99177296467431
3417.19 84.56142647566178
3466.89 84.82994491063447
3517.32 85.1702295358461
3568.48 85.53332108721044
3620.39 85.94990655530891
3673.05 86.25230674991064
3726.47 86.41749648181792
3780.67 86.48458504497758
3835.67 86.70590390126237
3891.46 86.88605831586533
3948.06 86.76797456942167
4005.49 86.75623954326834
4063.75 86.96145587851359
4122.86 87.15838838527857
4182.82 87.17742641029166
4243.66 87.33937035550643
4305.39 87.50223298274183
4368.01 87.57897606185541
4431.55 87.61211798054087
4496.01 87.68433833668898
4561.4 87.67523917203273
4627.75 87.62107944239804
4695.06 87.49756460814643
4763.35 87.38207984396664
4832.64 87.2632059041523
4902.93 87.1668505962389
4974.24 87.0094771161542
5046.6 87.04252334518648
5120.0 87.03054249162878
5194.47 86.93519670202039
5270.03 86.97534314030959
5346.68 86.91191243458994
5424.45 86.70034480832747
5503.35 86.46916740877269
5583.4 86.26254863409993
5664.61 85.91568119563823
5747.01 85.84465801200163
5830.6 85.77651419132789
5915.41 85.63237147447876
6001.45 85.77508691807984
6088.74 85.70801989387034
6177.3 85.80630593215861
6267.15 85.7346366118775
6358.31 85.72062629219528
6450.8 85.73898788073168
6544.62 85.74981940976339
6639.82 85.81777721340077
6736.4 85.90272763389633
6834.38 85.95549264676002
6933.79 85.92381621702806
7034.64 85.86844453232007
7136.96 85.80317315805121
7240.77 85.79787520543879
7346.09 85.75778577219332
7452.94 85.7307551390021
7561.35 85.67237000981186
7671.33 85.58095024214403
7782.91 85.45617962223918
7896.12 85.33463978369106
8010.97 85.27165467943985
8127.49 85.24332206023537
8245.71 85.32064653514173
8365.65 85.33170226902949
8487.33 85.241472700438
8610.78 85.11776963761669
8736.03 84.99352581937545
8863.09 84.85548908162757
8992.01 84.79472186361214
9122.8 84.666919385207
9255.5 84.52848763789075
9390.12 84.20255965906308
9526.7 83.95541443893678
9665.27 83.86311323148071
9805.86 83.89790591198806
9948.49 84.01104239129928
10093.2 84.04130709170731
10240.0 83.8964444046845
10388.9 83.77662667344615
10540.1 83.74692527107983
10693.4 83.77731033650635
10848.9 83.80320787172523
11006.7 83.71413254821773
11166.8 83.56674441852273
11329.2 83.39835611850373
11494.0 83.2807707780539
11661.2 83.16330598160697
11830.8 83.08590149815673
12002.9 83.08744123637412
12177.5 83.13184377160918
12354.6 83.04156355084777
12534.3 82.7101009581151
12716.6 82.43752822802107
12901.6 82.48778466984076
13089.2 82.80574556118273
13279.6 83.11921064263584
13472.8 83.35174200085306
13668.8 83.59734029993474
13867.6 83.79948813156933
14069.3 83.8464447931379
14273.9 83.90274377183529
14481.5 84.0805415942914
14692.2 84.24984529351325
14905.9 84.26558550671653
15122.7 84.30163688479706
15342.7 84.3699340625373
15565.8 84.33664176723123
15792.2 84.07960757019939
16021.9 83.70756582883648
16255.0 83.33070020372607
16491.4 82.92575753527157
16731.3 82.58145738853659
16974.7 82.25445977327314
17221.6 81.79671828528548
17472.1 81.25052275626086
17726.2 80.82662055879
17984.0 80.41754299080871
18245.6 80.01057260408707
18511.0 79.70666349561235
18780.2 79.47700713513417
19053.4 79.15682213960913
19330.5 78.72233714892236
19611.7 78.01915394759507
19897.0 77.28234781752622
