Freq "Rear Wall Bounce"
20.0 46.11465110819675
20.2909 47.12159650240794
20.586 47.98238025551784
20.8855 48.685815378348124
21.1893 49.246231346466416
21.4975 49.70391785800946
21.8102 50.06936144329576
22.1274 50.597663393897435
22.4492 51.20146231994987
22.7758 51.823872119651284
23.1071 52.539582606739984
23.4432 53.15325069473785
23.7841 53.787795602910094
24.1301 54.34389078267479
24.4811 55.00750980509601
24.8372 55.67108983229723
25.1984 56.35575721783876
25.5649 56.93584610590686
25.9368 57.557023831125505
26.3141 58.1250745638968
26.6968 58.697430567025194
27.0851 59.27712853180229
27.4791 59.84514736419594
27.8788 60.46629595440187
28.2843 61.149776552514524
28.6957 61.69590584336528
29.1131 62.24970328537434
29.5365 62.80046209773944
29.9661 63.2681974874382
30.402 63.868245410835485
30.8442 64.32787755018809
31.2929 64.8372361049678
31.748 65.32759577762344
32.2098 65.94259786232256
32.6783 66.44267906276558
33.1536 67.02883033935892
33.6359 67.67621385454525
34.1251 68.32653778919997
34.6215 68.99863881320766
35.125 69.53278310524173
35.6359 70.14799779551743
36.1543 70.7851135795331
36.6802 71.27972614725131
37.2137 71.90660043186342
37.755 72.4197256213233
38.3041 72.84072889056073
38.8613 73.35829322006138
39.4265 73.8069264596976
40.0 74.2068468508155
40.5818 74.7025057793707
41.1721 75.20983237127906
41.771 75.84621673528792
42.3785 76.37301596864833
42.9949 76.99515129218081
43.6203 77.5326085644045
44.2548 78.17329903802946
44.8985 78.72356259564536
45.5515 79.18141742352208
46.2141 79.65652864302662
46.8863 80.15777747812889
47.5683 80.58380134438434
48.2602 81.1368322279631
48.9621 81.45350512395142
49.6743 81.91227046546523
50.3968 82.3253936821044
51.1299 82.7840085786942
51.8736 83.17980487461143
52.6281 83.64703356770744
53.3936 84.01139931967569
54.1702 84.3254510582629
54.9581 84.75792435018072
55.7575 84.89655384784126
56.5685 85.23551755540039
57.3914 85.31246347407479
58.2261 85.5340145583271
59.073 85.73002043524977
59.9323 85.88652378478677
60.804 85.98966282594797
61.6884 86.14310069442696
62.5857 86.22528618451734
63.496 86.33788657679678
64.4196 86.45243618343541
65.3566 86.4162900729335
66.3073 86.57404348721467
67.2717 86.51990385413367
68.2502 86.50426555196698
69.2429 86.6035829593467
70.2501 86.7067297951387
71.2719 86.73691513317932
72.3086 86.73391304745546
73.3603 86.82750684179312
74.4274 86.84049446857297
75.5099 86.83706040430832
76.6083 86.73706040430831
77.7226 86.71808194874328
78.8531 86.70379630184988
80.0 86.65917213900832
81.1636 86.68038389045788
82.3442 86.66249055983302
83.5419 86.63351560163139
84.757 86.72510007663169
85.9899 86.80200648842892
87.2406 86.86740662894634
88.5096 86.95651315970672
89.797 86.9833022754595
91.1031 87.14782660223115
92.4282 87.18680360393078
93.7726 87.17249071290634
95.1366 87.27529952255017
96.5204 87.3222123113551
97.9243 87.27439596843523
99.3486 87.14441647112669
100.794 87.03786179644852
102.26 87.09804514343864
103.747 87.11906448311711
105.256 87.22400761690149
106.787 87.31316017116008
108.34 87.2988309784059
109.916 87.40649222804952
111.515 87.51518227110284
113.137 87.61282687949385
114.783 87.66053067962464
116.452 87.62141584615644
118.146 87.69746638108576
119.865 87.6754938062958
121.608 87.77545700135163
123.377 87.83417881277293
125.171 87.84876183784972
126.992 87.86352478010916
128.839 87.94785497659491
130.713 87.99135079565197
132.615 88.04023046877118
134.543 88.08521643275206
136.5 88.08283299118972
138.486 88.11336617679054
140.5 87.97199680723259
142.544 87.7647944152727
144.617 87.62756531864154
146.721 87.50289359702536
148.855 87.38120127604431
151.02 87.21218333598513
153.217 87.06456884885301
155.445 86.92594457951678
157.706 86.78724976435403
160.0 86.69994368558228
162.327 86.5887097460894
164.688 86.4456092498527
167.084 86.2384791955608
169.514 86.14825277037765
171.98 86.04754377003506
174.481 85.96197760016905
177.019 85.87430050852345
179.594 85.75284275050781
182.206 85.72702977303827
184.856 85.80290216682077
187.545 85.88215251189615
190.273 85.88472001154378
193.041 86.0104655780506
195.849 86.03967613064685
198.697 85.95861457802751
201.587 85.93246075964596
204.52 85.93729979374636
207.494 85.9058197696834
210.512 85.89092739996043
213.574 85.9019331061455
216.681 85.81233144565876
219.833 85.71250135913323
223.03 85.5944349506167
226.274 85.45182387890533
229.565 85.35411669601028
232.905 85.25465235836381
236.292 85.14826379568994
239.729 85.0039187679659
243.216 84.90420977891891
246.754 84.72588439539321
250.343 84.59433825052425
253.984 84.48070739315959
257.678 84.4279166521783
261.426 84.38308153218377
265.229 84.40260127968249
269.087 84.42626962813212
273.001 84.49966260304886
276.972 84.53940413374094
281.0 84.58533176809782
285.088 84.59415820096123
289.234 84.62196843325607
293.441 84.6581647289215
297.709 84.6713651121854
302.04 84.61550906403137
306.433 84.50187796379657
310.89 84.35272331546791
315.412 84.17942292126132
320.0 84.0180015890238
324.655 83.83513181355328
329.377 83.61437685277592
334.168 83.37517657618763
339.028 83.15432336663213
343.959 82.97652797445103
348.962 82.89397978011358
354.038 82.83772841287613
359.188 82.78670459897741
364.412 82.76012188937806
369.713 82.77065172662917
375.09 82.79404527465213
380.546 82.8393401277152
386.081 82.88889505610871
391.697 82.86407192010702
397.394 82.81933006539599
403.175 82.77406588953737
409.039 82.7081905486384
414.989 82.66925852755773
421.025 82.62200432046676
427.149 82.52263892241756
433.362 82.42858778222113
439.665 82.33381012463616
446.06 82.27507005396635
452.548 82.17072975935771
459.131 82.03226976659734
465.809 81.90303375145417
472.584 81.79162160779141
479.458 81.75404828419599
486.432 81.77539350068126
493.507 81.83985820259888
500.686 81.99620551799232
507.968 82.22662564689264
515.357 82.51247336629649
522.853 82.85229020693532
530.458 83.12615098727522
538.174 83.31452697870516
546.002 83.48471129853492
553.943 83.61219433786415
562.001 83.70574594371907
570.175 83.73678842299259
578.469 83.75661749647718
586.883 83.74392948798042
595.419 83.71205493114941
604.08 83.69993298066815
612.866 83.67444890979586
621.78 83.6424713044816
630.824 83.58434956259758
640.0 83.51950184034065
649.309 83.43892110358654
658.753 83.32787227464519
668.335 83.20539867416873
678.056 83.0868028142191
687.919 82.96099588266138
697.925 82.83163771917967
708.077 82.7615807998307
718.376 82.69173401599623
728.825 82.61174357420397
739.426 82.52547075930725
750.181 82.4774643651095
761.093 82.37857597492633
772.163 82.26763053502704
783.394 82.2102167182432
794.789 82.13056521088744
806.349 82.06220500865841
818.078 82.00287716859437
829.977 81.95314985262517
842.05 81.92090700419338
854.298 81.91941991872442
866.724 81.94773378341976
879.33 82.0173528117417
892.12 82.07257149075153
905.097 82.02272675545156
918.262 81.88581397118685
931.618 81.64842105686586
945.169 81.30444301284062
958.917 80.9574199699772
972.864 80.68449265646385
987.015 80.53087871007077
1001.37 80.42333210859067
1015.94 80.2318742035324
1030.71 79.84815264031458
1045.71 79.2696427267592
1060.92 78.68829141562263
1076.35 78.40939054449773
1092.0 78.54819254536089
1107.89 78.89960799675389
1124.0 79.15696125721466
1140.35 79.2266645804812
1156.94 79.17304168099894
1173.77 79.1354888033089
1190.84 79.12464029778563
1208.16 79.06327624622384
1225.73 78.90299128030114
1243.56 78.83226552865794
1261.65 78.88400872503843
1280.0 78.916121574213
1298.62 78.80069800541251
1317.51 78.55614496536211
1336.67 78.39715308118625
1356.11 78.37064721003333
1375.84 78.3705690786953
1395.85 78.29853680104857
1416.15 78.23245672731805
1436.75 78.25025418145307
1457.65 78.2874392368506
1478.85 78.21882330674633
1500.36 77.9951568121757
1522.19 77.66513848113436
1544.33 77.39154492189724
1566.79 77.1797785166031
1589.58 76.93724811372154
1612.7 76.65985374291223
1636.16 76.5743204538167
1659.95 76.65888465257612
1684.1 76.61063177246233
1708.6 76.38394591736524
1733.45 76.24081381452993
1758.66 76.19957553809334
1784.24 75.98361733540285
1810.19 75.63751190530174
1836.52 75.41938923812923
1863.24 75.2887448417649
1890.34 75.17947426208733
1917.83 75.27684143826886
1945.73 75.40895773430826
1974.03 75.30239166659767
2002.74 75.10370201490208
2031.87 75.0359301181364
2061.43 75.0805942406891
2091.41 75.01247929493059
2121.83 74.73859929489711
2152.69 74.78097361687216
2184.01 75.24400691495562
2215.77 75.6374043781627
2248.0 75.68981545941358
2280.7 75.62902563957765
2313.87 75.6058468974889
2347.53 75.58391249446329
2381.68 75.77726016990026
2416.32 76.1018849364894
2451.46 76.13644441292176
2487.12 76.01505631495979
2523.3 76.01206963201668
2560.0 76.0158248430793
2597.24 76.0797523383199
2635.01 76.1705104979887
2673.34 76.28939135392223
2712.23 76.36531574182433
2751.68 76.58027792787959
2791.7 76.60699136899002
2832.31 76.71359482454822
2873.5 76.62966934816696
2915.3 76.64085833400907
2957.7 76.83618615008416
3000.72 77.05910757441502
3044.37 76.90756597884625
3088.65 76.87903415230666
3133.58 76.91050021885438
3179.16 77.03008180177387
3225.4 76.96080452774855
3272.31 76.8707870893016
3319.91 76.95581561888804
3368.2 76.93442726914714
3417.19 76.99847777834559
3466.89 76.92835091257376
3517.32 76.91880405746356
3568.48 76.86135242819303
3620.39 76.81202721219732
3673.05 76.83638406788856
3726.47 76.6001419209314
3780.67 76.41291006061174
3835.67 76.50036080649397
3891.46 76.57788376360715
3948.06 76.39194681737966
4005.49 76.22667408571684
4063.75 76.31145930304402
4122.86 76.23862336045565
4182.82 75.9712734937408
4243.66 75.8218454440583
4305.39 75.6683128119428
4368.01 75.49920100739568
4431.55 75.28459643812978
4496.01 75.22688319604332
4561.4 75.15137208658673
4627.75 74.98499224490739
4695.06 74.80865086169575
4763.35 74.66866090439521
4832.64 74.59050263267044
4902.93 74.5189487497355
4974.24 74.17959719154484
5046.6 73.84494130378029
5120.0 73.66940873927255
5194.47 73.3349468783564
5270.03 73.06792441393016
5346.68 72.72539967192121
5424.45 72.3192492248554
5503.35 72.05681134888711
5583.4 71.70290445943482
5664.61 71.04521110711093
5747.01 70.62541831797795
5830.6 70.5339878230753
5915.41 70.6423508364466
6001.45 70.9651427389502
6088.74 71.16878519953947
6177.3 71.41314282136516
6267.15 71.41242444916547
6358.31 71.27023353102186
6450.8 71.08739167850904
6544.62 71.00651126914163
6639.82 70.91562929146686
6736.4 70.87964876102279
6834.38 70.6712607873892
6933.79 70.21290377082244
7034.64 69.67474895013972
7136.96 69.17848879366295
7240.77 68.96736279165695
7346.09 68.62605866685851
7452.94 68.22151230149633
7561.35 67.69795901220162
7671.33 67.28756032277619
7782.91 66.8678385471677
7896.12 66.59652874486987
8010.97 66.37306814593776
8127.49 66.32978815185281
8245.71 66.38033121060806
8365.65 66.30169859814399
8487.33 65.99057349319031
8610.78 65.43890011957286
8736.03 64.79431114988814
8863.09 64.2229991865813
8992.01 64.19846823423696
9122.8 64.39439029610251
9255.5 64.82614397422778
9390.12 64.93962673680748
9526.7 65.10110629596659
9665.27 65.15812285492673
9805.86 65.28795979708825
9948.49 65.31336455033295
10093.2 65.17090478285674
10240.0 64.99634285955493
10388.9 64.9334399533388
10540.1 64.9777172127052
10693.4 64.8301095551365
10848.9 64.4740879339901
11006.7 64.17923711761982
11166.8 63.958385960472114
11329.2 63.89339081989796
11494.0 64.0244183602983
11661.2 64.23554758753984
11830.8 64.43875987360603
12002.9 64.39047565647046
12177.5 64.00568362999813
12354.6 63.32602305042808
12534.3 62.63039729647362
12716.6 62.1214627528952
12901.6 61.840958819756295
13089.2 61.684155771072895
13279.6 61.462791380582345
13472.8 61.05082855523922
13668.8 60.564798883375616
13867.6 59.783512469156605
14069.3 58.901147257017286
14273.9 57.83259661672368
14481.5 57.24820732967076
14692.2 57.60599871759554
14905.9 58.132650241795076
15122.7 58.528516054305314
15342.7 59.051626964006104
15565.8 59.56123760556285
15792.2 59.749304538518416
16021.9 59.80250037914057
16255.0 59.85830535642474
16491.4 59.81939082105039
16731.3 59.746090704629935
16974.7 59.662721752385934
17221.6 59.3004224945537
17472.1 58.70795934337194
17726.2 58.21468238640962
17984.0 57.66262894767401
18245.6 56.97146638051588
18511.0 56.48142252510074
18780.2 56.123029654529276
19053.4 55.39219423399969
19330.5 54.58307026572875
19611.7 53.45168408889701
19897.0 52.310874854755
