Freq "Rear Wall Bounce"
20.5078 55.078047954252014
21.9727 53.92951726958978
23.4375 55.97475376692677
24.9023 56.970508714406435
26.3672 58.412508169156695
27.832 59.99574594728068
29.2969 61.59287689843654
30.7617 63.2274443238902
32.2266 64.67276333364795
33.6914 66.5211717924804
35.1562 68.23868325071294
36.6211 69.9150553033017
38.0859 71.56920449767273
39.5508 73.20929100364563
41.0156 74.78106849104181
42.4805 76.22628712075766
43.9453 77.49563073102752
45.4102 78.60040922761017
46.875 79.410842809778
48.3398 79.95722000646997
51.2695 80.60147572274937
52.7344 80.69064505209896
54.1992 80.78170237303895
55.6641 80.8184254785164
58.5938 80.8983507357166
60.0586 80.99142061329411
62.9883 81.17639411749508
64.4531 81.17296951943938
67.3828 81.27105029236586
68.8477 81.3701186738513
71.7773 81.70838587618593
74.707 81.88920517049193
77.6367 82.0637665355558
79.1016 82.21306632851272
82.0312 82.47000765498969
84.9609 82.55153298748729
87.8906 82.72134049043164
90.8203 82.91937658362812
95.2148 83.146023537221
98.1445 83.23085912124473
101.074 83.33480491796418
105.469 83.36341181100822
108.398 83.41252257043851
112.793 83.56147320922952
117.188 83.49856497933536
120.117 83.53883809384013
124.512 83.5851562968381
128.906 83.5951591501809
133.301 83.56403737793254
139.16 83.43706296058704
143.555 83.31768050757739
147.949 83.1935123791626
153.809 83.03838001147182
159.668 82.99814192545976
165.527 83.1560764750156
171.387 83.02877167444535
177.246 82.67880796793672
183.105 82.60088615902504
188.965 82.42077894649262
196.289 82.35789038458651
203.613 82.07546104660229
210.938 82.02128518108037
218.262 82.02316538486554
225.586 82.05670903650103
232.91 81.77664090285569
241.699 81.5460509844903
250.488 81.41765455295729
259.277 81.53833071332767
268.066 81.5200679773402
276.855 81.18301550642586
287.109 81.13356757728366
297.363 81.32689046794954
307.617 81.0820404720997
319.336 80.96248028830946
329.59 80.63735504350657
341.309 80.8505778135706
353.027 80.42124157296857
366.211 80.24607082754096
379.395 80.18759001868142
392.578 80.57647311177068
405.762 80.50203136468394
420.41 80.03125943647532
435.059 79.91678532876145
451.172 80.26544400158207
465.82 79.80803994420589
483.398 80.06472296821438
499.512 80.1022191731744
517.09 80.23689570004754
536.133 80.17666737258178
555.176 79.58761098124427
574.219 79.80816939847477
594.727 80.33538142318264
615.234 79.92089085766781
637.207 80.21184909301861
659.18 79.64426777167962
682.617 79.64181605450588
707.52 79.25994881403757
732.422 78.76553829832244
757.324 78.46869648775001
785.156 78.84563669586993
811.523 78.4320919351705
840.82 78.38080750136433
870.117 77.95988454932002
900.879 78.58753363647163
933.105 78.0292101249002
965.332 77.38900230380283
1000.49 77.28662257409243
1035.64 75.90877087069151
1072.27 75.3424512906788
1108.89 73.73332335345115
1148.44 72.99968271256371
1189.45 73.04727052633771
1230.47 73.50438812997936
1274.41 74.70102507752318
1319.82 74.7623152474153
1366.7 75.38680596287706
1413.57 75.7517964839116
1463.38 75.55426997574945
1516.11 73.96945464349362
1568.85 73.42662787077285
1624.51 72.14314267726917
1681.64 72.70658995760849
1741.7 73.2043764911925
1803.22 72.84706905711462
1866.21 72.5970096521223
1932.13 71.52905648133529
1999.51 70.62431380237494
2069.82 69.58673170155578
2143.07 69.4924199048839
2219.24 68.35582546932784
2296.88 67.36721124605236
2378.91 66.60427008391356
2462.4 66.43106749858121
2548.83 67.12606524161582
2639.65 66.9426961042764
2731.93 65.15197614183728
2828.61 65.10530726811095
2928.22 65.417251049841
3030.76 65.49523745168386
3137.7 65.42420069414429
3249.02 64.96066100381911
3363.28 64.26627027496292
3481.93 64.53709646147222
3604.98 65.26815163629423
3732.42 65.38102982683648
3864.26 65.082759051559
4000.49 64.77596647238362
4141.11 64.65028554712777
4287.6 65.6358388584152
4438.48 65.59404221047086
4595.21 64.41487995458334
4756.35 64.24616950182161
4924.8 63.33595573019832
5097.66 64.2812711170177
5277.83 64.00857156432889
5463.87 64.58469278058124
5657.23 63.87503009142695
5856.45 63.01354899038276
6062.99 63.00811953073685
6276.86 62.30322798925836
6498.05 62.621471256994894
6726.56 63.23819930967929
6963.87 62.75859469619479
7209.96 62.32358267636785
7464.84 62.730768304789876
7727.05 63.106993697001855
7999.51 62.78275360286666
8282.23 61.323283077862115
8573.73 60.51772491106891
8876.95 60.14385034816215
9188.96 60.052547227297964
9514.16 58.93202693457815
9849.61 59.41758767527196
10196.8 58.94927228524955
10555.7 59.78779599377566
10927.7 58.41284824667261
11313.0 57.92857816652821
11712.9 57.1349912368253
12126.0 57.464292569294685
12553.7 56.78225043801257
12996.1 57.79432168092026
13454.6 57.24268858820105
13929.2 57.87396222524134
14419.9 57.63721046174041
14928.2 56.78778609068189
15455.6 56.48628997836687
16000.5 55.984623594715174
16564.5 55.56012521214495
17148.9 55.47774881486285
17752.4 55.34786493856427
18379.4 55.12785822104618
19026.9 54.77008976805428
19697.8 54.92253889336328
19999.5 57.004413600749245
