Freq "Early Reflections"
22.4 -22.783806263652266
23.0 -20.351712555478983
23.6 -17.951712555478977
24.0 -15.553771241759122
25.0 -13.166180936780378
25.8 -10.819724281654075
26.5 -8.455830904381273
27.2 -6.153771241759145
28.0 -3.827047847384378
29.0 -1.4769644538422
30.0 0.8441690956187387
30.7 3.148335385856271
31.5 5.515783793022777
32.5 7.866820229753287
33.5 10.240046837641259
34.5 12.577432921549487
35.5 14.940046837641276
36.5 17.262671643235635
37.5 19.564770311921407
38.7 21.816867690154893
40.0 24.01375686210268
41.2 26.1545050941139
42.5 28.254505094113867
43.7 30.263582090906212
45.0 32.237550451884616
46.2 34.20570557759562
47.5 36.10372019279784
48.7 37.93635585344096
50.0 39.822395500950805
51.5 41.62239550095079
53.0 43.4223955009508
54.5 45.18904798675932
56.0 46.90783380303786
58.0 48.585014583753164
60.0 50.22037165420525
61.5 51.818346863891335
63.0 53.359353811105294
65.0 54.86997694189964
67.0 56.27402432843485
69.0 57.63286002293931
71.0 58.91826074775763
73.0 60.12035822511025
75.0 61.24354807744605
77.5 62.26210012114676
80.0 63.17020358409938
82.5 64.00562556587455
85.0 64.7327309777535
87.5 65.34603017477632
90.0 65.85612611300253
92.5 66.33024823142465
95.0 66.71944144770124
97.5 67.053489972966
100.0 67.31918181889917
103.0 67.52404982316541
106.0 67.66169095576909
109.0 67.80250540243539
112.0 67.90652788616543
115.0 67.95841194088807
118.0 67.99709566748545
122.0 67.99740357990395
125.0 67.99740142786558
128.0 67.97962051713861
132.0 67.97816148652328
136.0 67.96897449590429
140.0 67.94964112500539
145.0 67.94538776717782
150.0 67.9363439283315
155.0 67.92297853614139
160.0 67.89613228124925
165.0 67.89616670242124
170.0 67.89750928937212
175.0 67.8931212729615
180.0 67.8646927582525
185.0 67.81457077702649
190.0 67.74756670642218
195.0 67.65253770149971
200.0 67.52324349533342
206.0 67.34582768809189
212.0 67.14239350975933
218.0 66.92084838041946
224.0 66.68452264271305
230.0 66.47553692192385
236.0 66.29163941674257
240.0 66.1235259452861
250.0 66.00776132145116
258.0 65.95797299630514
265.0 65.95843401044628
272.0 65.97694823662083
280.0 66.04056467092161
290.0 66.10161828027991
300.0 66.15832473089762
307.0 66.19617284765586
315.0 66.17202899607437
325.0 66.11859681432303
335.0 66.0369543236924
345.0 65.89445903210971
355.0 65.72505712525934
365.0 65.5884102409716
375.0 65.45056004977008
387.0 65.30981106495288
400.0 65.1908626856668
412.0 65.15508253945728
425.0 65.1270890284038
437.0 65.12245941384414
450.0 65.17739225081934
462.0 65.26953839979596
475.0 65.33756145233313
487.0 65.43138809010796
500.0 65.5205425819869
515.0 65.58630180330776
530.0 65.66313478276075
545.0 65.70799974354459
560.0 65.75399541669294
580.0 65.77700615799706
600.0 65.78521321730742
615.0 65.8129911257687
630.0 65.79711791246585
650.0 65.7845054466031
670.0 65.75180063809212
690.0 65.70728212321204
710.0 65.68733133363284
730.0 65.67378244095151
750.0 65.67220659226246
775.0 65.70337151188166
800.0 65.75430220229316
825.0 65.8222011245341
850.0 65.95428986000977
875.0 66.07056248155133
900.0 66.21098603209018
925.0 66.36020241293726
950.0 66.50003041462305
975.0 66.64411482151226
1000.0 66.751987899177
1030.0 66.86688569974278
1060.0 66.93959969356487
1090.0 66.98134570149766
1120.0 67.02279251804613
1150.0 67.04031248547233
1180.0 67.02309273035343
1220.0 66.98185480378616
1250.0 66.91936333774268
1280.0 66.84063671898126
1320.0 66.75731385376233
1360.0 66.64869715136317
1400.0 66.5516194808048
1450.0 66.46813292940637
1500.0 66.37421803409647
1550.0 66.27972749895618
1600.0 66.19557124835575
1650.0 66.08684897145402
1700.0 65.99511056830241
1750.0 65.86778596870472
1800.0 65.74447905738073
1850.0 65.58111877549892
1900.0 65.43874135344753
1950.0 65.27262026617429
2000.0 65.05647489607209
2060.0 64.84372010614491
2120.0 64.62634383403226
2180.0 64.37800255486933
2240.0 64.16186716573603
2300.0 63.9413435492517
2360.0 63.717312712134756
2400.0 63.50381197597724
2500.0 63.294966123564905
2580.0 63.10785545440534
2650.0 62.93248579405886
2720.0 62.762233115510114
2800.0 62.63845223028737
2900.0 62.51955989670883
3000.0 62.46441218772323
3070.0 62.44811690377695
3150.0 62.47058961043366
3250.0 62.54215777261284
3350.0 62.66011347715158
3450.0 62.81145038621047
3550.0 63.03479495119966
3650.0 63.28205177569845
3750.0 63.54253287312697
3870.0 63.83548182596722
4000.0 64.17620753694833
4120.0 64.51276934714245
4250.0 64.86009866327814
4370.0 65.19395828623728
4500.0 65.51338057388703
4620.0 65.7816711015415
4750.0 66.02484660767212
4870.0 66.16272330971336
5000.0 66.24865448554338
5150.0 66.22178820164287
5300.0 66.11563919489357
5450.0 65.9025192919163
5600.0 65.67025821974961
5800.0 65.39885156748583
6000.0 65.0635507567629
6150.0 64.75371090445798
6300.0 64.38074815398649
6500.0 64.06200243806065
6700.0 63.76309450611035
6900.0 63.51411269967336
7100.0 63.30507808462673
7300.0 63.19780543565447
7500.0 63.170968400816264
7750.0 63.24434762143581
8000.0 63.44506613686555
8250.0 63.795868062855064
8500.0 64.2406174998984
8750.0 64.71438484076585
9000.0 65.20965080632685
9250.0 65.67649513182407
9500.0 66.05279376632923
9750.0 66.326377965269
10000.0 66.4346836861492
10300.0 66.37415392657705
10600.0 66.18834395032916
10900.0 65.94494733220324
11200.0 65.67407091402053
11500.0 65.53850236188859
11800.0 65.49580051987702
12200.0 65.66900171254677
12500.0 66.14089915660225
12800.0 66.90043916415047
13200.0 67.7300137850434
13600.0 68.43196872144927
14000.0 68.75244369695436
14500.0 68.41681124648791
15000.0 67.22620635644856
15500.0 64.9380474724682
16000.0 61.310245140616345
16500.0 56.1787733629789
17000.0 49.67506152070855
17500.0 42.13091967546241
18000.0 33.82041851421981
18500.0 25.042915027339504
19000.0 16.097785513573584
19500.0 7.31294930471843
