Freq,Floor Bounce,Ceiling Bounce,Front Wall Bounce,Side Wall Bounce,Rear Wall Bounce,Total Early Reflection
20.5078,60.36751880732105,56.533863281403555,60.1207825119438,56.7551835702386,56.22880456752934,58.40112322120497
21.9727,60.90036968651141,57.41326514009326,60.841075651724836,57.24908860933404,59.63490566568389,59.489436185710204
23.4375,60.47455501457385,56.88014999646002,60.42863972275275,56.75123783074902,62.835874613010745,60.08710350951212
24.9023,62.16376926130661,60.61640417302466,62.11712938581013,60.71221093614831,66.4399018585341,63.01471548054951
26.3672,65.15500727669122,64.7249175564862,65.10010182202184,64.87479859063653,69.00725684741896,66.13003432309024
27.832,68.30933561806108,68.76616337042134,68.33892412905537,68.79143481974806,72.14776773041768,69.55132149144542
29.2969,70.27501141793827,70.40982333368403,70.21761013479399,70.57740738574815,73.03009597969334,71.04968217681945
30.7617,72.27380717955727,72.44813385942098,72.20373766440385,72.61255058025935,74.63356150275877,72.93918656068799
32.2266,73.75100462963003,73.93730738410981,73.68503036743094,74.08208365728713,75.76360042708419,74.31812216931066
33.6914,74.9086719722691,75.04943858041945,74.83280765883232,75.20310545274103,76.60871200226383,75.37354230168536
35.1562,76.05563561859783,76.15024980444926,75.97240136942993,76.30533560895601,77.49156908733069,76.43314690176422
36.6211,76.95021680558911,77.01668608681987,76.86557300973944,77.17037324704516,78.18498160419719,77.26589527441865
38.0859,77.70296567334465,77.73621395238881,77.61510109597513,77.8919545521985,78.77575866394847,77.96612275943981
39.5508,78.417125906463,78.41430678643594,78.32334213777283,78.57559827284018,79.34845622623182,78.63259741855528
41.0156,79.05547235902519,79.03330483228463,78.9613434470122,79.1934072701115,79.87355588360597,79.2366656902217
42.4805,79.64935815571775,79.60124201676177,79.5523182280054,79.76353011607497,80.36180896115984,79.79607019954697
43.9453,80.18384569042196,80.11282740183249,80.08435205335107,80.27715213179447,80.80150048358017,80.30012451984169
45.4102,80.68472766076876,80.59338868518365,80.58432918668065,80.75877163609195,81.21471653152508,80.77355907649094
46.875,81.1365834886986,81.02489306134224,81.03405114117811,81.19280467722587,81.59279472391756,81.20130348723417
48.3398,81.54500347320226,81.41583835787013,81.44121648456458,81.58396994434813,81.92830755450342,81.58681155194677
51.2695,82.2818792344147,82.12738039408352,82.17783566243062,82.29586894708152,82.55192489342456,82.28948062718193
52.7344,82.58040194428108,82.42160945306074,82.47747565230276,82.58760874839243,82.8196583375876,82.57951015928765
54.1992,82.94656426800293,82.7630355783205,82.83907309985321,82.93339640376568,83.11477413723391,82.92098614250285
55.6641,83.21102386917934,83.01180027706287,83.10192714998855,83.1849041671141,83.32923815008571,83.16908916714992
58.5938,83.68040401857787,83.470035258902,83.57356608100139,83.6404537887538,83.73297180232483,83.62043805373571
60.0586,83.83982871569569,83.62380409091482,83.73389362111952,83.79376457862345,83.86475437385376,83.77205933780273
62.9883,84.21066266788428,83.95465157497011,84.09590642182546,84.13675193803448,84.15312363908473,84.1110674131587
64.4531,84.38075953970905,84.11542419764824,84.26470556159649,84.2994018285562,84.29893328191609,84.27271254152843
67.3828,84.62824476483699,84.34727388407734,84.51243570703512,84.53139299888262,84.49082692605693,84.50297538264864
68.8477,84.70000256970526,84.41165160753614,84.58508050962509,84.59512342115148,84.53244992201498,84.56587529158281
71.7773,84.80489248695943,84.50330252354617,84.68984008774666,84.68760606215888,84.5981132550048,84.65792375482656
74.707,84.97674636801234,84.66212611740322,84.86242772409956,84.84465847309127,84.72470984370413,84.81553418901852
77.6367,85.10153366087675,84.77055869561899,84.9877842674985,84.95311249199536,84.79386281451275,84.92314161385492
79.1016,85.09309142242333,84.75607831269734,84.98111317662766,84.9363281690091,84.75631985863491,84.9065773549355
82.0312,85.09898065875842,84.7555667485401,84.98959405273911,84.93387736670185,84.73973470401832,84.90574453273328
84.9609,85.15323957962964,84.80075823817374,85.04498009356968,84.9784229046549,84.76638829552445,84.95122414501178
87.8906,85.16463017862945,84.79364119516406,85.05682670049283,84.97223077104807,84.72898375566733,84.94627783858373
90.8203,85.14502130087003,84.76195233100556,85.03958774405842,84.93964380508912,84.67743847570338,84.91615269985785
95.2148,85.14858296375367,84.72461329086602,85.03804109412944,84.9150573337006,84.63092176626195,84.89567228647316
98.1445,85.13424215334068,84.69698259690954,85.02710691894434,84.88353098674231,84.56206597961561,84.86581695409224
101.074,85.076069644333,84.62470636693273,84.97437621303727,84.80760443751448,84.44540538971414,84.79164411553457
105.469,85.03530234265615,84.56101588862568,84.9386969989534,84.7373028056674,84.31356984365759,84.72490983196298
108.398,85.02690665722012,84.54461240691904,84.93612841078634,84.70997676387445,84.23418883528936,84.69956757487851
112.793,85.07764550443645,84.58064947277744,84.98874537941168,84.73921233461915,84.2007695659267,84.72854019199069
117.188,85.05127889759697,84.55253393734539,84.96199218384548,84.71543944636015,84.20484138925045,84.7076801820421
120.117,85.00611280508951,84.50220310892055,84.91563098542811,84.66609874643649,84.18012187078789,84.66407910016927
124.512,84.91914532341488,84.39327368388781,84.82242919471689,84.56607233311662,84.11725351226669,84.5732831414091
128.906,84.78306122091878,84.26055032650189,84.69738796598892,84.41757308905123,83.96291992192447,84.43443067093823
133.301,84.7967441660888,84.24729058844731,84.71229362994582,84.4081418196683,83.92846403626554,84.42999243966607
139.16,84.72474300328999,84.11534048781473,84.6269036168646,84.3118685112675,83.88791196347191,84.34450785700966
143.555,84.65696812838448,84.00747821798274,84.56023150142043,84.21284100768003,83.79671460619919,84.25897462966941
147.949,84.63664426397195,83.93645817928143,84.54182600406999,84.14492795782031,83.67254909713019,84.20157540794663
153.809,84.71398714341565,83.92571010978621,84.62098642412899,84.14287706090408,83.49416803334864,84.20273684624553
159.668,84.82738492416586,84.04637893596932,84.75076782372905,84.24077803340695,83.47760786458925,84.29626629478203
165.527,84.78622868533525,84.02559363695177,84.72077524075735,84.20924978996594,83.48475536136166,84.2713661896151
171.387,84.73908756306581,83.92679436633567,84.66957046698246,84.13673122521433,83.42593811240148,84.20664872436913
177.246,84.65921011683865,83.84797448945314,84.60484709805958,84.0505366883861,83.36477901072236,84.13223590945552
183.105,84.58959022752016,83.76134214696029,84.54988796937006,83.94839426547702,83.2410087731539,84.04730423332533
188.965,84.58469134401395,83.71187776676406,84.54988493323738,83.90163506076313,83.12764942195447,84.00913804672719
196.289,84.54439314750351,83.67306378693745,84.53412207955192,83.8458417324104,83.00147611570698,83.95777629318195
203.613,84.46200046903193,83.58300922653005,84.4650782022107,83.74444373713804,82.8349545745591,83.85990885561459
210.938,84.49951546189068,83.53924358580115,84.49785295206648,83.71706041277203,82.74159775346877,83.84803600441077
218.262,84.5250334662644,83.54240456517037,84.5362951414619,83.6917800493814,82.64280715764359,83.84350548245698
225.586,84.50154130946,83.47577151777246,84.51919930119486,83.60589127967279,82.51452106185286,83.7856985685969
232.91,84.59665799333332,83.48192297530532,84.612167386374,83.61965084070836,82.33755222791022,83.8084796854032
241.699,84.804923512732,83.48616047243456,84.79283633240965,83.73992419287363,82.07989848147828,83.89171381094525
250.488,85.09425357826247,83.79439320142221,85.08658596766841,84.06470722103494,82.18971039508192,84.16926769326359
259.277,84.92212683589618,83.73068288141941,84.96601806241559,83.91043926118661,82.28218854012053,84.06760500581426
268.066,84.9831029337224,83.78488557336554,85.03860553049796,83.97520278917898,82.09525097461723,84.0988691786276
276.855,84.82170187562902,83.57094129663783,84.88007164464712,83.82904500453792,82.19507285301198,83.96528984142695
287.109,84.9533568388433,83.69647332015565,85.05100269304063,83.90147485465157,82.18310685309521,84.07531724262338
297.363,84.99772850091283,83.65859420106713,85.09515678872692,83.79696653572456,82.06167418580473,84.05505425787739
307.617,84.95500905546142,83.72102624071896,85.1047639407774,83.8940873266272,81.72625589229665,84.03608711640736
319.336,84.74718691242741,83.46492406909353,84.87278682791982,83.69044945677413,81.5123294671824,83.81324034560262
329.59,84.80557850026052,83.39008681835863,84.92985201157663,83.62739192738705,81.40431587041293,83.80404323781707
341.309,84.95739669290178,83.38681702924491,85.04176451018806,83.8565839831936,81.06379584660341,83.87860185817135
353.027,85.13398834100578,83.58572054733975,85.29921496312431,84.19156851570021,81.2041480440741,84.10852127093929
366.211,84.92203562305049,83.4308914303461,85.13212451612837,83.85174833323279,81.11516564931345,83.90571217485825
379.395,85.11370233987795,83.63225551916942,85.38661029264253,84.11491743051302,81.1041452030297,84.10929749350642
392.578,84.99864320499502,83.75289370494474,85.3577345262038,84.09652217961903,81.09313348866064,84.09005566539298
405.762,84.67069445959174,83.53051139063159,85.05344467781843,83.88708979127455,80.78837386780347,83.81431807679097
420.41,84.49180831840823,83.0651565486839,84.76457951434173,83.48307162763798,80.27745107616316,83.47521187225534
435.059,84.63511419416822,83.2578640291665,85.02499510400219,83.73446180284164,80.01570160021564,83.64431686525637
451.172,84.45328266437544,82.965883652163,84.91701773300204,83.73795974723822,79.58657204760303,83.48083177493969
465.82,84.43549051326524,82.86443949382415,84.90228679481041,83.833780195991,79.60239063256924,83.47633349342163
483.398,84.28317157650224,82.4007666306742,84.68154419879005,83.69830864117655,79.68629130183679,83.27626854967951
499.512,84.13775427395723,82.45761677519359,84.62819661413583,83.7190686599954,79.72536829532115,83.24279600174935
517.09,83.7847256944345,81.77707827852826,84.2012236956367,83.00150450578776,79.42955016146315,82.7415219567254
536.133,83.5469283681958,81.00672667484774,84.13260900465956,82.60855020341648,78.72712732742184,82.39696313202744
555.176,83.98151083743001,80.48237228140529,84.70029085749782,83.29740736104884,78.45710132108742,82.74516647192604
574.219,84.10457403784129,80.54259330917783,84.77162953502916,83.09673506182631,78.71243737656725,82.78301197896636
594.727,84.4259884268597,81.03567426991394,85.229296429892,82.62511267968594,78.13141938931287,82.94659679118564
615.234,84.02831399390485,81.09130261434959,84.77059948468705,82.3982494794281,76.54981838151876,82.55393250867616
637.207,83.4766590064785,79.9747790634623,84.13107648019545,82.62231294309454,78.023271380481,82.18703884023382
659.18,83.77530988120365,80.27245650388163,84.58429334565903,82.54403722661657,77.26126810373147,82.38159833894066
682.617,83.90282959500344,80.63113032780747,85.03137257169737,82.66579162283476,78.04978211203486,82.68748051527278
707.52,83.17708173984933,80.54713831645581,84.4315584355193,82.49807529673372,77.17558517338675,82.19387254221324
732.422,83.33933890955612,80.65754097717381,84.56384611154645,82.57068019575179,78.32717425571245,82.38988435364013
757.324,83.12120465479477,81.023399519169,84.2941790236554,81.71914373447949,78.14126439957006,82.11806348098794
785.156,83.7167445419969,81.13460395917478,85.38080920841132,81.5846388873101,77.61079306822792,82.61078562105043
811.523,82.72007952494074,80.38513893692487,84.64273729252302,81.50285138135239,75.93543604924157,81.8648728372727
840.82,82.57893750650577,79.52019952845535,84.36585901118245,81.55284693523966,76.88463647489998,81.67721601844795
870.117,82.54978828916278,78.64548898444488,84.80226502533661,81.80280032915772,76.46675762777048,81.76680874523615
900.879,82.83726989500329,77.95569879688553,85.14127418468671,81.49927725129152,77.23557511155195,81.90595009705255
933.105,82.25677254868057,77.32929261174992,84.94789487336011,81.85053960395867,75.38162822552783,81.59759973713892
965.332,82.0148135460727,76.00336516815237,84.71211468993236,81.79809530418144,75.43006173631764,81.34191149415999
1000.49,82.276084139663,75.81245429432846,85.20635591844673,81.9677374047927,76.40676725699781,81.70069124154519
1035.64,81.6849660602914,75.19552705506737,84.41186485676872,81.17429388520057,74.71556426775255,80.91540920642491
1072.27,81.21319872713539,75.25763317465687,84.33006235193628,81.43456202770795,74.20559470625156,80.80830869757455
1108.89,81.27334909175842,76.00398625353637,84.51502841406,81.00194088806727,74.4571470943862,80.86779306649147
1148.44,80.70153486360725,76.88549665479786,84.01428588047808,80.26551467628572,74.38900975922718,80.43078644195138
1189.45,80.24012400844381,77.11397809780713,84.14620677731924,80.3663547557746,72.7142822756684,80.36955332300143
1230.47,80.14521472247947,77.61606108320926,84.22281765803409,80.33245278053396,73.63070608583793,80.46570572390158
1274.41,80.00412466874421,77.22620179374287,84.79603628312218,80.5035956988711,74.39771732231141,80.75134818263287
1319.82,80.67160058409765,76.97560930473331,85.24380610786132,80.670934686484,73.18690614924895,81.06249527174913
1366.7,80.73436381536509,78.19344604622775,85.34804215073608,80.96142356473577,74.38294307179966,81.3304025194157
1413.57,81.16521824828985,78.2384847276912,85.43242551239314,80.54680601747683,73.24092475110571,81.34352648969892
1463.38,81.39579776726617,78.72738341770204,85.04848646561221,80.6792296812815,72.38018658992233,81.24837312628522
1516.11,81.69467333546392,78.53725452366899,85.31945753791999,80.21605408580258,72.66107172789502,81.35485700344735
1568.85,81.77564982286812,79.13246668575185,84.30593967554056,79.62982708483479,70.8954252023061,80.83534173615304
1624.51,81.79499243352896,79.04946312352202,84.48912337024386,79.57387088030902,71.55674984962353,80.91753389750002
1681.64,81.61622532237583,78.94823853367565,84.52801655874791,79.398892247984,70.87810626684887,80.83899481317988
1741.7,81.55128739597603,78.22410014556294,85.42108490261936,80.29491655807273,71.93656266889091,81.33819062015885
1803.22,81.35690721708927,79.31551678482911,86.33824243085617,80.6834997526564,71.18035703849867,81.94577428880268
1866.21,81.64449849262556,79.83300197077084,86.1705552740406,80.8497437208188,71.41460612037149,81.99631622027223
1932.13,82.01612872405583,80.42013643651607,85.83975580585182,80.206834816558,71.23349414229493,81.88131956224748
1999.51,82.29041343875734,80.25990160285463,84.7271764476951,79.21573273112318,70.5471250948264,81.25423590107074
2069.82,82.00453762063074,80.89425946054736,84.0164345010239,78.3239512739756,69.9286475129691,80.8741195954691
2143.07,81.75334234789695,80.58253179680277,84.37394891723581,78.59817749204088,69.0728999245931,80.92271299692717
2219.24,81.94322208296548,80.20635035014524,85.02053704938798,79.35838583466663,69.23412378181584,81.29478872622492
2296.88,82.01929310469713,80.5778698558319,85.20706285020313,79.37667494245862,69.47187373320078,81.46488743365109
2378.91,82.59682282610702,80.78079955348231,84.46863910684765,79.29999799708979,70.06519570688914,81.31367478001404
2462.4,82.76830896061212,80.7779752292901,84.2869147368119,78.56653721640178,68.725561977319,81.18242979569517
2548.83,82.58810186008485,80.20972286876126,84.80660210924411,78.80799751355927,69.15735561540872,81.29114963528555
2639.65,82.64695142152219,80.19409322322848,85.29723162205389,79.24031610165808,69.76010279104439,81.5870104908653
2731.93,82.67060623519063,80.23500268888893,84.84902579995797,78.98207195581737,68.49040945262813,81.3488181481094
2828.61,82.73917382537594,80.3904024046014,84.19260856323736,78.27574166106261,68.26116599800476,81.02991540868948
2928.22,82.215175659765,81.0857633155154,84.38897939798682,78.52119830869992,67.49987299208554,81.11552866409546
3030.76,82.25589466364104,80.76473088266876,85.84028116366991,79.80117159243245,68.75350449968177,81.89840844521926
3137.7,83.29075308608577,80.53063856120686,85.45054722599382,79.31517985582093,68.14826823775685,81.86998285059813
3249.02,83.70500099136282,80.33326972080881,83.36027232404645,77.35063390552116,65.9223096909989,80.91805044251147
3363.28,82.71991106610844,80.33396961885914,84.73203423246092,78.5700739755132,66.53422996543117,81.26333957391057
3481.93,82.13494232584314,80.16940138376042,86.00506412932084,79.81273311754866,68.10358587759612,81.86550668297431
3604.98,82.45405544998748,80.23379210443983,85.12330765466939,78.82742562007077,67.07535761767835,81.38782703280604
3732.42,82.74215478135295,79.90455853589913,84.79178351683164,78.07176724359321,66.46990820219206,81.17840286194689
3864.26,82.3353445779797,80.43852461764168,84.7690252281787,77.91161316607511,66.78765490723796,81.12794729722444
4000.49,82.43130035968565,80.08390930327126,85.13957659768647,78.04749418653867,66.22244651912223,81.28091379882564
4141.11,82.17912945592472,79.80242831933344,85.6918830347394,78.55194643526906,67.57458189917519,81.51629970276376
4287.6,82.12254567564976,80.18708689028021,84.68138741004626,77.95465831738044,66.72505157421396,80.9928743217216
4438.48,82.56057884337856,79.82512560644473,83.76254377986061,77.61868954715683,65.31155946454984,80.60993883249924
4595.21,81.86950466519686,79.79877070308615,84.8581458987632,78.753082808697,66.55646547095569,81.03737897048673
4756.35,82.19956684584977,80.25332397557412,84.79608636810416,79.04198441335357,66.17158737527465,81.19267587174672
4924.8,82.855084605051,80.27442022608486,83.93279831463839,78.68248952232783,65.29335759213009,80.96248466656516
5097.66,82.42508367673065,80.0902285052224,84.72937287411041,78.27712546119263,63.34013637495252,81.09524996317488
5277.83,82.23734674229622,80.73254570380163,85.51867980826844,79.43442444667153,65.7285643205722,81.6651160661384
5463.87,83.3310336020012,81.1316668863356,85.27019436581618,78.50227512225436,62.822514293785346,81.78614870194899
5657.23,83.36871811793485,81.0586951802038,85.34898280047474,78.91958403444507,64.58016481413192,81.86586535618802
5856.45,83.37769605019894,80.57786533622657,85.85165564924121,78.33617691119383,63.55862560166024,81.97042557276087
6062.99,83.31122058950832,80.19695956725094,84.7290428134561,78.22342909075974,64.52823202835168,81.36944618866391
6276.86,82.9014198190564,80.47201328408259,85.25498485104019,77.96264741497374,63.26098752185207,81.50175174015163
6498.05,82.57762504376977,80.51378586784521,84.59240582652303,78.40269737146232,64.37840637507281,81.16248663893192
6726.56,83.20990746283972,80.7804991047784,84.41795293789922,77.85970882715563,63.153961203380405,81.26336478870009
6963.87,83.30991459104216,80.69315151616259,84.99384132718545,78.37453414604225,62.84346554481888,81.57198206331086
7209.96,83.20837201955463,81.18015686923398,84.69075047313488,77.29632601954339,62.13262930271473,81.40094510904292
7464.84,83.64465880303611,80.86016949415777,85.00954407680034,77.36993694135712,61.75676841104881,81.62179158245354
7727.05,83.30495496375038,80.79009281379022,85.09142200021451,77.30816632837455,62.32728405626693,81.53791158075835
7999.51,83.42053485074204,80.3569076104814,84.89572699300436,77.36885481729125,62.08691287298868,81.41940079699701
8282.23,83.17858802579383,81.0014120241723,84.76218151752077,77.86266050990058,62.806877804377066,81.43796745910446
8573.73,83.0908474871312,81.07472032783993,85.07405566004844,77.96708570472966,62.21970192984274,81.57017725055333
8876.95,83.24973542348253,81.08501793787697,85.13124772314372,78.4250089103615,63.1924143659639,81.68683625333576
9188.96,83.24773006457376,80.89766577946011,85.2032041953939,78.63066734946881,62.21485572558197,81.70377310475034
9514.16,83.28606390844912,81.07580337364807,85.05605843416792,78.44195355031869,62.949064322326635,81.66360944440966
9849.61,83.2688571048067,80.94191264083078,85.8084610514788,79.04421501248619,62.404858968712745,82.03796700739728
