Freq "Floor Bounce"
20.5078 60.36751880732105
21.9727 60.90036968651141
23.4375 60.47455501457385
24.9023 62.16376926130661
26.3672 65.15500727669122
27.832 68.30933561806108
29.2969 70.27501141793827
30.7617 72.27380717955727
32.2266 73.75100462963003
33.6914 74.9086719722691
35.1562 76.05563561859783
36.6211 76.95021680558911
38.0859 77.70296567334465
39.5508 78.417125906463
41.0156 79.05547235902519
42.4805 79.64935815571775
43.9453 80.18384569042196
45.4102 80.68472766076876
46.875 81.1365834886986
48.3398 81.54500347320226
51.2695 82.2818792344147
52.7344 82.58040194428108
54.1992 82.94656426800293
55.6641 83.21102386917934
58.5938 83.68040401857787
60.0586 83.83982871569569
62.9883 84.21066266788428
64.4531 84.38075953970905
67.3828 84.62824476483699
68.8477 84.70000256970526
71.7773 84.80489248695943
74.707 84.97674636801234
77.6367 85.10153366087675
79.1016 85.09309142242333
82.0312 85.09898065875842
84.9609 85.15323957962964
87.8906 85.16463017862945
90.8203 85.14502130087003
95.2148 85.14858296375367
98.1445 85.13424215334068
101.074 85.076069644333
105.469 85.03530234265615
108.398 85.02690665722012
112.793 85.07764550443645
117.188 85.05127889759697
120.117 85.00611280508951
124.512 84.91914532341488
128.906 84.78306122091878
133.301 84.7967441660888
139.16 84.72474300328999
143.555 84.65696812838448
147.949 84.63664426397195
153.809 84.71398714341565
159.668 84.82738492416586
165.527 84.78622868533525
171.387 84.73908756306581
177.246 84.65921011683865
183.105 84.58959022752016
188.965 84.58469134401395
196.289 84.54439314750351
203.613 84.46200046903193
210.938 84.49951546189068
218.262 84.5250334662644
225.586 84.50154130946
232.91 84.59665799333332
241.699 84.804923512732
250.488 85.09425357826247
259.277 84.92212683589618
268.066 84.9831029337224
276.855 84.82170187562902
287.109 84.9533568388433
297.363 84.99772850091283
307.617 84.95500905546142
319.336 84.74718691242741
329.59 84.80557850026052
341.309 84.95739669290178
353.027 85.13398834100578
366.211 84.92203562305049
379.395 85.11370233987795
392.578 84.99864320499502
405.762 84.67069445959174
420.41 84.49180831840823
435.059 84.63511419416822
451.172 84.45328266437544
465.82 84.43549051326524
483.398 84.28317157650224
499.512 84.13775427395723
517.09 83.7847256944345
536.133 83.5469283681958
555.176 83.98151083743001
574.219 84.10457403784129
594.727 84.4259884268597
615.234 84.02831399390485
637.207 83.4766590064785
659.18 83.77530988120365
682.617 83.90282959500344
707.52 83.17708173984933
732.422 83.33933890955612
757.324 83.12120465479477
785.156 83.7167445419969
811.523 82.72007952494074
840.82 82.57893750650577
870.117 82.54978828916278
900.879 82.83726989500329
933.105 82.25677254868057
965.332 82.0148135460727
1000.49 82.276084139663
1035.64 81.6849660602914
1072.27 81.21319872713539
1108.89 81.27334909175842
1148.44 80.70153486360725
1189.45 80.24012400844381
1230.47 80.14521472247947
1274.41 80.00412466874421
1319.82 80.67160058409765
1366.7 80.73436381536509
1413.57 81.16521824828985
1463.38 81.39579776726617
1516.11 81.69467333546392
1568.85 81.77564982286812
1624.51 81.79499243352896
1681.64 81.61622532237583
1741.7 81.55128739597603
1803.22 81.35690721708927
1866.21 81.64449849262556
1932.13 82.01612872405583
1999.51 82.29041343875734
2069.82 82.00453762063074
2143.07 81.75334234789695
2219.24 81.94322208296548
2296.88 82.01929310469713
2378.91 82.59682282610702
2462.4 82.76830896061212
2548.83 82.58810186008485
2639.65 82.64695142152219
2731.93 82.67060623519063
2828.61 82.73917382537594
2928.22 82.215175659765
3030.76 82.25589466364104
3137.7 83.29075308608577
3249.02 83.70500099136282
3363.28 82.71991106610844
3481.93 82.13494232584314
3604.98 82.45405544998748
3732.42 82.74215478135295
3864.26 82.3353445779797
4000.49 82.43130035968565
4141.11 82.17912945592472
4287.6 82.12254567564976
4438.48 82.56057884337856
4595.21 81.86950466519686
4756.35 82.19956684584977
4924.8 82.855084605051
5097.66 82.42508367673065
5277.83 82.23734674229622
5463.87 83.3310336020012
5657.23 83.36871811793485
5856.45 83.37769605019894
6062.99 83.31122058950832
6276.86 82.9014198190564
6498.05 82.57762504376977
6726.56 83.20990746283972
6963.87 83.30991459104216
7209.96 83.20837201955463
7464.84 83.64465880303611
7727.05 83.30495496375038
7999.51 83.42053485074204
8282.23 83.17858802579383
8573.73 83.0908474871312
8876.95 83.24973542348253
9188.96 83.24773006457376
9514.16 83.28606390844912
9849.61 83.2688571048067
10196.8 82.71923122625564
10555.7 82.35192065639015
10927.7 82.03686491378143
11313.0 81.84392419273155
11712.9 81.55685494627495
12126.0 81.64971418929034
12553.7 81.42935932146207
12996.1 81.14014395216934
13454.6 81.29758205402506
13929.2 81.24191367783274
14419.9 80.78606485969863
14928.2 80.95006909286512
15455.6 80.93691851252072
16000.5 81.09269115742684
16564.5 81.03908322019319
17148.9 81.09040678138778
17752.4 81.39690458796603
18379.4 81.7258594035054
19026.9 82.18683930137408
19697.8 82.44269087127826
19999.5 82.624080298752
