Freq "Rear Wall Bounce"
20.5078 56.22880456752934
21.9727 59.63490566568389
23.4375 62.835874613010745
24.9023 66.4399018585341
26.3672 69.00725684741896
27.832 72.14776773041768
29.2969 73.03009597969334
30.7617 74.63356150275877
32.2266 75.76360042708419
33.6914 76.60871200226383
35.1562 77.49156908733069
36.6211 78.18498160419719
38.0859 78.77575866394847
39.5508 79.34845622623182
41.0156 79.87355588360597
42.4805 80.36180896115984
43.9453 80.80150048358017
45.4102 81.21471653152508
46.875 81.59279472391756
48.3398 81.92830755450342
51.2695 82.55192489342456
52.7344 82.8196583375876
54.1992 83.11477413723391
55.6641 83.32923815008571
58.5938 83.73297180232483
60.0586 83.86475437385376
62.9883 84.15312363908473
64.4531 84.29893328191609
67.3828 84.49082692605693
68.8477 84.53244992201498
71.7773 84.5981132550048
74.707 84.72470984370413
77.6367 84.79386281451275
79.1016 84.75631985863491
82.0312 84.73973470401832
84.9609 84.76638829552445
87.8906 84.72898375566733
90.8203 84.67743847570338
95.2148 84.63092176626195
98.1445 84.56206597961561
101.074 84.44540538971414
105.469 84.31356984365759
108.398 84.23418883528936
112.793 84.2007695659267
117.188 84.20484138925045
120.117 84.18012187078789
124.512 84.11725351226669
128.906 83.96291992192447
133.301 83.92846403626554
139.16 83.88791196347191
143.555 83.79671460619919
147.949 83.67254909713019
153.809 83.49416803334864
159.668 83.47760786458925
165.527 83.48475536136166
171.387 83.42593811240148
177.246 83.36477901072236
183.105 83.2410087731539
188.965 83.12764942195447
196.289 83.00147611570698
203.613 82.8349545745591
210.938 82.74159775346877
218.262 82.64280715764359
225.586 82.51452106185286
232.91 82.33755222791022
241.699 82.07989848147828
250.488 82.18971039508192
259.277 82.28218854012053
268.066 82.09525097461723
276.855 82.19507285301198
287.109 82.18310685309521
297.363 82.06167418580473
307.617 81.72625589229665
319.336 81.5123294671824
329.59 81.40431587041293
341.309 81.06379584660341
353.027 81.2041480440741
366.211 81.11516564931345
379.395 81.1041452030297
392.578 81.09313348866064
405.762 80.78837386780347
420.41 80.27745107616316
435.059 80.01570160021564
451.172 79.58657204760303
465.82 79.60239063256924
483.398 79.68629130183679
499.512 79.72536829532115
517.09 79.42955016146315
536.133 78.72712732742184
555.176 78.45710132108742
574.219 78.71243737656725
594.727 78.13141938931287
615.234 76.54981838151876
637.207 78.023271380481
659.18 77.26126810373147
682.617 78.04978211203486
707.52 77.17558517338675
732.422 78.32717425571245
757.324 78.14126439957006
785.156 77.61079306822792
811.523 75.93543604924157
840.82 76.88463647489998
870.117 76.46675762777048
900.879 77.23557511155195
933.105 75.38162822552783
965.332 75.43006173631764
1000.49 76.40676725699781
1035.64 74.71556426775255
1072.27 74.20559470625156
1108.89 74.4571470943862
1148.44 74.38900975922718
1189.45 72.7142822756684
1230.47 73.63070608583793
1274.41 74.39771732231141
1319.82 73.18690614924895
1366.7 74.38294307179966
1413.57 73.24092475110571
1463.38 72.38018658992233
1516.11 72.66107172789502
1568.85 70.8954252023061
1624.51 71.55674984962353
1681.64 70.87810626684887
1741.7 71.93656266889091
1803.22 71.18035703849867
1866.21 71.41460612037149
1932.13 71.23349414229493
1999.51 70.5471250948264
2069.82 69.9286475129691
2143.07 69.0728999245931
2219.24 69.23412378181584
2296.88 69.47187373320078
2378.91 70.06519570688914
2462.4 68.725561977319
2548.83 69.15735561540872
2639.65 69.76010279104439
2731.93 68.49040945262813
2828.61 68.26116599800476
2928.22 67.49987299208554
3030.76 68.75350449968177
3137.7 68.14826823775685
3249.02 65.9223096909989
3363.28 66.53422996543117
3481.93 68.10358587759612
3604.98 67.07535761767835
3732.42 66.46990820219206
3864.26 66.78765490723796
4000.49 66.22244651912223
4141.11 67.57458189917519
4287.6 66.72505157421396
4438.48 65.31155946454984
4595.21 66.55646547095569
4756.35 66.17158737527465
4924.8 65.29335759213009
5097.66 63.34013637495252
5277.83 65.7285643205722
5463.87 62.822514293785346
5657.23 64.58016481413192
5856.45 63.55862560166024
6062.99 64.52823202835168
6276.86 63.26098752185207
6498.05 64.37840637507281
6726.56 63.153961203380405
6963.87 62.84346554481888
7209.96 62.13262930271473
7464.84 61.75676841104881
7727.05 62.32728405626693
7999.51 62.08691287298868
8282.23 62.806877804377066
8573.73 62.21970192984274
8876.95 63.1924143659639
9188.96 62.21485572558197
9514.16 62.949064322326635
9849.61 62.404858968712745
10196.8 61.80724346422487
10555.7 62.18378255221981
10927.7 61.09685839220795
11313.0 60.931573497706765
11712.9 61.6792851719663
12126.0 61.10756215352116
12553.7 60.48528714567955
12996.1 60.19426801844263
13454.6 60.224215628342805
13929.2 59.667208656673765
14419.9 58.32516391608543
14928.2 57.16184734688015
15455.6 56.248271009586446
16000.5 55.590239741452976
16564.5 54.25355296488091
17148.9 53.51656256377835
17752.4 52.4757816359777
18379.4 52.401919130080884
19026.9 52.06344752789779
19697.8 52.2579001432148
19999.5 53.193596370552925
