Freq "Rear Wall Bounce"
20.5078 47.65734215347142
21.9727 48.97698983544875
23.4375 49.19046961826952
24.9023 50.44729811794447
26.3672 52.00257168951349
27.832 52.742551413191606
29.2969 53.44659130809306
30.7617 54.22191118111074
32.2266 54.91545341244198
33.6914 55.662979343604334
35.1562 56.4427874937317
36.6211 57.10706648503121
38.0859 57.82084950703181
39.5508 58.53611601484384
41.0156 59.17263897547748
42.4805 59.773510547241884
43.9453 60.40445933170285
45.4102 61.01711329576837
46.875 61.635850449199
48.3398 62.1795933818329
51.2695 63.17804189832806
52.7344 63.724364196758856
54.1992 64.26333579537656
55.6641 64.7677815504306
58.5938 65.77217905159178
60.0586 66.22262916350407
62.9883 67.20663125761503
64.4531 67.68291931024991
67.3828 68.59022694998569
68.8477 69.07088466130598
71.7773 69.99821695288566
74.707 70.90579831739309
77.6367 71.79941856319152
79.1016 72.25356329408736
82.0312 73.13736898399769
84.9609 73.9973383299763
87.8906 74.74210836553537
90.8203 75.34224216101315
95.2148 76.46781960153109
98.1445 77.24126927843766
101.074 77.9558314484065
105.469 78.98813325360301
108.398 79.6649455445539
112.793 80.60079803580301
117.188 81.36830493393721
120.117 81.80148298029569
124.512 82.3869574750515
128.906 82.79776309665588
133.301 83.01495318528563
139.16 83.1115251937838
143.555 83.07175474153372
147.949 82.97609560197292
153.809 82.81938652050219
159.668 82.49991722209724
165.527 81.88088637685331
171.387 81.83467658110702
177.246 81.85325555203829
183.105 81.50663393960687
188.965 81.2928300040454
196.289 81.09872060564477
203.613 80.74913451660582
210.938 80.50219965122908
218.262 80.33913065152724
225.586 80.17161151500356
232.91 80.01500579963398
241.699 79.7393757732432
250.488 79.614375458813
259.277 79.35370119002677
268.066 79.23021280788363
276.855 79.17536389399294
287.109 79.32451153021282
297.363 79.0218057722532
307.617 79.03437553299695
319.336 78.76914758316651
329.59 78.6327739534117
341.309 78.59360437879421
353.027 78.45757946781103
366.211 78.31697321441014
379.395 78.32059738231085
392.578 78.3828014422847
405.762 78.25014799446633
420.41 78.06537232987556
435.059 77.99325768551176
451.172 78.12042976339633
465.82 77.92500471498079
483.398 78.01865466883551
499.512 78.07428041669571
517.09 78.14233458073055
536.133 78.14459631302765
555.176 78.09909379481488
574.219 78.03985471580216
594.727 78.02325814717868
615.234 78.05965757570296
637.207 77.94820966015304
659.18 77.84238212761558
682.617 77.94818028852677
707.52 77.74134614775011
732.422 77.53333787173575
757.324 77.29964524649851
785.156 76.98494643959219
811.523 77.47794184046204
840.82 77.84629937990404
870.117 77.59267979764572
900.879 77.33702592294267
933.105 77.04475872747734
965.332 76.74566272845347
1000.49 76.49633517363053
1035.64 76.27288131939063
1072.27 76.17393121263757
1108.89 75.68300553429611
1148.44 75.38334840685333
1189.45 74.82970087133143
1230.47 74.0889970539904
1274.41 73.75565476804574
1319.82 73.31028869468679
1366.7 72.75645535107542
1413.57 72.61915640098043
1463.38 72.0518175403851
1516.11 72.12148872207348
1568.85 72.06098100007954
1624.51 72.24870867152826
1681.64 71.73265902522799
1741.7 71.96215283210127
1803.22 72.49649830349688
1866.21 73.30593325834842
1932.13 73.22078758406575
1999.51 73.55623586622332
2069.82 74.05630399877437
2143.07 73.89280476276447
2219.24 73.79113558636212
2296.88 74.41556744435893
2378.91 74.6923306326482
2462.4 74.96735332209289
2548.83 75.19354150492767
2639.65 75.20162712894637
2731.93 75.47526673054516
2828.61 75.56658693010066
2928.22 75.13170187376697
3030.76 75.3826739986376
3137.7 75.49600635204224
3249.02 75.41326994047266
3363.28 75.9156661898768
3481.93 75.92206316995389
3604.98 75.5335271316118
3732.42 74.83873339097944
3864.26 74.24779853977884
4000.49 73.79069256756529
4141.11 73.17038986216735
4287.6 73.57342736296818
4438.48 73.98070837970513
4595.21 74.49820728924398
4756.35 74.15118912326305
4924.8 73.10251080312632
5097.66 72.0656947328241
5277.83 71.41828549279948
5463.87 71.69073308650962
5657.23 72.30106009171332
5856.45 71.42555967221627
6062.99 70.52295533384113
6276.86 70.35829972283264
6498.05 71.6723963744321
6726.56 71.40916584955245
6963.87 70.44120732993828
7209.96 70.83188356230313
7464.84 71.13142509559725
7727.05 69.65622032645844
7999.51 67.74337691531623
8282.23 68.84386023048431
8573.73 69.1526451555902
8876.95 69.16440249633489
9188.96 68.67430562956804
9514.16 67.50455540586056
9849.61 67.51836808253553
10196.8 68.068156405551
10555.7 68.34549278186164
10927.7 67.0552631263373
11313.0 66.07297989031902
11712.9 66.37668469839444
12126.0 66.02566511520023
12553.7 65.45667456003063
12996.1 63.14843842110331
13454.6 60.82972392572934
13929.2 55.90269638653423
14419.9 58.32036704573132
14928.2 62.465852604729335
15455.6 64.4982135734456
16000.5 66.93918681790382
16564.5 68.6780819818059
17148.9 69.5330890839741
17752.4 69.54427404345803
18379.4 70.00746954945741
19026.9 69.78792214084437
19697.8 70.10409066166493
19999.5 70.43084867782608
