Freq "Side Wall Bounce"
20.5078 57.43311985763434
21.9727 58.751938263747704
23.4375 58.965634027987264
24.9023 60.22432720536763
26.3672 61.77550464405731
27.832 62.517484416272154
29.2969 63.22138812415774
30.7617 63.996443303951466
32.2266 64.69010180501921
33.6914 65.4375225758758
35.1562 66.21747808599308
36.6211 66.8817356952813
38.0859 67.59546824219136
39.5508 68.31070897025879
41.0156 68.94721649789831
42.4805 69.54807159248232
43.9453 70.1790304259306
45.4102 70.79164388309442
46.875 71.41046093478353
48.3398 71.95397816101784
51.2695 72.95213169979031
52.7344 73.49844990356853
54.1992 74.03753411039939
55.6641 74.54207848487965
58.5938 75.54644261844753
60.0586 75.9968554678122
62.9883 76.98084520201367
64.4531 77.45704438371125
67.3828 78.36439815495716
68.8477 78.8450141143704
71.7773 79.77282487506871
74.707 80.68040585041165
77.6367 81.5738110771567
79.1016 82.028072027412
82.0312 82.9118751673355
84.9609 83.77192371689942
87.8906 84.5167749794684
90.8203 85.11602510837774
95.2148 86.24191896577067
98.1445 87.01526678668162
101.074 87.72966962237645
105.469 88.76222419072586
108.398 89.43912882334493
112.793 90.37478176100053
117.188 91.14216289608622
120.117 91.57558542711348
124.512 92.16100540177965
128.906 92.57143640955648
133.301 92.78837114732723
139.16 92.88484861148278
143.555 92.84495305370571
147.949 92.74946039728772
153.809 92.59235482747872
159.668 92.27157852756682
165.527 91.64929558678458
171.387 91.61185463195444
177.246 91.6305505979111
183.105 91.28292693503029
188.965 91.06963351923035
196.289 90.87570700363648
203.613 90.5245542811476
210.938 90.28014176481416
218.262 90.11731977023649
225.586 89.95069023978736
232.91 89.79460288555777
241.699 89.51764631304009
250.488 89.39165155398581
259.277 89.12830718584375
268.066 88.99750611112327
276.855 88.97046477105829
287.109 89.10687477667668
297.363 88.8076503941863
307.617 88.82276487226265
319.336 88.54936744810921
329.59 88.41583401022297
341.309 88.37909376554934
353.027 88.2376068912735
366.211 88.09839073165288
379.395 88.11775733292832
392.578 88.18550167341506
405.762 88.04858923420532
420.41 87.85485874286546
435.059 87.78274388897947
451.172 87.9216343122319
465.82 87.73788672736204
483.398 87.83884098088936
499.512 87.90378179427739
517.09 87.9779574386723
536.133 87.97699864903569
555.176 87.94524886485381
574.219 87.89079676671584
594.727 87.87153843735499
615.234 87.90142257491203
637.207 87.82587186435966
659.18 87.75614225659088
682.617 87.87837656658134
707.52 87.69005667999052
732.422 87.49522994982733
757.324 87.28493074739822
785.156 86.99402854052335
811.523 87.44811062629826
840.82 87.83365488564569
870.117 87.61561878976785
900.879 87.39842591122577
933.105 87.14360827742857
965.332 86.88928696687479
1000.49 86.68617463804021
1035.64 86.47216777798845
1072.27 86.30551082928866
1108.89 85.86196618582326
1148.44 85.63812150433597
1189.45 85.24667424373663
1230.47 84.73526887471981
1274.41 84.53342101520373
1319.82 84.08563784360017
1366.7 83.62596825553317
1413.57 83.59596792511124
1463.38 83.19235814798395
1516.11 83.18562583137945
1568.85 83.03353059046162
1624.51 83.07239413063951
1681.64 82.60797183447457
1741.7 82.51920283011859
1803.22 82.31990305217099
1866.21 82.96279118912797
1932.13 83.14220821010998
1999.51 83.33470103404989
2069.82 83.39737505776226
2143.07 83.41834507616755
2219.24 83.4147303319421
2296.88 83.45701426536198
2378.91 83.54128116045378
2462.4 83.6057413948912
2548.83 83.9668904755484
2639.65 84.12695097769627
2731.93 84.33402321293588
2828.61 84.55152451796042
2928.22 84.49071027398186
3030.76 84.56448677907679
3137.7 84.5750722951875
3249.02 84.68511725684489
3363.28 84.96693005437085
3481.93 85.31473551074106
3604.98 85.47537648154751
3732.42 85.49920642993942
3864.26 85.47247824693227
4000.49 85.28810862364799
4141.11 85.10268273350387
4287.6 84.90434724776483
4438.48 84.8091848307735
4595.21 85.03187932901075
4756.35 85.27206343383578
4924.8 85.2291800499436
5097.66 85.09115265793686
5277.83 84.80331093719623
5463.87 84.60468066087583
5657.23 84.62612013049599
5856.45 84.56862911332811
6062.99 84.62392925878436
6276.86 84.75725744942326
6498.05 85.05160919493515
6726.56 85.36374387657953
6963.87 85.484832622593
7209.96 85.37287566645522
7464.84 85.07873432450062
7727.05 84.8408395146805
7999.51 84.5039694139702
8282.23 84.10427519438842
8573.73 83.62679572842028
8876.95 83.28545619653853
9188.96 82.67346929124668
9514.16 81.81881604032908
9849.61 81.06025054339116
10196.8 80.71496087959021
10555.7 81.03062885776671
10927.7 81.69149132216894
11313.0 82.24240818100515
11712.9 82.39555824642102
12126.0 81.63812097611141
12553.7 80.28918233823667
12996.1 78.4105984025254
13454.6 76.49279177857427
13929.2 75.45694237907976
14419.9 74.88883622843117
14928.2 75.07169512486766
15455.6 75.03694693894188
16000.5 75.66776135352679
16564.5 76.87681229262364
17148.9 77.64610290040343
17752.4 77.22368920240503
18379.4 75.88140409770372
19026.9 74.45834739169709
19697.8 74.32730281221505
19999.5 74.63026756681484
