Freq,Floor Bounce,Ceiling Bounce,Front Wall Bounce,Side Wall Bounce,Rear Wall Bounce,Total Early Reflection
22.4,-15.833518298922101,-13.422703980027606,-9.561857355740372,-5.517738545493572,-5.766897442327561,-8.368894653083814
23.0,-15.374527863565035,-11.725282512850654,-8.510163962299814,-4.187218073056599,-4.554727174957307,-7.127225697718089
23.6,-14.99532828267111,-10.148281603713869,-7.144775624735686,-2.802907755060673,-3.203479465358825,-5.770860819003488
24.0,-13.366248952486202,-8.569778569536894,-2.447864214780239,0.4057102978342044,0.2674027685495588,-2.3423786431544187
25.0,-11.968836509080106,-7.519155246085958,1.2808968253714141,3.0051148948323743,3.2227470845325428,0.5549448203826586
25.8,-10.794820579316465,-6.6733240121100295,4.056809907424778,4.8265582257191255,5.617412185772636,2.7999491467879665
26.5,-9.480819861499057,-5.587274482083174,6.418525232497487,6.100022719299133,7.87361066175383,4.764017206465454
27.2,-5.702013774295224,-1.1177500903555568,10.681268369217989,9.618286042474509,11.780986600364756,8.688630354495004
28.0,-2.9161032020066813,3.366162254333844,14.0686649133212,12.199983921585428,14.518193949838846,11.649406450849526
29.0,-1.2633677800585161,8.402429855581815,16.641468007099846,13.84239448407088,16.27750962775751,13.819391207816764
30.0,0.9712086510258331,17.77365799561308,18.847866095652037,15.653034063458122,17.766592679527903,16.709667987931127
30.7,6.968238807730742,17.34295028635175,20.32949888137871,18.77398992720869,20.185393020759804,18.411849097494596
31.5,12.449906148764725,16.308610119076306,20.829105703698716,20.78720023393184,21.564469694307874,19.489948068970463
32.5,18.379663719561492,15.474562633405853,20.95443237472874,22.30926361089915,21.998536639047686,20.471466870968257
33.5,20.366064874666236,21.73153571811524,24.367517107658458,26.743846451806448,26.096718920424067,24.504670175319134
34.5,20.952279149895887,28.34283828679189,27.84207995086591,31.210017631406473,30.635814764389394,28.915029003580557
35.5,20.08091061588523,36.18110932205299,32.52618632357847,37.57981784403698,36.839793966689584,35.21127463330778
36.5,22.297374146182605,38.48524050994645,36.10241552631523,40.09495301168407,38.796161846532115,37.6494312858638
37.5,25.830722394333506,38.92440260427689,39.66669023905665,42.00878118482707,40.27649025780592,39.44371039270253
38.7,28.695725207291318,40.24550806487083,43.529185166635855,42.7818406557907,41.38292365865509,41.24407074893578
40.0,30.917623337905738,44.02743348644741,44.37833960599859,41.87592585984986,42.37667198684896,42.38578137575614
41.2,32.045689664418674,48.71222037089463,45.218811907373535,41.63573408161416,44.30227810191708,44.79148183287934
42.5,34.526452755346085,55.7230540638577,47.366160415910045,43.93918849971364,46.93456154489566,50.04334004248163
43.7,37.176935613920634,59.12551526690291,49.211286007206766,47.93329744339725,48.39253199285578,53.16989392635516
45.0,40.62997391933597,58.720645822783055,51.000565331085156,52.903073816731776,51.320069165341394,53.84875158900671
46.2,46.35631453131877,57.79466196646213,54.83258157030555,55.19218613560692,54.84135790364685,55.009836647897075
47.5,50.84109334556446,59.33710139744443,59.02028681920628,57.32700266115826,58.42598069992739,57.80205022496254
48.7,55.26799284112023,64.41360541117469,65.02034853804774,60.0157830198937,63.83362774588754,62.876887018735445
50.0,58.84270842179693,69.10179085126076,69.74635964940826,62.31555991264494,68.06576127659521,67.2330146983213
51.5,59.12916069761019,62.99218118876878,66.70999639975267,64.98918829845007,66.21127204669556,64.72231253185352
53.0,60.450802109620966,62.52128047235216,66.91208094112828,68.4879185505806,66.96310253711736,65.9850793404881
54.5,67.21289484319126,65.70981413608366,69.03571391299197,68.35067717148394,66.9121766482799,67.59638133118781
56.0,71.24237875735678,68.44160539546432,70.9614443130132,69.68151306984613,68.3499246467622,69.90397662364569
58.0,72.30981413608366,71.37775311534635,72.66733014662391,72.16239670292916,70.73299956922291,71.90482270579339
60.0,73.74237875735678,73.47545103875946,74.22317048769945,73.91911116734902,72.49115658947632,73.60890668653528
61.5,75.47545103875945,75.25186250420187,75.61974912211595,75.23381412321928,73.95275296043347,75.14506727265062
63.0,77.20827337118382,76.5079937823206,77.3074723718756,76.64427043747477,75.57609293503029,76.69154588112103
65.0,78.74160539546433,77.65876193802933,78.93604792619489,78.0253256543221,77.16420976233546,78.15523258268676
67.0,79.54469842687861,79.00981413608366,79.77697831124077,79.17080781807923,78.43692194740635,79.21214940219106
69.0,80.44469842687859,80.00981413608366,80.56319335287907,80.02564906718429,79.49305286252485,80.12356102060373
71.0,81.5082733711838,80.65397087037816,81.34993477072841,80.6962542617588,80.4036834240131,80.94373141836347
73.0,81.94313438235817,81.47775311534635,81.79207657282919,81.41680628165739,81.30937303615458,81.5944763403405
75.0,82.17696815826403,82.17545103875945,82.23478078917087,81.95717975036978,82.04481788443377,82.11902388987784
77.5,82.50903495298887,82.67545103875945,82.69207657282917,82.37652554726391,82.64845142341836,82.58197291252957
80.0,83.17468354430383,82.77468354430384,83.06086804932332,82.85532952208975,83.22198177051587,83.02103592436087
82.5,83.30827337118382,83.17468354430383,83.46086804932334,83.31541653536512,83.72435640598049,83.40079420877471
85.0,83.54160539546434,83.40827337118381,83.6891110077013,83.575144057253,84.06233048880873,83.66107313733612
87.5,83.74160539546433,83.37545103875946,83.61782293964166,83.575144057253,84.109370574692,83.69076801710912
90.0,83.74160539546433,83.30827337118382,83.51847429850113,83.4557815629289,84.09045020328635,83.63156414264147
92.5,83.40827337118381,83.17468354430383,83.46086804932334,83.31496027327431,83.99085730020617,83.47902282489314
95.0,83.47545103875946,83.24160539546435,83.26086804932334,83.09532697738463,83.77304220693668,83.37572088819134
97.5,83.17545103875946,82.90981413608367,83.11782293964166,82.95532952208974,83.44015732041615,83.12382135326503
100.0,83.0082733711838,82.57775311534637,82.91782293964165,82.71728384251175,82.90405065261969,82.82781109392326
103.0,82.94160539546434,82.47775311534636,82.88943885959593,82.69670206312112,82.53902032205454,82.71280073671628
106.0,82.87545103875945,82.30981413608366,82.8057853431394,82.47651482450625,82.072378105624,82.51840466167697
109.0,82.8082733711838,82.17775311534635,82.67566281173845,82.29810872814689,81.655899774065,82.34190784244304
112.0,82.67468354430385,82.27775311534636,82.48976668674268,82.14408101477052,81.43540279398978,82.22454408629866
115.0,82.74160539546433,82.24313438235818,82.47534140499808,82.25994395458927,81.49465045976184,82.26229942161076
118.0,82.54160539546434,82.17696815826403,82.48943885959594,82.31770799041956,81.49209820721816,82.21952192899134
122.0,82.47468354430383,82.04237875735679,82.43210803566197,82.27698586494434,81.39232350584267,82.14117049266024
125.0,82.30827337118382,81.80981413608366,82.28943885959593,82.03818036323257,81.26983065028558,81.95960431448351
128.0,82.17468354430383,81.57696815826402,82.03210803566198,81.79762905397152,81.25097357928131,81.77879460622864
132.0,81.90827337118381,81.50903495298887,81.8753414049981,81.63634293260604,81.29134041289669,81.65016218880832
136.0,81.77468354430384,81.34313438235816,81.83210803566199,81.55624408444905,81.30699315722315,81.56795653665941
140.0,81.70827337118381,81.24313438235815,81.6753414049981,81.31818545213558,81.10365452377671,81.41640078994114
145.0,81.70827337118381,81.17545103875945,81.5891110077013,81.27928794153124,81.09293191939732,81.37561372530119
150.0,81.67545103875946,81.24160539546433,81.76119804016479,81.21770799041957,80.94898885201627,81.37966740270753
155.0,81.64160539546432,81.20981413608366,81.68976668674269,81.19762905397151,80.84665081814332,81.32836168312296
160.0,81.60981413608366,81.07545103875945,81.66086804932333,81.21865199478827,80.78194656684313,81.28188944241583
165.0,81.54313438235816,81.04619155217323,81.60447854186289,81.08066811421126,80.62869337001341,81.19536116515772
170.0,81.50981413608366,81.0113193009757,81.60447854186289,81.04138981047153,80.56583579655701,81.16276449858427
175.0,81.40981413608367,80.77775311534634,81.53308938934445,80.9022634974777,80.49825023802238,81.0417604707025
180.0,81.2461915521732,80.54619155217321,81.37697831124076,80.72098519280563,80.47338169922779,80.88859125193233
185.0,81.17775311534636,80.47775311534635,81.34865608322754,80.60045298596111,80.57256086022467,80.8501667046758
190.0,81.14619155217322,80.28158855465843,81.34993477072841,80.51961777547174,80.71354448583507,80.82012226276301
195.0,80.88158855465844,80.11289484319126,81.22143504805737,80.22425129558795,80.64095952842025,80.6357388405082
200.0,80.78695532746003,79.71751384902358,81.13997070429934,79.85359622174472,80.33252941719415,80.39990526593975
206.0,80.62045073868853,79.33135610360434,81.06834944527166,79.43260659326897,79.58931224217943,80.06643161876556
212.0,80.5906104665709,79.17365799561308,81.03997070429935,79.25714745407534,78.65326932067492,79.83998721307627
218.0,80.55688321762686,79.0405720049007,80.99466777831826,79.10912442579728,77.62894787625608,79.62824122176346
224.0,80.42045073868853,79.00227073713975,80.83862866883098,79.05723638238693,76.85255082428685,79.44356906696325
230.0,80.18695532746003,78.7405720049007,80.69855340526597,78.83158763784951,76.59861831328095,79.23018027517608
236.0,79.99385059933137,78.3513115268429,80.51392630152375,78.44030741457065,76.37828430027315,78.96630462674925
240.0,79.76451211103857,77.98431611112004,80.28382943736212,78.15518577448599,76.04500048896757,78.691853809607
250.0,79.66451211103856,77.9311634909199,80.21392630152374,78.06599866137948,75.75386990408484,78.59015502620063
258.0,79.69818039496364,78.15688167220439,80.19466777831826,78.15226579172486,75.49863180514771,78.62256205544237
265.0,79.75688321762688,78.48431611112002,80.20643868292291,78.43979844041765,75.36416540923808,78.74101493362535
272.0,79.82045073868854,78.61221131730412,80.18976668674267,78.73675025903745,75.7434471501149,78.8688769085215
280.0,79.68454983102713,78.73564868667566,80.1753414049981,78.8437920630484,76.21241596521246,78.92416149739122
290.0,79.65077529879605,78.70725572476941,80.10414421285975,78.82641416107002,76.5315426708403,78.92395259845489
300.0,79.55077529879604,78.40227073713974,80.03210803566199,78.71156818982098,76.34762515942465,78.78052331026024
307.0,79.42045073868853,78.2455132471468,79.97664185841309,78.57683588099279,75.98146778272921,78.63841169824505
315.0,79.15688321762688,78.01221131730412,79.84765546168086,78.3970109584921,75.68609551471938,78.43047419445502
325.0,79.027293076326,77.81221131730412,79.68976668674269,78.29701095849212,75.61367850524003,78.29238293474576
335.0,78.827293076326,77.4736579956131,79.56217284322425,78.0451930740902,75.3636000925108,78.07237631107243
345.0,78.50725572476942,77.09648093119279,79.53503666253579,77.8567293884887,74.93062432129013,77.84152679782483
355.0,78.41783180539818,76.77733804770723,79.44993477072839,77.64941576207707,74.40263829654639,77.64843470701864
365.0,78.54551324714681,76.78410602856404,79.52143504805737,77.7069111633111,74.05307928018097,77.68194732555132
375.0,78.38431611112004,76.63663221994149,79.52143504805737,77.82155959485134,73.66118463368464,77.61003119170628
387.0,78.32990323738763,76.29261144195235,79.453168325774,77.59917697425581,73.35404577787246,77.4509115939186
400.0,78.06974812466213,75.96706253240184,79.353168325774,77.44988209401573,72.78442602322444,77.23233450795617
412.0,77.78410602856404,75.56706253240183,79.16834944527164,77.24297242223162,72.07076413993742,76.95050024192314
425.0,77.43334382031217,75.08451209987139,78.88584478270525,76.84297242223163,71.4998721726298,76.57930891848092
437.0,77.1505296195753,74.72763891218162,78.72960114815672,76.58282272919888,71.07206374723312,76.32564876075942
450.0,77.3505296195753,74.80343964558696,78.85804750770427,76.69677124692521,71.06494748301375,76.4532649336751
462.0,77.57502467370212,74.97133135723617,78.96834944527166,76.94798095844213,71.33709349833124,76.63912090349643
475.0,77.83334382031218,75.3473749975298,79.17957853804005,77.29421913157668,71.84353109344649,76.93168238434238
487.0,77.85850688597978,75.44737499752979,79.23503666253579,77.54894489224041,72.29015595425149,77.0550924474169
500.0,77.57502467370212,75.14568966441865,79.10643868292291,77.47936427345259,72.30584548590186,76.88939494418425
515.0,76.99300898615355,74.24713603638028,78.73503666253579,77.0203020500651,71.76373720854632,76.36934271012966
530.0,76.44575098704303,73.63116667845212,78.37697831124076,76.67226892563437,71.36541968789234,75.9367373337557
545.0,75.75566844981063,73.35913116793391,78.13503666253578,76.41734171487438,70.84238612789143,75.5717199297044
560.0,75.01106442469529,73.9311666784521,78.02468988447455,76.02295863902437,69.98349246687125,75.31137933048784
580.0,74.55123700462454,74.85811815459935,78.1040903112201,76.05296061940226,69.96941919574087,75.41529156644377
600.0,74.98276205486083,74.75811815459936,78.36007484994508,76.32821700383933,70.57206246710405,75.66557975067718
615.0,76.06357217969035,73.61106442469529,78.78832295037265,76.64267018294024,71.23150563070307,75.98697763588801
630.0,77.15811815459936,72.1193430804628,79.263155723579,76.93979844041765,71.43650974785852,76.35506862165616
650.0,77.27195666397127,72.3193430804628,79.76315572357899,77.23880861207331,71.48528153308682,76.6677560936307
670.0,77.01478625522591,72.48966736441854,80.00984402426202,77.43387459803938,71.64171528460535,76.78036322558928
690.0,76.93065684514752,72.43595834978304,80.01410977951842,77.3755808181537,71.99584734489159,76.7697237549644
710.0,77.01394106963956,72.36322754025176,80.03841966231782,76.95427283765244,72.44440887707577,76.73113712210288
730.0,77.17997849559916,72.66155808125815,80.13841966231782,76.7080451393244,72.34610407617508,76.77531440948603
750.0,77.42987574448651,72.982541895994,80.363155723579,76.66485038223823,71.96728977843874,76.9206047619718
775.0,77.54731375467505,73.5597533011193,80.40409031122012,76.79917965143633,72.00030952646635,77.04155059311555
800.0,76.93961389771478,74.03551215778366,80.14765546168087,77.58885621089708,73.41758002812468,77.11930348430259
825.0,74.63965528758803,73.88259429993833,79.52041348399207,78.35391884928531,74.72138952248432,76.83424359229487
850.0,71.33748505527386,72.55446100220954,78.79173347759252,77.71947548889521,74.13426234114958,75.85198559036299
875.0,70.48379047569573,71.19127417123165,79.43290063249883,76.88949060463314,72.66329384928807,75.54893164816053
900.0,72.98646328480127,70.49742074115866,80.20911533636279,76.70494002850602,71.45700537489036,75.95165175981998
925.0,74.59125556291903,70.16312437219699,80.3091153363628,76.60361927384389,70.36012060180902,76.08854531621691
950.0,75.70289863421411,70.70071128943367,79.9571058515821,76.29181489246045,69.05165045953574,75.98926925880095
975.0,75.9160064040257,70.50787683532285,79.56589939395398,75.46634857461841,67.55973407033768,75.60349707480525
1000.0,75.63522407583984,70.53072477794916,79.54038999115208,75.14201758382963,66.104183245875,75.43106198569497
1030.0,75.1326965098316,69.23228236557925,79.54587284878578,74.98367245540804,64.72045916131394,75.19891852791993
1060.0,74.80433415059545,66.5964809311928,79.35452129560495,74.71157125524124,64.92199674257942,74.87655043024922
1090.0,74.64209904696685,65.80920769823861,79.29382149930399,73.94829544793295,64.86664185795577,74.64823992916206
1120.0,74.12357931659844,65.65850688597979,79.76168897509267,73.77256400915375,64.77355945131062,74.80074023405068
1150.0,74.17439688279212,67.31783180539817,80.05208555171517,73.84832326672391,63.849758646336184,75.03600669492539
1180.0,73.72211217034103,66.5022971017394,80.36112075956228,74.51292443602031,63.8106341560718,75.24718752155482
1220.0,73.29577888884488,65.75251435024954,80.45108411477956,75.0246399559591,64.601584027627,75.3339670670175
1250.0,72.63222668452714,65.06940283549586,80.30663740274694,74.83471898380598,65.10404935268222,75.1199677865071
1280.0,71.78579095216601,65.5086118724495,80.16437869980065,74.32498516964283,64.92222291160311,74.8479974506667
1320.0,70.46764340341899,65.24140428116444,79.99614662721947,73.74442602822032,64.32500196014716,74.49576013834738
1360.0,70.00296334611897,65.30871401345198,80.61484475709112,75.01267058224148,64.96839796947913,75.14454992491133
1400.0,70.43245379362189,67.18442670956027,80.40598154673698,75.10199546515408,64.73241815658832,75.0899491413244
1450.0,69.95684402551271,69.94279040209503,79.53436909171874,74.43135402242767,64.96403565966655,74.48649166415287
1500.0,69.42062288616431,70.65603189706403,78.7893620798992,73.6155529990165,64.35836052038614,73.86579956421616
1550.0,69.62543708633459,71.78942880250386,78.0893620798992,73.30875191633044,64.85538307022823,73.5472839208703
1600.0,70.52418604785258,73.55035958460451,77.74649454177539,73.09502304456639,64.93447867403427,73.69060815317671
1650.0,72.11317257067343,75.06974812466214,77.89544565592708,72.70099065950005,63.26951969493619,74.1745545254631
1700.0,73.09875140727635,75.51326473652783,78.56528257744034,72.14391895080078,61.48853711258167,74.64370105078406
1750.0,74.60071128943366,74.91534610721712,79.7577588438231,71.76291466609032,59.31520801442811,75.32227615971952
1800.0,76.44706450210911,75.62128047235215,80.33121520092804,72.83866851394511,61.280908144463325,76.21397099162475
1850.0,78.3678551850347,75.39073937829994,80.09084644946572,72.85667663748005,63.05475843427939,76.56504658996131
1900.0,80.26706253240185,76.1366308361447,80.20079621344901,73.40733787352791,64.54373078538866,77.43382766272018
1950.0,81.34815345313947,76.93236482252335,80.4936581236371,74.57116227600152,64.12237487576293,78.18246732320803
2000.0,80.75961695961882,76.80395031309807,80.16049149195038,74.56786243896336,63.59659607334119,77.80607612376595
2060.0,81.28267619645975,76.76706916646488,79.8936581236371,74.12373344035193,64.85141134794569,77.90063480310738
2120.0,81.56120418597177,76.648563156532,79.69544565592709,73.91622717670782,63.37955697118683,77.91726280340677
2180.0,80.82703586995802,76.80394885313954,79.3131040873114,73.89611122421793,62.28448834598527,77.48919632137353
2240.0,80.2625703912279,75.94464475548631,78.73209557552634,72.35039303302722,62.21057558788904,76.79544349415914
2300.0,80.02411336182094,74.52666557383931,78.18624219738611,71.77456715574637,61.81635891452298,76.26013900404553
2360.0,80.062955441793,74.28404488084361,78.28038549618606,72.51848536629285,61.495729791020196,76.33165845423939
2400.0,80.66932219371611,74.93559718641167,79.00625088743251,72.95302237299782,62.97627342953929,76.97385644785416
2500.0,80.28912836036505,74.61853008644442,79.87939056444658,73.93106665565763,63.32331135707069,77.15972473762822
2580.0,80.02563819212004,74.61815393459734,80.31026889752376,73.24181701996001,62.6431739674169,77.1582255185321
2650.0,79.34066531127766,72.9207681609706,80.7273234363498,72.61205102155246,63.275213811685916,76.88617450676627
2720.0,77.72757745000992,72.91743443506552,80.84213788588853,72.12921489410441,63.66804298720305,76.41255096983593
2800.0,77.45665633781985,72.60787683532284,80.98402096278114,71.83699638526703,63.239988086830465,76.36908251190432
2900.0,77.43439553167075,73.84660157336943,81.06145523155324,73.22682383016891,64.53700924638814,76.64998533726117
3000.0,77.22823470650444,73.49536269019136,80.52736145136771,72.3156767478579,65.31286634928328,76.20218708415291
3070.0,76.81979911362139,72.7040243187204,80.23608515689632,73.02690930825688,64.43290236436165,75.91416763577593
3150.0,76.09381284888745,71.81131930097571,79.68014099418433,71.95957317247976,63.16888408598744,75.22525775670746
3250.0,76.14874681434141,71.81820224901176,79.34716692685174,73.0973351027021,63.45650993556853,75.18675892502868
