Freq "Rear Wall Bounce"
22.4 -5.766897442327561
23.0 -4.554727174957307
23.6 -3.203479465358825
24.0 0.2674027685495588
25.0 3.2227470845325428
25.8 5.617412185772636
26.5 7.87361066175383
27.2 11.780986600364756
28.0 14.518193949838846
29.0 16.27750962775751
30.0 17.766592679527903
30.7 20.185393020759804
31.5 21.564469694307874
32.5 21.998536639047686
33.5 26.096718920424067
34.5 30.635814764389394
35.5 36.839793966689584
36.5 38.796161846532115
37.5 40.27649025780592
38.7 41.38292365865509
40.0 42.37667198684896
41.2 44.30227810191708
42.5 46.93456154489566
43.7 48.39253199285578
45.0 51.320069165341394
46.2 54.84135790364685
47.5 58.42598069992739
48.7 63.83362774588754
50.0 68.06576127659521
51.5 66.21127204669556
53.0 66.96310253711736
54.5 66.9121766482799
56.0 68.3499246467622
58.0 70.73299956922291
60.0 72.49115658947632
61.5 73.95275296043347
63.0 75.57609293503029
65.0 77.16420976233546
67.0 78.43692194740635
69.0 79.49305286252485
71.0 80.4036834240131
73.0 81.30937303615458
75.0 82.04481788443377
77.5 82.64845142341836
80.0 83.22198177051587
82.5 83.72435640598049
85.0 84.06233048880873
87.5 84.109370574692
90.0 84.09045020328635
92.5 83.99085730020617
95.0 83.77304220693668
97.5 83.44015732041615
100.0 82.90405065261969
103.0 82.53902032205454
106.0 82.072378105624
109.0 81.655899774065
112.0 81.43540279398978
115.0 81.49465045976184
118.0 81.49209820721816
122.0 81.39232350584267
125.0 81.26983065028558
128.0 81.25097357928131
132.0 81.29134041289669
136.0 81.30699315722315
140.0 81.10365452377671
145.0 81.09293191939732
150.0 80.94898885201627
155.0 80.84665081814332
160.0 80.78194656684313
165.0 80.62869337001341
170.0 80.56583579655701
175.0 80.49825023802238
180.0 80.47338169922779
185.0 80.57256086022467
190.0 80.71354448583507
195.0 80.64095952842025
200.0 80.33252941719415
206.0 79.58931224217943
212.0 78.65326932067492
218.0 77.62894787625608
224.0 76.85255082428685
230.0 76.59861831328095
236.0 76.37828430027315
240.0 76.04500048896757
250.0 75.75386990408484
258.0 75.49863180514771
265.0 75.36416540923808
272.0 75.7434471501149
280.0 76.21241596521246
290.0 76.5315426708403
300.0 76.34762515942465
307.0 75.98146778272921
315.0 75.68609551471938
325.0 75.61367850524003
335.0 75.3636000925108
345.0 74.93062432129013
355.0 74.40263829654639
365.0 74.05307928018097
375.0 73.66118463368464
387.0 73.35404577787246
400.0 72.78442602322444
412.0 72.07076413993742
425.0 71.4998721726298
437.0 71.07206374723312
450.0 71.06494748301375
462.0 71.33709349833124
475.0 71.84353109344649
487.0 72.29015595425149
500.0 72.30584548590186
515.0 71.76373720854632
530.0 71.36541968789234
545.0 70.84238612789143
560.0 69.98349246687125
580.0 69.96941919574087
600.0 70.57206246710405
615.0 71.23150563070307
630.0 71.43650974785852
650.0 71.48528153308682
670.0 71.64171528460535
690.0 71.99584734489159
710.0 72.44440887707577
730.0 72.34610407617508
750.0 71.96728977843874
775.0 72.00030952646635
800.0 73.41758002812468
825.0 74.72138952248432
850.0 74.13426234114958
875.0 72.66329384928807
900.0 71.45700537489036
925.0 70.36012060180902
950.0 69.05165045953574
975.0 67.55973407033768
1000.0 66.104183245875
1030.0 64.72045916131394
1060.0 64.92199674257942
1090.0 64.86664185795577
1120.0 64.77355945131062
1150.0 63.849758646336184
1180.0 63.8106341560718
1220.0 64.601584027627
1250.0 65.10404935268222
1280.0 64.92222291160311
1320.0 64.32500196014716
1360.0 64.96839796947913
1400.0 64.73241815658832
1450.0 64.96403565966655
1500.0 64.35836052038614
1550.0 64.85538307022823
1600.0 64.93447867403427
1650.0 63.26951969493619
1700.0 61.48853711258167
1750.0 59.31520801442811
1800.0 61.280908144463325
1850.0 63.05475843427939
1900.0 64.54373078538866
1950.0 64.12237487576293
2000.0 63.59659607334119
2060.0 64.85141134794569
2120.0 63.37955697118683
2180.0 62.28448834598527
2240.0 62.21057558788904
2300.0 61.81635891452298
2360.0 61.495729791020196
2400.0 62.97627342953929
2500.0 63.32331135707069
2580.0 62.6431739674169
2650.0 63.275213811685916
2720.0 63.66804298720305
2800.0 63.239988086830465
2900.0 64.53700924638814
3000.0 65.31286634928328
3070.0 64.43290236436165
3150.0 63.16888408598744
3250.0 63.45650993556853
3350.0 61.65382698307759
3450.0 59.23292451756838
3550.0 58.04073677443533
3650.0 56.07958693578128
3750.0 55.88846362310623
3870.0 55.678026438956024
4000.0 56.01932672870426
4120.0 57.272611224401714
4250.0 58.90354578254605
4370.0 60.45216841191929
4500.0 60.06001636470555
4620.0 60.203343340739906
4750.0 59.263633288630075
4870.0 60.68584794558275
5000.0 60.63696628117047
5150.0 62.15006894031754
5300.0 60.63527478299531
5450.0 62.175530824486046
5600.0 60.225585366307
5800.0 58.946451735582286
6000.0 59.516467658033875
6150.0 58.63161779930165
6300.0 57.80822132533477
6500.0 57.054910416402194
6700.0 54.733545987297774
6900.0 53.09761458712815
7100.0 52.18437946332763
7300.0 53.686831941561266
7500.0 55.579595539770494
7750.0 56.37308752715252
8000.0 54.72889610660509
8250.0 53.56165579891196
8500.0 52.07735841301205
8750.0 52.85444704485461
9000.0 54.33419372672806
9250.0 55.077018800473226
9500.0 54.031928598854265
9750.0 53.807086805273016
10000.0 54.48270156376877
10300.0 54.78927945118072
10600.0 52.624401308103
10900.0 53.33833510892184
11200.0 55.98329451249283
11500.0 54.45856185274074
11800.0 53.77945939204487
12200.0 52.149325138570944
12500.0 52.7294059748351
12800.0 50.9558119937558
13200.0 49.03153375265204
13600.0 50.10022827731312
14000.0 51.585804906000575
14500.0 52.180397412386455
15000.0 52.054806888171115
15500.0 49.38846948206678
16000.0 51.34592779458133
16500.0 52.950181928280315
17000.0 49.549901418652595
17500.0 49.94909961024199
18000.0 48.32331084757082
18500.0 47.90484197856081
19000.0 48.43424535365075
19500.0 45.47938830864872
