Freq "Side Wall Bounce"
22.4 -5.517738545493572
23.0 -4.187218073056599
23.6 -2.802907755060673
24.0 0.4057102978342044
25.0 3.0051148948323743
25.8 4.8265582257191255
26.5 6.100022719299133
27.2 9.618286042474509
28.0 12.199983921585428
29.0 13.84239448407088
30.0 15.653034063458122
30.7 18.77398992720869
31.5 20.78720023393184
32.5 22.30926361089915
33.5 26.743846451806448
34.5 31.210017631406473
35.5 37.57981784403698
36.5 40.09495301168407
37.5 42.00878118482707
38.7 42.7818406557907
40.0 41.87592585984986
41.2 41.63573408161416
42.5 43.93918849971364
43.7 47.93329744339725
45.0 52.903073816731776
46.2 55.19218613560692
47.5 57.32700266115826
48.7 60.0157830198937
50.0 62.31555991264494
51.5 64.98918829845007
53.0 68.4879185505806
54.5 68.35067717148394
56.0 69.68151306984613
58.0 72.16239670292916
60.0 73.91911116734902
61.5 75.23381412321928
63.0 76.64427043747477
65.0 78.0253256543221
67.0 79.17080781807923
69.0 80.02564906718429
71.0 80.6962542617588
73.0 81.41680628165739
75.0 81.95717975036978
77.5 82.37652554726391
80.0 82.85532952208975
82.5 83.31541653536512
85.0 83.575144057253
87.5 83.575144057253
90.0 83.4557815629289
92.5 83.31496027327431
95.0 83.09532697738463
97.5 82.95532952208974
100.0 82.71728384251175
103.0 82.69670206312112
106.0 82.47651482450625
109.0 82.29810872814689
112.0 82.14408101477052
115.0 82.25994395458927
118.0 82.31770799041956
122.0 82.27698586494434
125.0 82.03818036323257
128.0 81.79762905397152
132.0 81.63634293260604
136.0 81.55624408444905
140.0 81.31818545213558
145.0 81.27928794153124
150.0 81.21770799041957
155.0 81.19762905397151
160.0 81.21865199478827
165.0 81.08066811421126
170.0 81.04138981047153
175.0 80.9022634974777
180.0 80.72098519280563
185.0 80.60045298596111
190.0 80.51961777547174
195.0 80.22425129558795
200.0 79.85359622174472
206.0 79.43260659326897
212.0 79.25714745407534
218.0 79.10912442579728
224.0 79.05723638238693
230.0 78.83158763784951
236.0 78.44030741457065
240.0 78.15518577448599
250.0 78.06599866137948
258.0 78.15226579172486
265.0 78.43979844041765
272.0 78.73675025903745
280.0 78.8437920630484
290.0 78.82641416107002
300.0 78.71156818982098
307.0 78.57683588099279
315.0 78.3970109584921
325.0 78.29701095849212
335.0 78.0451930740902
345.0 77.8567293884887
355.0 77.64941576207707
365.0 77.7069111633111
375.0 77.82155959485134
387.0 77.59917697425581
400.0 77.44988209401573
412.0 77.24297242223162
425.0 76.84297242223163
437.0 76.58282272919888
450.0 76.69677124692521
462.0 76.94798095844213
475.0 77.29421913157668
487.0 77.54894489224041
500.0 77.47936427345259
515.0 77.0203020500651
530.0 76.67226892563437
545.0 76.41734171487438
560.0 76.02295863902437
580.0 76.05296061940226
600.0 76.32821700383933
615.0 76.64267018294024
630.0 76.93979844041765
650.0 77.23880861207331
670.0 77.43387459803938
690.0 77.3755808181537
710.0 76.95427283765244
730.0 76.7080451393244
750.0 76.66485038223823
775.0 76.79917965143633
800.0 77.58885621089708
825.0 78.35391884928531
850.0 77.71947548889521
875.0 76.88949060463314
900.0 76.70494002850602
925.0 76.60361927384389
950.0 76.29181489246045
975.0 75.46634857461841
1000.0 75.14201758382963
1030.0 74.98367245540804
1060.0 74.71157125524124
1090.0 73.94829544793295
1120.0 73.77256400915375
1150.0 73.84832326672391
1180.0 74.51292443602031
1220.0 75.0246399559591
1250.0 74.83471898380598
1280.0 74.32498516964283
1320.0 73.74442602822032
1360.0 75.01267058224148
1400.0 75.10199546515408
1450.0 74.43135402242767
1500.0 73.6155529990165
1550.0 73.30875191633044
1600.0 73.09502304456639
1650.0 72.70099065950005
1700.0 72.14391895080078
1750.0 71.76291466609032
1800.0 72.83866851394511
1850.0 72.85667663748005
1900.0 73.40733787352791
1950.0 74.57116227600152
2000.0 74.56786243896336
2060.0 74.12373344035193
2120.0 73.91622717670782
2180.0 73.89611122421793
2240.0 72.35039303302722
2300.0 71.77456715574637
2360.0 72.51848536629285
2400.0 72.95302237299782
2500.0 73.93106665565763
2580.0 73.24181701996001
2650.0 72.61205102155246
2720.0 72.12921489410441
2800.0 71.83699638526703
2900.0 73.22682383016891
3000.0 72.3156767478579
3070.0 73.02690930825688
3150.0 71.95957317247976
3250.0 73.0973351027021
3350.0 72.79617507848985
3450.0 71.97160508834679
3550.0 71.77258927371669
3650.0 70.95197011356287
3750.0 70.53027907221266
3870.0 70.16827648937577
4000.0 69.50166482318582
4120.0 70.78537284101996
4250.0 72.63687714753321
4370.0 73.4727075069315
4500.0 73.72605443874329
4620.0 73.91766902159023
4750.0 72.84585906621348
4870.0 72.16790971156786
5000.0 72.75210801375509
5150.0 74.44245937919261
5300.0 73.9742783922188
5450.0 74.4666693148214
5600.0 72.2836781954082
5800.0 72.29604394742562
6000.0 72.43616682531066
6150.0 71.60853807571688
6300.0 71.96831577496073
6500.0 71.92345197256739
6700.0 70.86050416333619
6900.0 69.28123100361866
7100.0 68.01276810366093
7300.0 68.32163809670742
7500.0 67.89892358392466
7750.0 67.67104599660713
8000.0 67.6182202903667
8250.0 68.34717631588413
8500.0 69.28102934770622
8750.0 69.09158342301102
9000.0 68.83355569322413
9250.0 69.83020489689264
9500.0 70.26835759686304
9750.0 69.89094002633867
10000.0 68.56960755105642
10300.0 68.61154372416543
10600.0 68.86791470415397
10900.0 71.32966137195953
11200.0 71.4327208258032
11500.0 70.76952306400679
11800.0 69.66348412637963
12200.0 68.20368273748663
12500.0 66.82242946134753
12800.0 64.72008155578528
13200.0 62.75181975484064
13600.0 65.94454975597608
14000.0 66.87124142100305
14500.0 66.25006289008236
15000.0 66.77726830316567
15500.0 66.9811472281199
16000.0 65.97266608650487
16500.0 65.3913161573981
17000.0 63.112982634729576
17500.0 64.04097465606573
18000.0 62.40456947164748
18500.0 61.47048139239283
19000.0 62.10806502428322
19500.0 58.877796732899085
