Freq "Front Wall Bounce"
20.0 21.394561916268742
20.2909 22.013409579974677
20.586 22.623257273411525
20.8855 23.24453985385358
21.1893 23.95081433609215
21.4975 24.727219217812205
21.8102 25.507067009752575
22.1274 26.213914831403287
22.4492 26.78802935799112
22.7758 27.205029357991123
23.1071 27.496877248388927
23.4432 27.754573118263465
23.7841 28.092557244201515
24.1301 28.556253231705114
24.4811 29.08381074306888
24.8372 29.57294161551485
25.1984 29.951216388515434
25.5649 30.225912632065587
25.9368 30.490470315539966
26.3141 30.889601403259576
26.6968 31.519724495960475
27.0851 32.33557276049612
27.4791 33.18997892969682
27.8788 33.934536861519916
28.2843 34.51238522428497
28.6957 34.94906667992484
29.1131 35.32491513099623
29.5365 35.741321762968255
29.9661 36.27260486020177
30.402 36.92801165616751
30.8442 37.653135402859505
31.2929 38.36783268812894
31.748 39.032523027049336
32.2098 39.64137177292665
32.6783 40.20977909178245
33.1536 40.75446186331868
33.6359 41.285020567709665
34.1251 41.80771840211642
34.6215 42.33985077092461
35.125 42.908817563944154
35.6359 43.53038314858941
36.1543 44.17307475200286
36.6802 44.79575855826852
37.2137 45.38289136491838
37.755 45.96258988534163
38.3041 46.562708478096965
38.8613 47.17811722224181
39.4265 47.78609981874578
40.0 48.37878457534072
40.5818 48.96863409456287
41.1721 49.56132721006303
41.771 50.14673659039778
42.3785 50.7171460956516
42.9949 51.293845534824
43.6203 51.87896548084737
44.2548 52.45522521193175
44.8985 53.00963526543026
45.5515 53.568769391548585
46.2141 54.14531396646137
46.8863 54.70515047757543
47.5683 55.222845457081405
48.2602 55.73610640409365
48.9621 56.269091380000575
49.6743 56.798652134376255
50.3968 57.29506327429709
51.1299 57.77260961139744
51.8736 58.25173638348886
52.6281 58.720717478685174
53.3936 59.172979844319926
54.1702 59.61039178169149
54.9581 60.03508880586135
55.7575 60.44350103089232
56.5685 60.8351984667496
57.3914 61.20589615117788
58.2261 61.549308826838256
59.073 61.87315594260083
59.9323 62.182270943899056
60.804 62.460556335108905
61.6884 62.719254986417724
62.5857 62.9712305630169
63.496 63.19192973047548
64.4196 63.366343431207625
65.3566 63.52348048559125
66.3073 63.68103163462824
67.2717 63.81515698803332
68.2502 63.934294416806566
69.2429 64.0959947990098
70.2501 64.22440932376271
71.2719 64.32539630856735
72.3086 64.53609743590106
73.3603 64.65666066431868
74.4274 64.6810852213124
75.5099 64.77363882224859
76.6083 64.8434888889999
77.7226 64.93890442869439
78.8531 65.03375477118377
80.0 65.12445733049972
81.1636 65.21216013812388
82.3442 65.29229920430365
83.5419 65.35443724036038
84.757 65.41385358355303
85.9899 65.487992993947
87.2406 65.53669677580214
88.5096 65.58083576311682
89.797 65.61368763678647
91.1031 65.63039213337171
92.4282 65.64667969329903
93.7726 65.67738452393361
95.1366 65.7158125345371
96.5204 65.770665207388
97.9243 65.84780572575036
99.3486 65.94065866505754
100.794 66.02751176585465
102.26 66.12065258987242
103.747 66.21079417242068
105.256 66.31393525413368
106.787 66.37978896407265
108.34 66.42893024650031
109.916 66.48278422302425
111.515 66.55936132781201
113.137 66.64121561817353
114.783 66.7085043176257
116.452 66.77021187751797
118.146 66.82621353545099
119.865 66.87764446116972
121.608 66.948210461447
123.377 67.03107564409105
125.171 67.12093085804743
126.992 67.19593304716676
128.839 67.27407549399042
130.713 67.35093110751225
132.615 67.43165667792485
134.543 67.51279940129797
136.5 67.60108892727784
138.486 67.68037850062433
140.5 67.76952143405272
142.544 67.85052435416729
144.617 67.84938074874499
146.721 67.87967056943802
148.855 67.97296043752621
151.02 68.06410375291787
153.217 68.09410713831616
155.445 68.01639717754435
157.706 67.9716872641888
160.0 68.06797739825419
162.327 68.18983457441121
164.688 68.28755780866595
167.084 68.43284808502152
169.514 68.49041513756494
171.98 68.23842878005489
174.481 68.2149958904867
177.019 68.21428633812208
179.594 68.12357683321322
182.206 68.11357683321323
184.856 68.14486737576469
187.545 68.15115796578108
190.273 68.08659505677467
193.041 68.08959505677468
195.849 68.14816234936923
198.697 68.25017645456823
201.587 68.21917645456824
204.52 68.25661367756591
207.494 68.29719069035177
210.512 68.28190448536421
213.574 68.14162797887163
216.681 68.08991885267855
219.833 68.20463269567526
223.03 68.28135623554394
226.274 68.28135623554394
229.565 68.18764719453696
232.905 68.18151728883791
236.292 68.20237079898044
239.729 68.29524094865249
243.216 68.32967364978549
246.754 68.28896465451095
250.343 68.31711119180535
253.984 68.27583495302406
257.678 68.23355876027622
261.426 68.08470534501441
265.229 68.02429974842946
269.087 68.09402371239257
273.001 68.16117038271818
276.972 68.10432737237258
281.0 68.07248930573456
285.088 68.13108445955321
289.234 68.30966440082977
293.441 68.42525992635817
297.709 68.19285570191364
302.04 68.28845172746047
306.433 67.97721101979681
310.89 67.89553260555309
315.412 67.75027683192083
320.0 67.78776320130933
324.655 67.73952528882174
329.377 67.86072214098047
334.168 68.03492505116554
339.028 67.84528939008959
343.959 67.78592924075622
348.962 67.80831569390696
354.038 67.60697792417352
359.188 67.55850372562031
364.412 67.61762544577819
369.713 67.60973591044987
375.09 67.60029067162192
380.546 67.52713553075267
386.081 67.57998378931711
391.697 67.44367041181458
397.394 67.39323830266466
403.175 67.54366034423994
409.039 67.52091150466607
414.989 67.52160855898477
421.025 67.48483829882855
427.149 67.4005136488561
433.362 67.44857852695542
439.665 67.49737538809438
446.06 67.45743293474672
452.548 67.48832318118615
459.131 67.55336363157554
465.809 67.65995899798367
472.584 67.69584065111152
479.458 67.65870459182904
486.432 67.79700488571193
493.507 67.84615507673057
500.686 67.8310192314784
507.968 67.8868741800798
515.357 67.88173846111162
522.853 67.89788879974493
530.458 67.90517202101074
538.174 67.86976817583286
546.002 67.8280691575342
553.943 67.78439722934222
562.001 67.71743977016779
570.175 67.66221451385088
578.469 67.5957317588691
586.883 67.49682127491391
595.419 67.40680554796099
604.08 67.32968643932412
612.866 67.24487457680348
621.78 67.16925988039775
630.824 67.10611978368448
640.0 67.05789458550916
649.309 67.02684549903334
658.753 67.0140175901632
668.335 67.02128550544128
678.056 67.04816736721682
687.919 67.09555169288905
697.925 67.1605730518478
708.077 67.24052121124016
718.376 67.33365841258983
728.825 67.43642693039119
739.426 67.54583984132208
750.181 67.65785965431282
761.093 67.76979411113993
772.163 67.876396546709
783.394 67.97687546000896
794.789 68.0707634512423
806.349 68.15377083268869
818.078 68.22669625953469
829.977 68.28970662025438
842.05 68.34368345392667
854.298 68.39077817327036
866.724 68.43279888951746
879.33 68.47423614093029
892.12 68.51712341813486
905.097 68.56483331669844
918.262 68.61938319062385
931.618 68.68092405970638
945.169 68.74829018400635
958.917 68.81638148095146
972.864 68.8802671651811
987.015 68.93012955249094
1001.37 68.95103304931628
1015.94 68.93699709730745
1030.71 68.87483186282087
1045.71 68.7498672079063
1060.92 68.54862985459121
1076.35 68.26543110069693
1092.0 67.89109614629712
1107.89 67.42000081460047
1124.0 66.86686986027543
1140.35 66.2634644296487
1156.94 65.667058792766
1173.77 65.1883711622111
1190.84 64.95155677119953
1208.16 65.04289196519242
1225.73 65.45915003274126
1243.56 66.09897940507106
1261.65 66.82362046420371
1280.0 67.52087537198321
1298.62 68.12221599931664
1317.51 68.59599913314378
1336.67 68.92328384621278
1356.11 69.09669623413234
1375.84 69.1209099478489
1395.85 69.00666588526488
1416.15 68.77506962572593
1436.75 68.45694441632773
1457.65 68.09002896581251
1478.85 67.72048432229317
1500.36 67.39569586471723
1522.19 67.14231839341674
1544.33 66.96259326573778
1566.79 66.83165612205264
1589.58 66.70949935092878
1612.7 66.55927790513194
1636.16 66.3568581088128
1659.95 66.10056954069896
1684.1 65.81419222032763
1708.6 65.53989667268664
1733.45 65.32665570503386
1758.66 65.20358787383245
1784.24 65.16990930224972
1810.19 65.1930188262882
1836.52 65.22431843899767
1863.24 65.22083499724812
1890.34 65.15993344071622
1917.83 65.0429640144623
1945.73 64.89136721316791
1974.03 64.7356022923284
2002.74 64.60656252746719
2031.87 64.52040331417368
2061.43 64.47420665312657
2091.41 64.45517541361188
2121.83 64.44721492008507
2152.69 64.44528919576851
2184.01 64.45194440953514
2215.77 64.47982906008731
2248.0 64.54313425471871
2280.7 64.64990392205237
2313.87 64.79600739559973
2347.53 64.9623169767699
2381.68 65.11237349218041
2416.32 65.20505649637181
2451.46 65.20155492083288
2487.12 65.08766289336899
2523.3 64.8926107221435
2560.0 64.70640100749375
2597.24 64.65297486482929
2635.01 64.80909217554296
2673.34 65.12935086395089
2712.23 65.47161008678194
2751.68 65.70722627001973
2791.7 65.79430390261321
2832.31 65.80254879327916
2873.5 65.85896499088872
2915.3 66.03152453592571
2957.7 66.24877658838517
3000.72 66.36739122813661
3044.37 66.31261604208532
3088.65 66.16035548485944
3133.58 66.09383422342118
3179.16 66.22949257695676
3225.4 66.48772667987647
3272.31 66.71626537022803
3319.91 66.87324988696614
3368.2 67.02879737778643
3417.19 67.23273956871012
3466.89 67.44322376740354
3517.32 67.63080020630244
3568.48 67.87029265715643
3620.39 68.22811999555283
3673.05 68.59657428050414
3726.47 68.76256765827624
3780.67 68.64816824987892
3835.67 68.40449765544167
3891.46 68.2551255655984
3948.06 68.22883333322369
4005.49 68.19752266099005
4063.75 68.14738397001975
4122.86 68.15104831020062
4182.82 68.15541368228958
4243.66 68.08987825673127
4305.39 68.08737476199879
4368.01 68.22664990107559
4431.55 68.27672093101468
4496.01 68.12673744465218
4561.4 68.06200171237231
4627.75 68.16110060150787
4695.06 68.11831606666911
4763.35 68.05841962811569
4832.64 68.33388460786574
4902.93 68.59307438876134
4974.24 68.56187982327833
5046.6 68.76441089161347
5120.0 69.40625015640867
5194.47 70.08922330691883
5270.03 70.64455191682354
5346.68 70.84654619589752
5424.45 70.5257675472904
5503.35 70.0370529969732
5583.4 69.5341305366118
5664.61 68.7994056670514
5747.01 68.28810919722855
5830.6 68.12190075104829
5915.41 68.03560448180414
6001.45 68.18104974270025
6088.74 67.89284135538233
6177.3 67.40064344748944
6267.15 67.41927877951223
6358.31 67.23217087652306
6450.8 67.29850861381816
6544.62 67.45902432531346
6639.82 67.397894884101
6736.4 67.44435040225906
6834.38 67.19861599894332
6933.79 67.20386412177253
7034.64 66.57689831832496
7136.96 65.65809159314631
7240.77 65.18431718766924
7346.09 65.15619565816257
7452.94 65.68969755272495
7561.35 66.06336235575702
7671.33 66.64936468286199
7782.91 66.86547091971416
7896.12 67.22305955348295
8010.97 67.1098280961576
8127.49 67.33921956225427
8245.71 67.39261530739601
8365.65 67.42696440349403
8487.33 66.9496618494272
8610.78 66.47430831431072
8736.03 65.63082551267185
8863.09 65.03466799391143
8992.01 64.94269986772284
9122.8 65.590907959765
9255.5 66.7539736897299
9390.12 67.32231085556957
9526.7 67.53098622610834
9665.27 67.48510465515787
9805.86 67.59041553623825
9948.49 67.75554354761017
10093.2 67.8457012279801
10240.0 68.05025844586751
10388.9 68.21029590858326
10540.1 68.37851583491852
10693.4 68.7590297044817
10848.9 69.15992549382081
11006.7 69.52366793623993
11166.8 69.81772003670675
11329.2 69.82005655610469
11494.0 69.62509767190892
11661.2 69.48464582557307
11830.8 69.45130937948176
12002.9 69.42798838406617
12177.5 69.46319521185782
12354.6 69.47764063721876
12534.3 69.34277754022989
12716.6 68.99475964094803
12901.6 68.52004450567922
13089.2 67.95928214244138
13279.6 67.4776496904351
13472.8 67.07117923731604
13668.8 66.77832295245491
13867.6 66.66863664134715
14069.3 66.60172759140343
14273.9 66.52543097188376
14481.5 66.37960240722553
14692.2 66.31653969899342
14905.9 66.35996473595337
15122.7 66.34752652508736
15342.7 66.00369178969186
15565.8 65.51725492719943
15792.2 65.07914248902071
16021.9 64.73085823982137
16255.0 64.4669543095037
16491.4 64.14774905540867
16731.3 63.79562157660112
16974.7 63.46995010252411
17221.6 63.30748388692261
17472.1 63.193473263356765
17726.2 62.95097797870474
17984.0 62.58302526673522
18245.6 62.264508401241756
18511.0 62.02972645086112
18780.2 61.789151567779754
19053.4 61.59413197977794
19330.5 61.482546198994385
19611.7 61.435857965801304
19897.0 61.29992994700592
