Freq "Rear Wall Bounce"
20.0 21.99469903592336
20.2909 22.609468616865342
20.586 23.215773181930103
20.8855 23.833064201033608
21.1893 24.535814062872618
21.4975 25.308118834804105
21.8102 26.08268332226021
22.1274 26.785965112831406
22.4492 27.355372238587137
22.7758 27.76739763771255
23.1071 28.055009002479153
23.4432 28.307447888363498
23.7841 28.640376438104084
24.1301 29.09940117704295
24.4811 29.62148231874346
24.8372 30.105244396509846
25.1984 30.47843727945559
25.5649 30.747019912709646
25.9368 31.005680663733926
26.3141 31.399545605782066
26.6968 32.023937993100986
27.0851 32.83239934302961
27.4791 33.680782483024444
27.8788 34.4186456393559
28.2843 34.990287591625474
28.6957 35.42025601778093
29.1131 35.788709573389184
29.5365 36.19830072961733
29.9661 36.72228099094019
30.402 37.370019557315345
30.8442 38.08756943640935
31.2929 38.7942720415449
31.748 39.45061865746504
32.2098 40.05236260061022
32.6783 40.61153404515454
33.1536 41.14750572926951
33.6359 41.6695583104796
34.1251 42.183424571581725
34.6215 42.70649952151501
35.125 43.26623239014535
35.6359 43.877774741189256
36.1543 44.51063521481018
36.6802 45.123424243854174
37.2137 45.70054058349527
37.755 46.27072772577495
38.3041 46.85888681096249
38.8613 47.46364337215353
39.4265 48.06081168389818
40.0 48.64246105409728
40.5818 49.22030393452434
41.1721 49.80215145513375
41.771 50.37433290038838
42.3785 50.93385828771241
42.9949 51.49749539246902
43.6203 52.07004113952988
44.2548 52.63320609579313
44.8985 53.17495496895776
45.5515 53.720748952999145
46.2141 54.28365049640507
46.8863 54.82949286665726
47.5683 55.333132764659354
48.2602 55.831880158351595
48.9621 56.3498331444506
49.6743 56.865004098171184
50.3968 57.346487252230276
51.1299 57.8081743328722
51.8736 58.271346888092566
52.6281 58.72508576111467
53.3936 59.16078945023986
54.1702 59.58214617018817
54.9581 59.989838567671
55.7575 60.38169422696163
56.5685 60.7567115039662
57.3914 61.10955876059134
58.2261 61.43509615308977
59.073 61.741625669344884
59.9323 62.03212373731914
60.804 62.29265616409147
61.6884 62.53266422905767
62.5857 62.76614782960621
63.496 62.967174118632045
64.4196 63.12302786374828
65.3566 63.25977030606619
66.3073 63.397522017009024
67.2717 63.51164907923807
68.2502 63.61102792291993
69.2429 63.751580962724475
70.2501 63.85980712814458
71.2719 63.93998677758418
72.3086 64.129425584371
73.3603 64.22923538130807
74.4274 64.23178492510478
75.5099 64.30274937435249
76.6083 64.35072969744164
77.7226 64.42464223647643
78.8531 64.49677252372551
80.0 64.56496432485434
81.1636 64.63056236647977
82.3442 64.68765693400654
83.5419 64.72689735394874
84.757 64.76339970765436
85.9899 64.81529198388938
87.2406 64.8397411556929
88.5096 64.8611991531599
89.797 64.87055744495804
91.1031 64.86391479013116
92.4282 64.85617981107079
93.7726 64.86300847297699
95.1366 64.87826216618171
96.5204 64.90889089912554
97.9243 64.96167180040459
99.3486 65.03109808361965
100.794 65.09330711253871
102.26 65.16247132672594
103.747 65.22931010108987
105.256 65.30815996049998
106.787 65.34933693427868
108.34 65.37476591313887
109.916 65.40493960700726
111.515 65.45716160317635
113.137 65.51501132972132
114.783 65.55807990701267
116.452 65.5961593231014
118.146 65.62838408475466
119.865 65.6563628957962
121.608 65.70371021548777
123.377 65.76289629616473
125.171 65.82844642703418
126.992 65.8802755357232
128.839 65.93535125356784
130.713 65.98859034304606
132.615 66.04648241543472
134.543 66.10467461889219
136.5 66.16954589926416
138.486 66.22791402801496
140.5 66.29473418781197
142.544 66.35156804125774
144.617 66.32914229589846
146.721 66.33887507221046
148.855 66.40970871724495
151.02 66.47864492993864
153.217 66.48718060361307
155.445 66.38879646688946
157.706 66.3240243312222
160.0 66.39939148963406
162.327 66.50038517147584
164.688 66.5788122739539
167.084 66.70433722682668
169.514 66.74098429658413
171.98 66.46904059167055
174.481 66.42687650351287
177.019 66.40830883171867
179.594 66.29857057461484
182.206 66.26905698023475
184.856 66.28174499276814
187.545 66.27076037537773
190.273 66.18793349417994
193.041 66.17319921594496
195.849 66.21467916184021
198.697 66.2986481062027
201.587 66.25039767466323
204.52 66.27109938166431
207.494 66.29485099163318
210.512 66.26243603253177
213.574 66.10572410847494
216.681 66.03827764455274
219.833 66.13639168157889
223.03 66.19672725902721
226.274 66.18044183787225
229.565 66.07042914400087
232.905 66.04864930572103
236.292 66.05315235357278
239.729 66.12956171047298
243.216 66.14786404293024
246.754 66.09022161986672
250.343 66.10132407411294
253.984 66.04199893440946
257.678 65.98227900791755
261.426 65.81524282927019
265.229 65.73531543217113
269.087 65.78540817237456
273.001 65.83255509792947
276.972 65.75512245861961
281.0 65.70051760267518
285.088 65.73447791730894
289.234 65.88737713240899
293.441 65.97536773396763
297.709 65.71419723798105
302.04 65.77949313609028
306.433 65.43431771520785
310.89 65.31489429800374
315.412 65.12901772080325
320.0 65.1233853897192
324.655 65.02868964398795
329.377 65.10063229165307
334.168 65.21731000488192
339.028 64.96603789284866
343.959 64.84167795466713
348.962 64.7944646167715
354.038 64.5204435662412
359.188 64.39234990653983
364.412 64.3657218111096
369.713 64.2692617920441
375.09 64.16942135738635
380.546 64.00147584736428
386.081 63.95912699777139
391.697 63.72622520036525
397.394 63.578183892657776
403.175 63.63756911479895
409.039 63.52600894100044
414.989 63.44028304276192
421.025 63.32319270864676
427.149 63.16490010753995
433.362 63.145450850127105
439.665 63.1288296976676
446.06 63.029928357685904
452.548 63.00685686892503
459.131 63.02114167462396
465.809 63.079309304691435
472.584 63.06957734344434
479.458 62.9881395053805
486.432 63.082692659023536
493.507 63.086246918484846
500.686 63.02367937457831
507.968 63.030356448558905
515.357 62.97454594118376
522.853 62.93532143632841
530.458 62.883465146784204
538.174 62.78461308044885
546.002 62.67748295671197
553.943 62.56309042402907
562.001 62.42101061789333
570.175 62.286422081656326
578.469 62.137162399387904
586.883 61.95473122372718
595.419 61.78216618101692
604.08 61.622988056910046
612.866 61.45810200110489
621.78 61.30606742366395
630.824 61.17092759109126
640.0 61.0581225856256
649.309 60.96950948196451
658.753 60.903288923575744
668.335 60.85930031275967
678.056 60.83688647296441
687.919 60.8329575164189
697.925 60.842407142798066
708.077 60.85964080290627
718.376 60.880069373330016
728.825 60.898501134563475
739.426 60.91012222055778
750.181 60.91181146214046
761.093 60.89957519108464
772.163 60.87289490943262
783.394 60.82944801624683
794.789 60.76923545274548
806.349 60.695241488217164
818.078 60.607492978195324
829.977 60.509468689441775
842.05 60.40402680802791
854.298 60.29507781496386
866.724 60.188180370258635
879.33 60.083036044327116
892.12 59.98429503881975
905.097 59.893776429083715
918.262 59.81082457081773
931.618 59.734443681686145
945.169 59.66042394856407
958.917 59.58404148255224
972.864 59.49741938320568
987.015 59.39128624701121
1001.37 59.24967967489276
1015.94 59.06782179770387
1030.71 58.83624449380676
1045.71 58.53606200397418
1060.92 58.152249058430485
1076.35 57.683273834873745
1092.0 57.11791509896622
1107.89 56.44784910539725
1124.0 55.69501452423086
1140.35 54.906572096590324
1156.94 54.168956680835805
1173.77 53.64226066885371
1190.84 53.48347005823504
1208.16 53.748559097193436
1225.73 54.35162307399905
1243.56 55.119817393133516
1261.65 55.88827350394514
1280.0 56.5553828648047
1298.62 57.06939217012858
1317.51 57.40835496404108
1336.67 57.55808397660455
1356.11 57.51338409354388
1375.84 57.27352532490309
1395.85 56.84399557095125
1416.15 56.24442346322212
1436.75 55.50986422963955
1457.65 54.69103019893031
1478.85 53.875776229569425
1500.36 53.176112720265934
1522.19 52.66732644282729
1544.33 52.35850171012217
1566.79 52.18104782209734
1589.58 52.03163925761885
1612.7 51.82908844102974
1636.16 51.53956747318432
1659.95 51.18639853486583
1684.1 50.84370544138869
1708.6 50.60810364585353
1733.45 50.543464618561515
1758.66 50.632923858182764
1784.24 50.789313261130545
1810.19 50.90313024712651
1836.52 50.894891048977414
1863.24 50.729170384294775
1890.34 50.42318665043983
1917.83 50.0443150842878
1945.73 49.696340244488
1974.03 49.47784920885856
2002.74 49.433581462892974
2031.87 49.52241887962235
2061.43 49.66021195966857
2091.41 49.778322108557134
2121.83 49.85190160445666
2152.69 49.898810157256534
2184.01 49.95645257578734
2215.77 50.05355737323936
2248.0 50.186484566041514
2280.7 50.32149285914021
2313.87 50.412805804716115
2347.53 50.4188058543173
2381.68 50.314777875300265
2416.32 50.10069937704782
2451.46 49.80885408208057
2487.12 49.508760116800985
2523.3 49.28985145075771
2560.0 49.21740827998826
2597.24 49.28562426014902
2635.01 49.431861546722715
2673.34 49.588443441003946
2712.23 49.72469662721508
2751.68 49.838045000631155
2791.7 49.92127041875523
2832.31 49.967127591591776
2873.5 50.00824662870869
2915.3 50.12433147596373
2957.7 50.36802028141733
3000.72 50.661225534465586
3044.37 50.83106936530771
3088.65 50.77412951012249
3133.58 50.57886628136343
3179.16 50.482846612569915
3225.4 50.614821924708735
3272.31 50.8061538632588
3319.91 50.831021282408955
3368.2 50.7023324397297
3417.19 50.64301940275418
3466.89 50.75119743895627
3517.32 50.82863379192332
3568.48 50.71503209849246
3620.39 50.570119252694326
3673.05 50.6625013863172
3726.47 50.929180168001025
3780.67 51.08829321828537
3835.67 51.1188331564657
3891.46 51.22886130602599
3948.06 51.44344431485308
4005.49 51.544327526961084
4063.75 51.54770274482635
4122.86 51.751743149556404
4182.82 52.19810053337858
4243.66 52.537532820166604
4305.39 52.66842912773069
4368.01 52.85574234925795
4431.55 53.177266096651095
4496.01 53.393512963515235
4561.4 53.54097003205632
4627.75 53.811612872232075
4695.06 54.025449726720026
4763.35 54.0614058737968
4832.64 54.23443558522885
4902.93 54.491119379406086
4974.24 54.3972029879009
5046.6 54.14640792113545
5120.0 54.10175568832622
5194.47 53.847970927659674
5270.03 53.17318423095385
5346.68 52.4951777174079
5424.45 51.868077489153606
5503.35 51.3758175032504
5583.4 51.08554686546776
5664.61 50.72024700212721
5747.01 50.84662660081075
5830.6 51.34858267799925
5915.41 51.5064634077757
6001.45 51.649466258262876
6088.74 51.752181681057536
6177.3 51.99766789356636
6267.15 52.46404778127261
6358.31 52.64313435984637
6450.8 53.03448113286788
6544.62 53.236046729202386
6639.82 53.212409611524635
6736.4 53.37176063816199
6834.38 53.141433370339854
6933.79 53.09955882054352
7034.64 52.49456050647093
7136.96 51.56207587925347
7240.77 50.80205115008735
7346.09 49.94872960603061
7452.94 49.743575581845064
7561.35 49.486635747092265
7671.33 50.044280529435724
7782.91 50.23352590068731
7896.12 50.78344491849063
8010.97 50.53171800468928
8127.49 50.72778880983468
8245.71 50.35424192535885
8365.65 50.63585138499323
8487.33 50.34344282262725
8610.78 50.52053205158697
8736.03 50.29576618934544
8863.09 50.27981512097759
8992.01 50.15887874076424
9122.8 50.17472899443675
9255.5 49.919954631177305
9390.12 49.36870514473847
9526.7 49.24587536388586
9665.27 48.94502494323325
9805.86 48.981407643947804
9948.49 48.66304864837193
10093.2 47.77895998906378
10240.0 46.96445727231118
10388.9 46.41016366637936
10540.1 46.48838105645571
10693.4 47.085592346932145
10848.9 47.42800371811843
11006.7 47.40004481493925
11166.8 46.88825106379976
11329.2 46.11780835725013
11494.0 45.93576790055053
11661.2 46.449579905662375
11830.8 47.21252350710634
12002.9 47.70423618278832
12177.5 47.968381712654775
12354.6 47.86670322193079
12534.3 47.326379599533794
12716.6 46.6284603709276
12901.6 45.88736221171149
13089.2 45.17183589259318
13279.6 44.74858351710495
13472.8 44.901226897691174
13668.8 45.35708184102218
13867.6 45.25478947496626
14069.3 44.55120795029194
14273.9 43.6325684759621
14481.5 43.269380282287784
14692.2 42.23017531652539
14905.9 42.950847503920784
15122.7 43.7179142994562
15342.7 43.6904056820581
15565.8 43.306997110812375
15792.2 42.64030016634885
16021.9 42.017824269600936
16255.0 41.36524480628924
16491.4 40.77297637096743
16731.3 40.399000949784295
16974.7 40.04551587903907
17221.6 39.40104578784451
17472.1 38.54104455894898
17726.2 37.37564046753354
17984.0 36.06880473866204
18245.6 35.13948453478332
18511.0 34.59456336789401
18780.2 34.078689657896064
19053.4 33.54490955919675
19330.5 33.09185201864361
19611.7 32.71593113198969
19897.0 32.538793201207454
