Freq "Total Early Reflection"
20.5078 61.0992226884932
21.9727 61.6674790893025
23.4375 63.93220933225105
24.9023 65.32868158370852
26.3672 66.84851231164491
27.832 68.33262189261956
29.2969 69.8636530627977
30.7617 71.23921405919064
32.2266 72.70782063932411
33.6914 74.06264156421304
35.1563 75.29564582826035
36.6211 76.51364261026013
38.0859 77.57916069230423
39.5508 78.57019470479187
41.0156 79.53436642158006
42.4805 80.41098631665511
43.9453 81.07554400137823
45.4102 81.73909226504536
46.875 82.31924600317944
48.3398 82.78726720308745
51.2695 83.61658567932486
52.7344 83.9417431780214
54.1992 84.21919716909524
55.6641 84.4923222673594
58.5938 85.00787933225266
60.0586 85.1920009344697
62.9883 85.47211398656971
64.4531 85.60814889170999
67.3828 85.81572554631842
68.8477 85.86881284255962
71.7773 86.08518172956764
74.707 86.35812058612848
77.6367 86.47386692837198
79.1016 86.48648771496576
82.0313 86.536713616101
84.9609 86.61811788627533
87.8906 86.6275170417129
90.8203 86.58443350151916
95.2148 86.65853239972782
98.1445 86.65984702218952
101.074 86.6503842611689
105.469 86.46196937456
108.398 86.55287527476604
112.793 86.60908855375382
117.188 86.529583597856
120.117 86.49900128425372
124.512 86.52829971696325
128.906 86.3760135878295
133.301 86.24016323423201
139.16 86.05134224851194
143.555 85.94441864565742
147.949 85.81562285215081
153.809 85.69684729935727
159.668 85.67179250798009
165.527 85.65896881722922
171.387 85.58297784843805
177.246 85.38741757816584
183.105 85.02336213058418
188.965 84.94318296396573
196.289 84.90785759129172
203.613 84.71149358432984
210.938 84.59729179062504
218.262 84.50325154385902
225.586 84.3724859184697
232.91 84.36737548612265
241.699 84.29581767695828
250.488 84.00610418221049
259.277 84.42833302471807
268.066 83.7307635766613
276.855 83.68749591384994
287.109 83.64573393626416
297.363 83.31123974285421
307.617 83.6975102612318
319.336 83.21643581085712
329.59 83.33151303577031
341.309 83.37649131935359
353.027 83.45987048644542
366.211 84.01483537778103
379.395 84.63307860234715
392.578 84.16756529823897
405.762 83.54637049294809
420.41 83.7914231982775
435.059 83.58938569488961
451.172 84.15368016498088
465.82 83.77540823995442
483.398 83.38370007478981
499.512 83.83693770312263
517.09 83.88897310606684
536.133 84.22574767115539
555.176 85.04877301178989
574.219 85.13275395728594
594.727 85.28553041445686
615.234 85.55745636514067
637.207 85.13867627285724
659.18 85.05063394360033
682.617 85.06482660962754
707.52 85.14559047429407
732.422 84.97066980250648
757.324 85.04380315357511
785.156 85.28399746349777
811.523 84.84162990709171
840.82 84.96030285567264
870.117 84.72884270667048
900.879 84.8061544300632
933.105 84.56551875195973
965.332 84.50501029246814
1000.49 84.34357478169417
1035.64 83.97291198676439
1072.27 83.69944589325453
1108.89 83.3364412723765
1148.44 82.58455385908235
1189.45 81.96390485480643
1230.47 82.21328524612433
1274.41 82.22423674249403
1319.82 81.94711787323935
1366.7 81.59023935252203
1413.57 81.388062889796
1463.38 81.9143455001377
1516.11 82.52424771163754
1568.85 82.24911695840349
1624.51 81.66796859464239
1681.64 82.08721203514416
1741.7 83.0345839136513
1803.22 82.94997716617672
1866.21 82.90643522063209
1932.13 83.51429861769627
1999.51 83.18704765443191
2069.82 83.49883940955952
2143.07 83.58047592511394
2219.24 83.85401903051384
2296.88 83.93104247246492
2378.91 83.92054702146633
2462.4 84.1420066008746
2548.83 84.03594108575108
2639.65 84.37792971411807
2731.93 84.44393247121542
2828.61 84.35365409482311
2928.22 84.56659102004289
3030.76 84.64478545454736
3137.7 84.4107811604999
3249.02 84.33577884065387
3363.28 84.16159892721211
3481.93 84.0841535715285
3604.98 83.85238498468931
3732.42 83.71720126173197
3864.26 83.78408727221976
4000.49 83.51447819653279
4141.11 83.50354390781878
4287.6 83.28406081181035
4438.48 83.14809316899913
4595.21 82.91915892766724
4756.35 82.63838788648016
4924.8 82.31823246664761
5097.66 82.30958453567808
5277.83 82.11283157015842
5463.87 81.86386994956533
5657.23 81.73358548356543
5856.45 81.51600134863793
6062.99 81.18653376698849
6276.86 81.12516392131081
6498.05 81.33813522007898
6726.56 81.47310532500683
6963.87 81.48501143717246
7209.96 81.3492250184073
7464.84 81.22520919043535
7727.05 81.2199214235533
7999.51 81.17565752217857
8282.23 81.11816032708684
8573.73 81.29470254365688
8876.95 81.45824673724466
9188.96 81.63213063274024
9514.16 81.7579172783694
9849.61 81.7688552608972
10196.8 81.75087432579818
10555.7 81.70796532650132
10927.7 81.43371040857184
11313.0 80.93801663608738
11712.9 80.56501876432853
12126.0 80.40306200111759
12553.7 80.01464287816151
12996.1 79.22112909545116
13454.6 78.30090703466797
13929.2 77.70067949202942
14419.9 77.21085321395103
14928.2 76.96464962654655
15455.6 76.72867046540716
16000.5 76.2204727788218
16564.5 75.48940616788019
17148.9 74.72276655970603
17752.4 74.28251535702924
18379.4 73.94702420815355
19026.9 73.5258443063788
19697.8 72.99660812706843
19999.5 72.83017573205707
