Freq "Side Wall Bounce"
22.4 53.17841619136765
23.0 53.39635567182288
23.6 53.553551853119565
24.0 53.735619437106344
25.0 55.17930870497792
25.8 56.91885560495789
26.5 58.1790928057328
27.2 59.19969077516992
28.0 60.06245184374341
29.0 60.82688889709954
30.0 61.50626448810748
30.7 62.093026940815555
31.5 62.614686691731656
32.5 63.11965899174219
33.5 63.51965899174221
34.5 63.91965899174222
35.5 64.3024825884846
36.5 64.66089014760624
37.5 64.51377284012926
38.7 64.04512748202691
40.0 63.67515888188225
41.2 63.33916536242098
42.5 63.089837388150066
43.7 62.90281972752583
45.0 62.72090833068281
46.2 62.536043199353095
47.5 62.39612427377539
48.7 62.29387021425588
50.0 62.19251769492978
51.5 62.08913127455582
53.0 62.00801908994348
54.5 61.928166995016845
56.0 61.86401482065133
58.0 61.76401482065133
60.0 61.72251939614076
61.5 61.66213480580067
63.0 61.62111243765535
65.0 61.64027672897047
67.0 61.64027672897047
69.0 61.62018505541588
71.0 61.60046051294918
73.0 61.62111243765535
75.0 61.601842002960076
77.5 61.58109801862508
80.0 61.58109801862508
82.5 61.56073004666428
85.0 61.54073299106128
87.5 61.5206434330808
90.0 61.54073299106128
92.5 61.56119474234182
95.0 61.56209250034818
97.5 61.58245409849446
100.0 61.562557050273675
103.0 61.562557050273675
106.0 61.50183128020242
109.0 61.44165599637156
112.0 61.38156054014522
115.0 61.322476703019696
118.0 61.28338957194298
122.0 61.24256842471029
125.0 61.18338957194299
128.0 61.08338957194298
132.0 61.0252366727071
136.0 60.985649076239945
140.0 60.985649076239945
145.0 60.985649076239945
150.0 61.00685289384959
155.0 60.98881208402047
160.0 60.99117509502738
165.0 60.91235201541553
170.0 60.8544429425558
175.0 60.75444294255579
180.0 60.75444294255579
185.0 60.6722137210486
190.0 60.6722137210486
195.0 60.713698372796294
200.0 60.713698372796294
206.0 60.735756385626566
212.0 60.6825756194447
218.0 60.42690673918212
224.0 60.27035016750465
230.0 60.233263759056165
236.0 60.233263759056165
240.0 60.31533255447389
250.0 60.41691328001442
258.0 60.51691328001444
265.0 60.538955011579084
272.0 60.48060007782727
280.0 60.44657925221912
290.0 60.32870305374572
300.0 60.228703053745726
307.0 60.228703053745726
315.0 60.392855144381876
325.0 60.428703053745714
335.0 60.3492214286909
345.0 60.213073357609694
355.0 60.08007849772428
365.0 59.93725704434319
375.0 60.113073357609686
387.0 60.180078497724274
400.0 59.97471991168087
412.0 59.88943732613151
425.0 59.97745503330474
437.0 60.01307335760968
450.0 60.00183731821691
462.0 59.73688464551716
475.0 59.72232741418828
487.0 59.75173061676619
500.0 60.00444609958591
515.0 59.9841875890533
530.0 59.537257044343185
545.0 59.568647829459415
560.0 59.493079471235994
580.0 58.890739769377355
600.0 58.46517702050664
615.0 58.24745877297104
630.0 57.966437129289154
650.0 57.946060905761435
670.0 58.20601393569027
690.0 57.937263574326515
710.0 58.04094070037747
730.0 58.46805855597456
750.0 58.17177288020931
775.0 58.013463520849406
800.0 57.91713408010833
825.0 57.65391420867136
850.0 57.71743159807237
875.0 57.662999925903115
900.0 58.03695653572304
925.0 58.11105789751996
950.0 57.901823779432725
975.0 57.77628892838852
1000.0 57.628791031630094
1030.0 57.34758436949111
1060.0 56.80512418900049
1090.0 56.61619688174475
1120.0 56.34462604230236
1150.0 56.37554330581941
1180.0 56.35019490120805
1220.0 56.49347943501642
1250.0 56.45986333937454
1280.0 56.13178101700624
1320.0 56.40595521502119
1360.0 56.38840595552585
1400.0 56.23772077122626
1450.0 55.968174040313436
1500.0 56.23197257622312
1550.0 56.187725096590235
1600.0 56.2702488928603
1650.0 56.22438840787999
1700.0 56.27780445571076
1750.0 56.20434775126146
1800.0 56.351148372380045
1850.0 56.56966069454278
1900.0 56.442557315726056
1950.0 56.31923730794585
2000.0 55.869212494077935
2060.0 56.02483808179897
2120.0 56.32333734050167
2180.0 56.381359064322744
2240.0 56.43597888181068
2300.0 56.90792879288686
2360.0 56.48790300316448
2400.0 55.65134719499999
2500.0 54.81057238032347
2580.0 54.737588746046065
2650.0 54.82581502629366
2720.0 55.361555155998
2800.0 55.29467386620126
2900.0 55.65745665868541
3000.0 55.30234692320294
3070.0 55.39109864445921
3150.0 55.43394334639661
3250.0 54.95562817886805
3350.0 55.28741286171901
3450.0 55.765762806847015
3550.0 55.750420447302155
3650.0 55.573727590418564
3750.0 55.199341101736344
3870.0 54.98518323846864
4000.0 55.261834326168604
4120.0 55.67456060072663
4250.0 55.50373928564813
4370.0 55.27511190649853
4500.0 55.07403161798562
4620.0 54.66214162019586
4750.0 54.56554020509767
4870.0 54.809165425829995
5000.0 54.435505146571366
5150.0 53.8768620470884
5300.0 53.91696807413998
5450.0 53.837248884172375
5600.0 53.997329285592706
5800.0 54.26321628909846
6000.0 54.77517509054504
6150.0 54.67287141618076
6300.0 54.403016648202104
6500.0 54.56258591302679
6700.0 54.27354743164158
6900.0 53.613505363516204
7100.0 53.66128751439944
7300.0 53.726596758766895
7500.0 53.64933516168747
7750.0 54.381953034594765
8000.0 54.675784925585184
8250.0 54.93235844305922
8500.0 54.990755982069906
8750.0 54.716144942845055
9000.0 54.866801008886945
9250.0 54.93633566799519
9500.0 55.13604268502909
9750.0 55.14913144196296
10000.0 55.421390830313946
10300.0 55.39963548520682
10600.0 55.57757875525785
10900.0 55.74003327888223
11200.0 55.9936369297808
11500.0 56.04932410076618
11800.0 56.098436182881095
12200.0 56.25595094438018
12500.0 56.07949022878969
12800.0 55.005936177761676
13200.0 54.104917183520236
13600.0 54.17848156728714
14000.0 54.775563140627916
14500.0 55.47224506934567
15000.0 55.860178589549726
15500.0 55.84568649786447
16000.0 55.19011721687375
16500.0 54.12460213089026
17000.0 53.62856789369658
17500.0 53.3477713892617
18000.0 52.85209503605504
18500.0 52.482085077551055
19000.0 51.845591585152256
19500.0 51.4037668226568
