Freq "Side Wall Bounce"
22.4 53.17841619136767
23.0 53.39635567182287
23.6 53.553551853119565
24.0 53.735619437106344
25.0 55.179308704977934
25.8 56.91885560495789
26.5 58.179092805732786
27.2 59.199690775169934
28.0 60.062451843743396
29.0 60.82688889709954
30.0 61.5062644881075
30.7 62.093026940815555
31.5 62.61468669173167
32.5 63.119658991742206
33.5 63.5196589917422
34.5 63.91965899174222
35.5 64.3024825884846
36.5 64.66089014760627
37.5 64.51377284012926
38.7 64.04512748202691
40.0 63.67515888188223
41.2 63.33916536242098
42.5 63.08983738815005
43.7 62.90281972752583
45.0 62.720908330682796
46.2 62.53604319935308
47.5 62.39612427377539
48.7 62.29387021425588
50.0 62.19251769492978
51.5 62.08913127455582
53.0 62.00801908994348
54.5 61.928166995016845
56.0 61.86401482065131
58.0 61.76401482065132
60.0 61.722519396140775
61.5 61.66213480580068
63.0 61.62111243765536
65.0 61.640276728970484
67.0 61.640276728970484
69.0 61.620185055415895
71.0 61.60046051294916
73.0 61.62111243765536
75.0 61.60184200296009
77.5 61.58109801862508
80.0 61.58109801862508
82.5 61.56073004666428
85.0 61.54073299106128
87.5 61.520643433080814
90.0 61.54073299106128
92.5 61.56119474234183
95.0 61.56209250034818
97.5 61.58245409849443
100.0 61.56255705027366
103.0 61.56255705027366
106.0 61.50183128020243
109.0 61.44165599637157
112.0 61.38156054014522
115.0 61.32247670301968
118.0 61.28338957194297
122.0 61.24256842471028
125.0 61.183389571942975
128.0 61.08338957194298
132.0 61.0252366727071
136.0 60.98564907623996
140.0 60.98564907623996
145.0 60.98564907623996
150.0 61.006852893849576
155.0 60.98881208402049
160.0 60.991175095027366
165.0 60.912352015415514
170.0 60.8544429425558
175.0 60.75444294255579
180.0 60.75444294255579
185.0 60.6722137210486
190.0 60.6722137210486
195.0 60.71369837279628
200.0 60.71369837279628
206.0 60.735756385626566
212.0 60.6825756194447
218.0 60.42690673918214
224.0 60.27035016750464
230.0 60.23326375905615
236.0 60.23326375905615
240.0 60.31533255447389
250.0 60.416913280014434
258.0 60.51691328001443
265.0 60.538955011579084
272.0 60.48060007782727
280.0 60.44657925221913
290.0 60.32870305374572
300.0 60.22870305374571
307.0 60.22870305374571
315.0 60.39285514438186
325.0 60.42870305374573
335.0 60.34922142869092
345.0 60.21307335760968
355.0 60.080078497724266
365.0 59.93725704434319
375.0 60.113073357609686
387.0 60.18007849772426
400.0 59.97471991168087
412.0 59.88943732613151
425.0 59.97745503330476
437.0 60.01307335760969
450.0 60.00183731821692
462.0 59.736884645517144
475.0 59.72232741418828
487.0 59.75173061676616
500.0 60.00444609958593
515.0 59.98418758905331
530.0 59.5372570443432
545.0 59.568647829459415
560.0 59.493079471235994
580.0 58.890739769377355
600.0 58.46517702050662
615.0 58.24745877297105
630.0 57.96643712928914
650.0 57.94606090576142
670.0 58.20601393569029
690.0 57.9372635743265
710.0 58.04094070037747
730.0 58.468058555974544
750.0 58.17177288020931
775.0 58.01346352084942
800.0 57.91713408010835
825.0 57.653914208671345
850.0 57.71743159807237
875.0 57.662999925903115
900.0 58.03695653572304
925.0 58.11105789751995
950.0 57.90182377943274
975.0 57.7762889283885
1000.0 57.62879103163011
1030.0 57.347584369491095
1060.0 56.80512418900049
1090.0 56.61619688174476
1120.0 56.34462604230237
1150.0 56.37554330581943
1180.0 56.35019490120805
1220.0 56.49347943501642
1250.0 56.45986333937453
1280.0 56.13178101700624
1320.0 56.40595521502119
1360.0 56.38840595552586
1400.0 56.23772077122624
1450.0 55.968174040313436
1500.0 56.23197257622311
1550.0 56.187725096590235
1600.0 56.27024889286029
1650.0 56.22438840787999
1700.0 56.27780445571076
1750.0 56.20434775126146
1800.0 56.35114837238006
1850.0 56.5696606945428
1900.0 56.442557315726056
1950.0 56.31923730794583
2000.0 55.86921249407795
2060.0 56.02483808179898
2120.0 56.32333734050166
2180.0 56.38135906432276
2240.0 56.43597888181069
2300.0 56.90792879288687
2360.0 56.48790300316448
2400.0 55.65134719499998
2500.0 54.81057238032347
2580.0 54.73758874604611
2650.0 54.82581502629366
2720.0 55.361555155998
2800.0 55.29467386620127
2900.0 55.657456658685426
3000.0 55.302346923202926
3070.0 55.39109864445921
3150.0 55.43394334639661
3250.0 54.95562817886806
3350.0 55.28741286171901
3450.0 55.765762806847
3550.0 55.75042044730214
3650.0 55.573727590418564
3750.0 55.19934110173636
3870.0 54.98518323846864
4000.0 55.26183432616859
4120.0 55.674560600726615
4250.0 55.50373928564813
4370.0 55.27511190649853
4500.0 55.07403161798562
4620.0 54.66214162019585
4750.0 54.56554020509764
4870.0 54.80916542583001
5000.0 54.43550514657135
5150.0 53.8768620470884
5300.0 53.916968074139994
5450.0 53.83724888417236
5600.0 53.99732928559269
5800.0 54.26321628909847
6000.0 54.77517509054503
6150.0 54.67287141618075
6300.0 54.40301664820212
6500.0 54.56258591302679
6700.0 54.27354743164158
6900.0 53.61350536351622
7100.0 53.66128751439944
7300.0 53.726596758766895
7500.0 53.64933516168747
7750.0 54.38195303459478
8000.0 54.67578492558517
8250.0 54.93235844305922
8500.0 54.99075598206992
8750.0 54.71614494284507
9000.0 54.86680100888693
9250.0 54.93633566799517
9500.0 55.13604268502909
9750.0 55.14913144196297
10000.0 55.421390830313946
10300.0 55.39963548520682
10600.0 55.57757875525784
10900.0 55.74003327888223
11200.0 55.99363692978081
11500.0 56.04932410076618
11800.0 56.098436182881095
12200.0 56.25595094438018
12500.0 56.07949022878967
12800.0 55.00593617776169
13200.0 54.10491718352022
13600.0 54.17848156728713
14000.0 54.7755631406279
14500.0 55.47224506934567
15000.0 55.860178589549726
15500.0 55.845686497864484
16000.0 55.19011721687375
16500.0 54.12460213089023
17000.0 53.62856789369658
17500.0 53.34777138926169
18000.0 52.852095036055026
18500.0 52.48208507755104
19000.0 51.84559158515227
19500.0 51.40376682265681
