Freq,On Axis,Listening Window,Sound Power,Early Reflections,Early Reflections DI,Sound Power DI,DI offset
20.5078,67.4147,67.39234721032564,70.77001890624447,68.33111767815495,39.061229532170685,36.622328304081165,40
21.9727,68.3989,68.3916598852946,72.6320661166701,69.75500410192849,38.63665578336611,35.7595937686245,40
23.4375,70.2179,70.22279627029248,74.06917395133877,71.42095175681932,38.801844513473156,36.15362231895371,40
24.9023,72.8636,72.88766869408143,76.4080426051027,74.00251761503927,38.88515107904216,36.47962608897873,40
26.3672,75.1074,75.14330514394003,78.16620371487532,76.09099625609255,39.052308887847474,36.9771014290647,40
27.832,76.4412,76.47432181700331,79.05733201677863,77.25735833755844,39.21696347944487,37.416989800224684,40
29.2969,77.54639999999999,77.58304178526602,79.93234308778511,78.28801843605962,39.2950233492064,37.650698697480905,40
30.7617,78.3361,78.37449963657487,80.4609515093452,79.00536376568614,39.36913587088873,37.913548127229674,40
32.2266,78.7281,78.76613434436658,80.65504079741002,79.3360264510683,39.43010789329827,38.11109354695655,40
33.6914,79.13079999999998,79.16895703472862,80.89650418026694,79.68951647227725,39.47944056245137,38.272452854461676,40
35.1562,79.4184,79.45666905956772,81.06963329680268,79.94179931481828,39.51486974474943,38.38703576276504,40
36.6211,79.71639999999998,79.75431127023298,81.25664970133076,80.20565458439864,39.54865668583433,38.49766156890222,40
38.0859,80.0491,80.08634859483736,81.48642635943988,80.50460611576037,39.58174247907699,38.599922235397486,40
39.5508,80.3519,80.3883815850537,81.70535609781234,80.77996566809618,39.60841591695751,38.68302548724135,40
41.0156,80.6429,80.67827807511163,81.91766006010691,81.04366486795529,39.63461320715635,38.760618015004724,40
42.4805,80.96850000000002,81.00311588414142,82.18232472577581,81.34863044656288,39.65448543757854,38.82079115836561,40
43.9453,81.3053,81.33884998345648,82.46325811098767,81.66404987976757,39.67480010368891,38.87559187246882,40
45.4102,81.6242,81.65680355464389,82.72889167955897,81.96450041307155,39.69230314157234,38.92791187508492,40
46.875,82.0254,82.05731451916756,83.08043190755531,82.35054207936504,39.70677243980252,38.976882611612254,40
48.3398,82.3571,82.38832714868288,83.36766489510096,82.66895960377997,39.71936754490291,39.02066225358192,40
51.2695,83.04090000000001,83.06807933006073,83.91934767464477,83.29710159444723,39.7709777356135,39.14873165541596,40
52.7344,83.4095,83.43327955775521,84.18416479016672,83.62021590866463,39.81306364909058,39.249114767588495,40
54.1992,83.7514,83.7737942818091,84.47422327729429,83.93912529938513,39.83466898242398,39.29957100451482,40
55.6641,84.0821,84.1034980036375,84.76355389288801,84.25572631590963,39.84777168772787,39.339944110749485,40
58.5938,84.6367,84.65711885921297,85.27140907587383,84.79771690289347,39.8594019563195,39.38570978333914,40
60.0586,84.93579999999999,84.95504296975628,85.52975629995916,85.08118613539763,39.87385683435865,39.42528666979712,40
62.9883,85.3273,85.34423460504134,85.84746448515601,85.4404023051765,39.90383229986483,39.496770119885326,40
64.4531,85.5336,85.54991771754985,86.03232821387029,85.63699277876098,39.91292493878886,39.51758950367956,40
67.3828,86.15219999999998,86.16806780711242,86.63394871347472,86.25312733026054,39.91494047685188,39.5341190936377,40
68.8477,86.333,86.3482825324606,86.81650368624717,86.43656029704275,39.911722235417855,39.53177884621343,40
71.7773,86.7417,86.75058279677546,87.0766713728765,86.77387605250242,39.976706744273045,39.67391142389896,40
74.707,87.1261,87.13018490631833,87.35217449014071,87.10833983964086,40.02184506667747,39.77801041617762,40
77.6367,87.4245,87.42477426943928,87.53045550372086,87.35466625376517,40.07010801567411,39.894318765718424,40
79.1016,87.47190000000002,87.47234795021825,87.57569743778372,87.40204496346716,40.07030298675109,39.89665051243453,40
82.0312,87.51710000000001,87.51708482219613,87.62898318614673,87.44981056258186,40.067274259614265,39.8881016360494,40
84.9609,87.7001,87.69506986907965,87.72045145226043,87.58558177487433,40.10948809420532,39.97461841681921,40
87.8906,87.7827,87.7748914714604,87.75524494341333,87.64956703558691,40.125324435873495,40.019646528047076,40
90.8203,87.9133,87.90346297165799,87.83289509525612,87.75537395429802,40.148089017359965,40.07056787640187,40
95.2148,87.90080000000002,87.88974112652582,87.83414403918182,87.75122574891269,40.13851537761313,40.055597087344,40
98.1445,87.8805,87.86540417232936,87.74244660309462,87.70225833822312,40.163145834106246,40.12295756923474,40
101.074,87.7943,87.77704090607183,87.64146154445649,87.6079583425152,40.16908256355663,40.13557936161534,40
105.469,87.6204,87.59925081727751,87.43476551882213,87.41243399914654,40.186816818130964,40.164485298455375,40
108.398,87.5454,87.51989588753908,87.31140128846883,87.31226520148908,40.207630686049995,40.20849459907025,40
112.793,87.3491,87.3126124616455,86.9898482337345,87.04772951716268,40.26488294448282,40.322764227910994,40
117.188,87.1581,87.11358242861766,86.67035139019706,86.78538928631781,40.32819314229985,40.443231038420606,40
120.117,87.1525,87.10310916044813,86.55285436579034,86.72408149476514,40.37902766568298,40.55025479465779,40
124.512,86.98899999999999,86.93902691297659,86.32126054168624,86.52721507204582,40.41181184093077,40.617766371290344,40
128.906,86.94959999999999,86.89462472555954,86.14110242900793,86.43334772246065,40.461277003098886,40.75352229655161,40
133.301,86.7697,86.71291372465022,85.95793084046407,86.2491310688696,40.46378265578062,40.75498288418615,40
139.16,86.4169,86.35472147587772,85.52027667069427,85.84088400607342,40.5138374698043,40.83444480518345,40
143.555,86.46469999999998,86.40077325988366,85.43276218387727,85.84802877927753,40.55274448060614,40.96801107600639,40
147.949,86.4371,86.38097625303287,85.46611900848535,85.86056403525697,40.5204122177759,40.91485724454752,40
153.809,86.1648,86.10015193648184,85.28726761194393,85.62289511196448,40.477256824517355,40.812884324537904,40
159.668,85.8347,85.75277321557621,84.79500378762035,85.18500985847346,40.56776335710275,40.95776942795587,40
165.527,86.0315,85.93605920522272,84.48585282363742,85.16040741092691,40.77565179429581,41.4502063815853,40
171.387,86.32040000000002,86.2358281691504,84.69392076600958,85.44103845078965,40.79478971836075,41.54190740314081,40
177.246,86.04969999999999,85.97626401365397,84.4313441916353,85.19491098836569,40.78135302528828,41.54491982201867,40
183.105,85.3558,85.2969229147574,84.01012135256472,84.63765054795353,40.659272366803876,41.28680156219268,40
188.965,85.21919999999999,85.12242308748705,83.6802978657649,84.38145974012652,40.740963347360534,41.44212522172215,40
196.289,85.496,85.4155051547126,83.6374626436066,84.55009970206099,40.865405452651615,41.77804251110601,40
203.613,84.90830000000001,84.77040816405209,83.22739979924664,83.94523887128238,40.8251692927697,41.543008364805445,40
210.938,85.7579,85.5826800832567,83.2969897317238,84.39974921255171,41.18293087070499,42.28569035153291,40
218.262,86.4169,86.2857387352203,83.4994775657875,84.95869617901272,41.32704255620759,42.786261169432805,40
225.586,85.8286,85.70839772423905,83.19141514916934,84.49399613047208,41.214401593766965,42.516982575069704,40
232.91,85.7873,85.66499649601364,83.06334100884526,84.43081814981299,41.23417834620065,42.60165548716839,40
241.699,85.9872,85.88567034026624,83.15333488583804,84.59709033946424,41.288580000802,42.73233545442821,40
250.488,85.758,85.69251587403204,82.78246896386842,84.3738483436436,41.31866753038844,42.910046910163615,40
259.277,85.682,85.58862522391914,83.10849812046797,84.42240371973762,41.16622150418152,42.48012710345117,40
268.066,85.5399,85.42652757072479,82.89808414164706,84.20941260699317,41.21711496373162,42.528443429077726,40
276.855,85.6756,85.55968766771389,82.8164594025606,84.27891261351242,41.28077505420147,42.74322826515329,40
287.109,85.6639,85.57582262195987,82.67158261524021,84.15567650837012,41.42014611358975,42.90424000671966,40
297.363,85.7905,85.67274378665454,82.07116238515496,83.96302819346558,41.70971559318896,43.60158140149957,40
307.617,86.55230000000002,86.46660377151181,82.88537217459614,84.90143433631553,41.56516943519628,43.58123159691567,40
319.336,85.7692,85.71423295898323,82.61553738124904,84.29845447193253,41.4157784870507,43.09869557773419,40
329.59,85.4532,85.41506368184372,82.45575924980936,84.09329701164157,41.32176667020215,42.95930443203436,40
341.309,84.8057,84.7324326452066,81.88983830292722,83.48425855846865,41.24817408673795,42.842594342279384,40
353.027,84.99129999999998,84.9392277816373,81.91174467158262,83.60327628911011,41.33595149252719,43.027483110054675,40
366.211,85.1748,85.08878983228345,82.0033515082962,83.65529368759262,41.433496144690835,43.08543832398725,40
379.395,85.4689,85.35421311315962,81.88274174018518,83.63187499334789,41.722338119811724,43.471471372974435,40
392.578,85.61629999999998,85.51273453292333,82.06741496411315,83.79571901452444,41.717015518398895,43.44531956881018,40
405.762,85.38110000000002,85.16640610776797,81.40849544262863,83.19137373153363,41.97503237623434,43.757910665139335,40
420.41,85.389,85.15206720160012,81.43090961337144,83.09921345095037,42.052853750649746,43.72115758822868,40
435.059,85.5218,85.22405238110025,81.65487355862344,83.26346252444424,41.960589856656014,43.569178822476815,40
451.172,86.21129999999998,85.79710058279319,81.73065881870748,83.53436796357978,42.26273261921341,44.06644176408571,40
465.82,87.0603,86.63675878001679,81.67147864108303,83.90067119389602,42.736087586120775,44.965280138933764,40
483.398,87.1298,86.66055755722397,81.60356274422713,83.77922616342438,42.881331393799584,45.056994812996834,40
499.512,87.1852,86.76721971710437,81.71217933010679,83.74381189723253,43.023407819871835,45.055040386997575,40
517.09,86.7571,86.31075091294264,81.47379937673529,83.18359991298907,43.12715099995357,44.83695153620735,40
536.133,87.51009999999998,86.96670758166997,81.42627877884289,83.45226520474579,43.51444237692418,45.54042880282708,40
555.176,88.0209,87.55398602133816,80.94347865015565,83.58689772460778,43.96708829673038,46.61050737118251,40
574.219,86.5148,86.10621053534088,80.30754025807128,82.36416178575105,43.74204874958983,45.79867027726959,40
594.727,85.3704,84.93749365014,78.98599671412289,81.02833673796455,43.90915691217545,45.95149693601711,40
615.234,84.1544,83.76684251315884,78.72185913454236,80.29700795458889,43.46983455856994,45.04498337861648,40
637.207,84.38270000000001,83.87610387486923,78.2403355443345,79.97078675665573,43.9053171182135,45.63576833053473,40
659.18,84.5805,84.17505884622149,78.35857255271107,80.34804244861051,43.827016397610976,45.81648629351042,40
682.617,85.0172,84.63147954259445,79.17659815189965,81.08991306650276,43.54156647609169,45.454881390694794,40
707.52,85.063,84.6986266364209,79.45259031704256,81.54623137460989,43.15239526181101,45.246036319378334,40
732.422,84.1665,83.95086935334803,79.26248608904821,81.4131580662115,42.53771128713653,44.688383264299816,40
757.324,84.0366,83.67409160649699,79.0584049438781,81.20050340580174,42.47358820069525,44.615686662618884,40
785.156,83.6729,83.22165062934069,78.8495312575667,81.04588427458205,42.175766354758636,44.37211937177399,40
811.523,82.7083,82.2570407509918,78.42409356726833,80.5614664205453,41.695574330446505,43.832947183723476,40
840.82,83.2615,82.48983879423932,77.78695603371595,80.03018357499437,42.45965521924495,44.702882760523366,40
870.117,83.2847,82.66428921220935,78.04547702727324,80.26746630582058,42.39682290638878,44.61881218493612,40
900.879,83.9258,83.1677705349465,78.27592366892787,80.78441399739891,42.383356537547584,44.891846866018625,40
933.105,84.51030000000002,83.96283728867516,79.00330468052401,81.77368644196784,42.18915084670732,44.95953260815115,40
965.332,85.1964,84.49881084553613,79.22677245681551,82.09990552284005,42.39890532269608,45.27203838872062,40
1000.49,85.4468,84.82201324045782,79.40562987592834,82.29262899854227,42.52938424191555,45.41638336452948,40
1035.64,85.92280000000001,85.29113603001171,79.50442168616983,82.59763136365687,42.69350466635484,45.78671434384188,40
1072.27,84.8198,84.47354026546408,79.02772566094771,82.09642850033158,42.3771117651325,45.44581460451637,40
1108.89,84.3644,84.01175603493955,78.59006726273579,81.47710257272486,42.53465346221469,45.421688772203765,40
1148.44,84.28529999999999,83.84764469776029,78.27928433758153,81.49124158141399,42.3564031163463,45.56836036017876,40
1189.45,84.61029999999998,83.98486995841948,78.13088395835369,81.35424238362006,42.63062757479942,45.85398600006579,40
1230.47,84.70209999999999,84.11242120244702,78.05785992774538,81.39822651700018,42.71419468544684,46.05456127470164,40
1274.41,85.67139999999999,85.0166817983405,78.24346977668877,81.81068491981296,43.20599687852754,46.77321202165173,40
1319.82,85.8089,85.19637770669756,78.2311258841726,81.78934362162411,43.40703408507345,46.96525182252496,40
1366.7,86.0966,85.38876310991542,78.25786071381104,81.87828586901047,43.51047724090495,47.130902396104375,40
1413.57,86.14490000000002,85.39393178421196,78.11695925484983,81.9138184484269,43.48011333578506,47.276972529362126,40
1463.38,85.0533,84.36763106753028,77.16769571540334,80.93309421741377,43.434536850116515,47.19993535212694,40
1516.11,84.6538,84.28945198361116,76.96152177445076,80.79096744087566,43.4984845427355,47.3279302091604,40
1568.85,84.2192,83.54821827399392,76.26021651649584,80.05374547950838,43.494472794485546,47.28800175749808,40
1624.51,84.1719,83.57641701591989,76.39415668529757,80.23788073884135,43.33853627707853,47.18226033062231,40
1681.64,84.46749999999999,83.83771771808019,76.82263859388881,80.71191358806149,43.12580413001869,47.015079124191374,40
1741.7,84.5143,84.0115832843408,77.01550168280548,80.89814654978434,43.11343673455646,46.99608160153532,40
1803.22,84.0134,83.42410402379488,76.61909771862607,80.36088168751093,43.06322233628396,46.80500630516882,40
1866.21,84.1512,83.54189685459379,76.85057387013039,80.34004279108329,43.201854063510496,46.6913229844634,40
1932.13,85.2706,84.66365605434517,77.58653133271453,81.1100910686044,43.55356498574076,47.07712472163064,40
1999.51,85.6323,85.04906840850127,78.26661695120795,81.73300259029018,43.31606581821109,46.78245145729332,40
2069.82,84.74059999999999,84.22533942009126,77.91448548855043,81.19069859340745,43.03464082668381,46.310853931540834,40
2143.07,84.432,84.03725166798361,78.04401333447504,81.05587435084111,42.9813773171425,45.99323833350857,40
2219.24,85.2819,84.77115348732524,78.69958451090777,81.7394465964826,43.03170689084264,46.07156897641747,40
2296.88,85.9687,85.4222269561354,79.38491321180179,82.37929815701172,43.042928799123686,46.037313744333616,40
2378.91,84.9176,84.74601606991969,79.7911727693893,82.40951963428238,42.336496435637315,44.954843300530385,40
2462.4,84.5795,84.70123656380498,79.87265058649727,82.37924060759036,42.32199595621462,44.82858597730771,40
2548.83,85.4387,85.26118681674318,80.60243945456679,83.09744261952669,42.16374419721649,44.658747362176385,40
2639.65,84.3928,84.80085134341063,80.57758859265975,83.05248602407629,41.74836531933434,44.22326275075088,40
2731.93,83.9595,84.88593394663498,80.5931843755189,83.21110916526966,41.67482478136532,44.292749571116076,40
2828.61,85.5585,85.44426231008049,80.7403150287194,83.38801228249517,42.05625002758532,44.703947281361096,40
2928.22,83.78159999999998,85.03510056273704,80.68333775269663,83.35561652579464,41.6794840369424,44.35176281004041,40
3030.76,83.7866,84.86900468760471,80.60284836907609,83.27824878125642,41.59075590634829,44.26615631852863,40
3137.7,85.0812,85.11103457307864,80.41509863412219,83.3259202895591,41.78511428351955,44.69593593895645,40
3249.02,85.50510000000001,85.6106725333032,80.73183589028288,83.53050582934466,42.08016670395854,44.87883664302032,40
3363.28,84.4823,85.6246620644076,80.53502217586755,83.1568314599135,42.4678306044941,45.08963988854005,40
3481.93,85.5089,85.3496218183238,80.3800495827023,82.90425313294378,42.44536868538002,44.9695722356215,40
3604.98,86.2324,85.54733962316702,80.19249622191744,82.8515393449704,42.695800278196614,45.35484340124958,40
3732.42,85.6106,85.19159049265393,79.8708425895754,82.65011049059403,42.5414800020599,45.32074790307853,40
3864.26,85.1084,84.78962540050922,79.66781157521176,82.4660372022223,42.32358819828693,45.121813825297465,40
4000.49,84.22839999999998,84.39027686014101,79.44903783652471,82.19183236020756,42.19844449993346,44.941239023616305,40
4141.11,84.6602,84.63808965852688,79.59318332948676,82.46834639707431,42.16974326145257,45.04490632904012,40
4287.6,84.6504,84.6780231606307,79.59292732505163,82.59414840503699,42.08387475559371,45.08509583557907,40
4438.48,85.41,84.61727481834625,79.61664865912765,82.58021969682058,42.03705512152567,45.0006261592186,40
4595.21,85.7761,84.88885420501006,79.56970541855137,82.76333829701382,42.125515907996245,45.3191487864587,40
4756.35,86.0809,85.22739662339393,79.35155843349622,82.78632569184717,42.44107093154676,45.875838189897706,40
4924.8,86.16879999999999,85.17293465920893,78.94940281026095,82.52921718730788,42.643717471901056,46.223531848947985,40
5097.66,86.6804,85.63762285269856,78.66782350217622,82.53320980226864,43.10441305042991,46.96979935052234,40
5277.83,86.55289999999998,85.52826047528994,78.31749133923118,82.33166805277473,43.19659242251521,47.21076913605876,40
5463.87,86.5663,85.54156918288805,78.15362743111142,82.21716079111577,43.32440839177228,47.38794175177664,40
5657.23,86.9419,85.91842656818515,78.16270954921141,82.32233096573262,43.596095602452536,47.75571701897374,40
5856.45,86.4642,85.65333836721972,78.00939188669219,82.21237825902095,43.440960108198766,47.64394648052753,40
6062.99,87.02,86.18288392274077,78.30613820767765,82.52495965105135,43.657924271689424,47.87674571506312,40
6276.86,87.03850000000001,86.0257257234634,78.21454593632343,82.50523087364394,43.52049484981946,47.81117978713996,40
6498.05,87.3459,86.3044353491871,78.32337279717247,82.65068343665192,43.653751912535185,47.981062552014635,40
6726.56,86.9656,85.9076527288163,78.02336548369858,82.45588923168877,43.45176349712753,47.88428724511772,40
6963.87,86.96,85.77366214932734,77.83923894225839,82.33877788357357,43.434884265753766,47.934423207068946,40
7209.96,86.0946,84.93190328191768,77.45562933846462,81.77738604638914,43.154517235528544,47.476273943453066,40
7464.84,86.0605,85.07127045047372,77.35811236369749,81.50986243538767,43.561408015086045,47.71315808677623,40
7727.05,85.48959999999998,84.73746214355937,76.84098616675057,81.10332838357303,43.63413375998634,47.8964759768088,40
7999.51,85.66959999999999,84.71975256556215,76.69887503782661,81.06819260982579,43.65155995573636,48.020877527735536,40
8282.23,85.93310000000001,84.83299229999085,76.63119565691616,81.10169321700126,43.731299082989594,48.20179664307469,40
8573.73,85.6838,84.70038058045812,76.61469955012889,81.20470810413147,43.49567247632665,48.085681030329226,40
8876.95,86.1705,84.9642998975562,76.67886774897927,81.3963219690406,43.5679779285156,48.28543214857693,40
9188.96,86.429,85.07113330741261,76.60420053253918,81.38908854173324,43.682044765679365,48.46693277487343,40
9514.16,86.3594,85.16648502732356,76.59089266176228,81.32876946872962,43.83771555859394,48.57559236556128,40
9849.61,86.3488,85.3743107534553,76.56252677026357,81.38318740108657,43.99112335236873,48.81178398319173,40
10196.8,86.7818,85.62584006046391,76.58961761517342,81.53884897161056,44.08699108885335,49.03622244529049,40
10555.7,86.79019999999998,85.76853632246987,76.54762380032389,81.58291876160148,44.185617560868394,49.22091252214598,40
10927.7,86.8326,85.80302952996915,76.52844891915571,81.63880255457518,44.16422697539397,49.274580610813445,40
11313.0,86.88019999999999,85.88906977574342,76.50683730081505,81.64071499989291,44.248354775850515,49.38223247492837,40
11712.9,86.8895,85.95486864959209,76.48037538138126,81.59996513200782,44.35490351758426,49.47449326821082,40
