Freq "On Axis"
20.5078 67.4147
21.9727 68.3989
23.4375 70.2179
24.9023 72.8636
26.3672 75.1074
27.832 76.4412
29.2969 77.54639999999999
30.7617 78.3361
32.2266 78.7281
33.6914 79.13079999999998
35.1562 79.4184
36.6211 79.71639999999998
38.0859 80.0491
39.5508 80.3519
41.0156 80.6429
42.4805 80.96850000000002
43.9453 81.3053
45.4102 81.6242
46.875 82.0254
48.3398 82.3571
51.2695 83.04090000000001
52.7344 83.4095
54.1992 83.7514
55.6641 84.0821
58.5938 84.6367
60.0586 84.93579999999999
62.9883 85.3273
64.4531 85.5336
67.3828 86.15219999999998
68.8477 86.333
71.7773 86.7417
74.707 87.1261
77.6367 87.4245
79.1016 87.47190000000002
82.0312 87.51710000000001
84.9609 87.7001
87.8906 87.7827
90.8203 87.9133
95.2148 87.90080000000002
98.1445 87.8805
101.074 87.7943
105.469 87.6204
108.398 87.5454
112.793 87.3491
117.188 87.1581
120.117 87.1525
124.512 86.98899999999999
128.906 86.94959999999999
133.301 86.7697
139.16 86.4169
143.555 86.46469999999998
147.949 86.4371
153.809 86.1648
159.668 85.8347
165.527 86.0315
171.387 86.32040000000002
177.246 86.04969999999999
183.105 85.3558
188.965 85.21919999999999
196.289 85.496
203.613 84.90830000000001
210.938 85.7579
218.262 86.4169
225.586 85.8286
232.91 85.7873
241.699 85.9872
250.488 85.758
259.277 85.682
268.066 85.5399
276.855 85.6756
287.109 85.6639
297.363 85.7905
307.617 86.55230000000002
319.336 85.7692
329.59 85.4532
341.309 84.8057
353.027 84.99129999999998
366.211 85.1748
379.395 85.4689
392.578 85.61629999999998
405.762 85.38110000000002
420.41 85.389
435.059 85.5218
451.172 86.21129999999998
465.82 87.0603
483.398 87.1298
499.512 87.1852
517.09 86.7571
536.133 87.51009999999998
555.176 88.0209
574.219 86.5148
594.727 85.3704
615.234 84.1544
637.207 84.38270000000001
659.18 84.5805
682.617 85.0172
707.52 85.063
732.422 84.1665
757.324 84.0366
785.156 83.6729
811.523 82.7083
840.82 83.2615
870.117 83.2847
900.879 83.9258
933.105 84.51030000000002
965.332 85.1964
1000.49 85.4468
1035.64 85.92280000000001
1072.27 84.8198
1108.89 84.3644
1148.44 84.28529999999999
1189.45 84.61029999999998
1230.47 84.70209999999999
1274.41 85.67139999999999
1319.82 85.8089
1366.7 86.0966
1413.57 86.14490000000002
1463.38 85.0533
1516.11 84.6538
1568.85 84.2192
1624.51 84.1719
1681.64 84.46749999999999
1741.7 84.5143
1803.22 84.0134
1866.21 84.1512
1932.13 85.2706
1999.51 85.6323
2069.82 84.74059999999999
2143.07 84.432
2219.24 85.2819
2296.88 85.9687
2378.91 84.9176
2462.4 84.5795
2548.83 85.4387
2639.65 84.3928
2731.93 83.9595
2828.61 85.5585
2928.22 83.78159999999998
3030.76 83.7866
3137.7 85.0812
3249.02 85.50510000000001
3363.28 84.4823
3481.93 85.5089
3604.98 86.2324
3732.42 85.6106
3864.26 85.1084
4000.49 84.22839999999998
4141.11 84.6602
4287.6 84.6504
4438.48 85.41
4595.21 85.7761
4756.35 86.0809
4924.8 86.16879999999999
5097.66 86.6804
5277.83 86.55289999999998
5463.87 86.5663
5657.23 86.9419
5856.45 86.4642
6062.99 87.02
6276.86 87.03850000000001
6498.05 87.3459
6726.56 86.9656
6963.87 86.96
7209.96 86.0946
7464.84 86.0605
7727.05 85.48959999999998
7999.51 85.66959999999999
8282.23 85.93310000000001
8573.73 85.6838
8876.95 86.1705
9188.96 86.429
9514.16 86.3594
9849.61 86.3488
10196.8 86.7818
10555.7 86.79019999999998
10927.7 86.8326
11313.0 86.88019999999999
11712.9 86.8895
12126.0 86.91779999999999
12553.7 86.9604
12996.1 86.9698
13454.6 86.9923
13929.2 86.4976
14419.9 85.9075
14928.2 84.7565
15455.6 83.2329
16000.5 83.2445
16564.5 83.11629999999998
17148.9 83.3617
17752.4 84.007
18379.4 84.7333
19026.9 85.4443
19697.8 85.9392
19999.5 86.1931
