Freq "Sound Power"
20.5078 71.4191522395778
21.9727 73.28119945000343
23.4375 74.7183072846721
24.9023 77.05717593843602
26.3672 78.81533704820865
27.832 79.70646535011196
29.2969 80.58147642111844
30.7617 81.11008484267852
32.2266 81.30417413074335
33.6914 81.54563751360027
35.1562 81.718766630136
36.6211 81.90578303466408
38.0859 82.1355596927732
39.5508 82.35448943114567
41.0156 82.56679339344024
42.4805 82.83145805910914
43.9453 83.11239144432099
45.4102 83.3780250128923
46.875 83.72956524088863
48.3398 84.01679822843428
51.2695 84.5684810079781
52.7344 84.83329812350004
54.1992 85.12335661062761
55.6641 85.41268722622134
58.5938 85.92054240920716
60.0586 86.17888963329248
62.9883 86.49659781848933
64.4531 86.68146154720361
67.3828 87.28308204680805
68.8477 87.4656370195805
71.7773 87.72580470620983
74.707 88.00130782347404
77.6367 88.17958883705418
79.1016 88.22483077111704
82.0312 88.27811651948005
84.9609 88.36958478559376
87.8906 88.40437827674666
90.8203 88.48202842858944
95.2148 88.48327737251515
98.1445 88.39157993642795
101.074 88.29059487778981
105.469 88.08389885215546
108.398 87.96053462180215
112.793 87.63898156706783
117.188 87.31948472353038
120.117 87.20198769912366
124.512 86.97039387501957
128.906 86.79023576234125
133.301 86.6070641737974
139.16 86.1694100040276
143.555 86.0818955172106
147.949 86.11525234181867
153.809 85.93640094527726
159.668 85.44413712095367
165.527 85.13498615697074
171.387 85.34305409934291
177.246 85.08047752496863
183.105 84.65925468589805
188.965 84.32943119909822
196.289 84.28659597693992
203.613 83.87653313257997
210.938 83.94612306505712
218.262 84.14861089912083
225.586 83.84054848250267
232.91 83.71247434217858
241.699 83.80246821917136
250.488 83.43160229720175
259.277 83.7576314538013
268.066 83.54721747498039
276.855 83.46559273589392
287.109 83.32071594857354
297.363 82.72029571848829
307.617 83.53450550792947
319.336 83.26467071458237
329.59 83.10489258314269
341.309 82.53897163626054
353.027 82.56087800491595
366.211 82.65248484162953
379.395 82.5318750735185
392.578 82.71654829744648
405.762 82.05762877596196
420.41 82.08004294670476
435.059 82.30400689195676
451.172 82.3797921520408
465.82 82.32061197441635
483.398 82.25269607756046
499.512 82.36131266344012
517.09 82.12293271006861
536.133 82.07541211217621
555.176 81.59261198348898
574.219 80.95667359140461
594.727 79.63513004745622
615.234 79.37099246787568
637.207 78.88946887766782
659.18 79.00770588604439
682.617 79.82573148523298
707.52 80.10172365037589
732.422 79.91161942238153
757.324 79.70753827721143
785.156 79.49866459090002
811.523 79.07322690060165
840.82 78.43608936704928
870.117 78.69461036060656
900.879 78.9250570022612
933.105 79.65243801385733
965.332 79.87590579014883
1000.49 80.05476320926167
1035.64 80.15355501950316
1072.27 79.67685899428103
1108.89 79.23920059606911
1148.44 78.92841767091485
1189.45 78.78001729168702
1230.47 78.70699326107871
1274.41 78.8926031100221
1319.82 78.88025921750592
1366.7 78.90699404714437
1413.57 78.76609258818316
1463.38 77.81682904873666
1516.11 77.61065510778408
1568.85 76.90934984982917
1624.51 77.0432900186309
1681.64 77.47177192722214
1741.7 77.6646350161388
1803.22 77.26823105195939
1866.21 77.49970720346371
1932.13 78.23566466604785
1999.51 78.91575028454128
2069.82 78.56361882188375
2143.07 78.69314666780836
2219.24 79.3487178442411
2296.88 80.03404654513511
2378.91 80.44030610272263
2462.4 80.5217839198306
2548.83 81.25157278790012
2639.65 81.22672192599308
2731.93 81.24231770885223
2828.61 81.38944836205272
2928.22 81.33247108602995
3030.76 81.25198170240941
3137.7 81.06423196745551
3249.02 81.3809692236162
3363.28 81.18415550920088
3481.93 81.02918291603562
3604.98 80.84162955525076
3732.42 80.51997592290873
3864.26 80.31694490854508
4000.49 80.09817116985803
4141.11 80.24231666282009
4287.6 80.24206065838496
4438.48 80.26578199246097
4595.21 80.21883875188469
4756.35 80.00069176682955
4924.8 79.59853614359427
5097.66 79.31695683550954
5277.83 78.9666246725645
5463.87 78.80276076444474
5657.23 78.81184288254474
5856.45 78.65852522002551
6062.99 78.95527154101097
6276.86 78.86367926965676
6498.05 78.97250613050579
6726.56 78.67249881703191
6963.87 78.48837227559171
7209.96 78.10476267179794
7464.84 78.00724569703081
7727.05 77.49011950008389
7999.51 77.34800837115993
8282.23 77.28032899024949
8573.73 77.26383288346221
8876.95 77.3280010823126
9188.96 77.2533338658725
9514.16 77.2400259950956
9849.61 77.2116601035969
10196.8 77.23875094850675
10555.7 77.19675713365721
10927.7 77.17758225248903
11313.0 77.15597063414837
11712.9 77.12950871471459
12126.0 77.13872198645174
12553.7 77.20050259200153
12996.1 77.28541769428016
13454.6 77.31686776736593
13929.2 77.36384592662499
14419.9 77.78856274430319
14928.2 78.99666511368427
15455.6 80.85834720011911
16000.5 80.04532771023092
16564.5 76.84551611295609
17148.9 74.206522821113
17752.4 73.16997571547284
18379.4 72.945864386952
19026.9 73.10584334388973
19697.8 73.22497190618411
19999.5 73.3123132145897
