Freq "On Axis"
20.5078 58.023936363636366
21.9727 61.420336363636366
23.4375 63.669736363636375
24.9023 65.19563636363635
26.3672 67.64703636363636
27.832 69.37953636363636
29.2969 70.94703636363636
30.7617 72.35413636363636
32.2266 73.68833636363637
33.6914 74.88213636363636
35.1562 75.76733636363635
36.6211 76.61123636363637
38.0859 77.52383636363636
39.5508 78.25533636363636
41.0156 78.86673636363636
42.4805 79.46373636363636
43.9453 80.12113636363638
45.4102 80.69813636363637
46.875 81.06103636363635
48.3398 81.47753636363636
51.2695 82.53433636363636
52.7344 83.08303636363637
54.1992 83.52363636363636
55.6641 83.94533636363636
58.5938 84.91273636363637
60.0586 85.39823636363637
62.9883 86.24573636363637
64.4531 86.74573636363637
67.3828 87.60173636363636
68.8477 88.01553636363637
71.7773 88.81733636363636
74.707 89.54333636363636
77.6367 90.08293636363636
79.1016 90.31593636363637
82.0312 90.88193636363634
84.9609 91.20183636363636
87.8906 91.37903636363636
90.8203 92.08863636363637
95.2148 92.46343636363636
98.1445 92.39773636363638
101.074 92.22003636363637
105.469 91.95393636363636
108.398 91.79193636363637
112.793 91.21943636363636
117.188 90.46793636363637
120.117 90.71373636363636
124.512 90.72483636363636
128.906 90.40063636363637
133.301 90.18833636363637
139.16 89.51233636363636
143.555 88.85883636363636
147.949 89.40023636363637
153.809 89.13883636363637
159.668 88.22173636363637
165.527 87.78403636363636
171.387 88.36403636363634
177.246 88.50493636363636
183.105 88.19213636363635
188.965 88.30933636363636
196.289 89.33233636363636
203.613 89.47133636363637
210.938 90.59603636363636
218.262 91.15823636363636
225.586 90.79613636363636
232.91 90.85143636363637
241.699 91.76103636363636
250.488 90.15703636363637
259.277 90.88773636363636
268.066 92.09403636363636
276.855 90.65533636363637
287.109 90.01583636363637
297.363 91.68923636363637
307.617 91.17573636363636
319.336 91.45513636363636
329.59 91.03243636363636
341.309 91.57333636363636
353.027 92.17463636363637
366.211 91.79993636363636
379.395 91.54153636363637
392.578 91.50103636363636
405.762 89.78793636363636
420.41 87.67693636363636
435.059 86.99773636363636
451.172 87.55133636363637
465.82 88.35443636363637
483.398 88.39853636363635
499.512 88.00863636363636
517.09 89.77633636363636
536.133 90.30693636363638
555.176 89.80573636363636
574.219 89.93953636363635
594.727 90.58443636363636
615.234 89.83933636363636
637.207 89.76063636363637
659.18 89.54583636363638
682.617 89.58183636363636
707.52 89.61903636363637
732.422 89.14563636363636
757.324 89.87573636363636
785.156 90.35963636363637
811.523 91.41873636363637
840.82 92.00703636363635
870.117 92.01223636363638
900.879 92.15773636363637
933.105 91.88533636363637
965.332 91.86393636363637
1000.49 91.67993636363636
1035.64 91.49703636363637
1072.27 91.74563636363636
1108.89 91.39723636363637
1148.44 90.86693636363637
1189.45 90.75573636363636
1230.47 91.42023636363636
1274.41 91.43273636363637
1319.82 91.77083636363636
1366.7 92.12383636363636
1413.57 92.15323636363637
1463.38 91.34713636363635
1516.11 90.51463636363637
1568.85 89.94473636363638
1624.51 90.11723636363637
1681.64 91.25303636363637
1741.7 91.10103636363637
1803.22 90.70713636363637
1866.21 91.10323636363637
1932.13 91.32193636363637
1999.51 91.40943636363636
2069.82 91.15313636363636
2143.07 91.17013636363636
2219.24 91.20943636363636
2296.88 90.52943636363638
2378.91 90.81363636363636
2462.4 90.88773636363636
2548.83 90.26893636363636
2639.65 89.94013636363637
2731.93 90.48993636363636
2828.61 90.23583636363637
2928.22 89.86533636363636
3030.76 90.59853636363634
3137.7 90.44363636363634
3249.02 90.23933636363638
3363.28 91.24933636363637
3481.93 90.94543636363636
3604.98 91.28993636363636
3732.42 88.52133636363637
3864.26 88.28253636363637
4000.49 87.98053636363636
4141.11 89.58823636363637
4287.6 89.97003636363637
4438.48 90.36323636363636
4595.21 90.69373636363638
4756.35 90.69613636363634
4924.8 90.58173636363637
5097.66 90.48993636363636
5277.83 90.15703636363637
5463.87 89.76133636363635
5657.23 88.93593636363636
5856.45 88.80143636363637
6062.99 88.95183636363636
6276.86 89.25493636363636
6498.05 89.93323636363637
6726.56 90.30043636363636
6963.87 91.07193636363637
7209.96 91.87703636363638
7464.84 92.27633636363636
7727.05 91.22663636363636
7999.51 90.34043636363636
8282.23 90.92503636363637
8573.73 90.81703636363635
8876.95 90.66313636363637
9188.96 90.85693636363636
9514.16 91.31493636363636
9849.61 91.57373636363636
10196.8 92.63493636363636
10555.7 92.78933636363637
10927.7 92.49283636363636
11313.0 92.26753636363637
11712.9 92.61793636363636
12126.0 92.16283636363634
12553.7 92.35403636363635
12996.1 93.30543636363636
13454.6 92.40653636363636
13929.2 92.49313636363637
14419.9 92.43203636363636
14928.2 91.00863636363634
15455.6 88.89473636363637
16000.5 89.54613636363636
16564.5 90.93663636363637
17148.9 92.62033636363637
17752.4 94.46693636363636
18379.4 94.95703636363636
19026.9 93.49263636363636
19697.8 86.02793636363636
19999.5 82.07853636363636
