Freq,On Axis,Listening Window,Sound Power,Early Reflections,Early Reflections DI,Sound Power DI,DI offset
22.4,13.599999999999994,16.387213324811682,13.831840795789162,15.417470664081208,40.969742660730475,42.55537252902252,40
23.0,14.5,17.000324207286297,14.432024993646536,16.172055065179904,40.82826914210639,42.56829921363976,40
23.6,15.800000000000011,18.036857457274266,15.41968993402378,17.310343777538492,40.726513679735774,42.61716752325049,40
24.0,18.80000000000001,20.852273117989142,18.12688203817845,20.199563771100372,40.65270934688877,42.72539107981069,40
25.0,21.099999999999994,22.869956703484604,20.0400243095838,22.269647879510302,40.6003088239743,42.829932393900805,40
25.8,23.19999999999999,24.822976809959812,21.861739560706184,24.21537809573499,40.60759871422482,42.96123724925363,40
26.5,25.19999999999999,26.554741342553143,23.453967969428618,25.9065662807852,40.648175061767944,43.100773373124525,40
27.2,26.80000000000001,27.98502731176177,24.689252952958867,27.24744396370366,40.73758334805811,43.2957743588029,40
28.0,28.30000000000001,29.217649162757,25.721086950829005,28.3487867106237,40.8688624521333,43.496562211927994,40
29.0,29.599999999999966,30.35281162332788,26.68313232825716,29.36426029512114,40.98855132820674,43.66967929507072,40
30.0,31.30000000000001,31.938802230934044,28.089224890027396,30.815550146973862,41.12325208396018,43.84957734090665,40
30.7,33.900000000000006,34.39914774061276,30.391284407010943,33.152734729440624,41.24641301117214,44.00786333360182,40
31.5,36.099999999999994,36.56681647855612,32.375644077318725,35.16712566133367,41.39969081722245,44.191172401237395,40
32.5,38.0,38.31820737086011,33.972210973622225,36.77630432620845,41.54190304465166,44.34599639723788,40
33.5,39.5,39.82234424188121,35.33378924289741,38.14555813596323,41.676786105917984,44.4885549989838,40
34.5,40.80000000000001,41.107921567426104,36.49281430831664,39.328093993085105,41.779827574341,44.615107259109465,40
35.5,42.30000000000001,42.52402404755151,37.80312001780197,40.642126374932616,41.88189767261889,44.72090402974953,40
36.5,44.80000000000001,44.99927020841562,40.20565201868223,43.035457657569594,41.96381255084603,44.793618189733394,40
37.5,47.0,47.06610433864458,42.207593154904146,45.048998726662575,42.017105611982004,44.85851118374043,40
38.7,48.69999999999999,48.73890754089476,43.808376086683666,46.628391335288114,42.11051620560664,44.93053145421109,40
40.0,50.19999999999999,50.14897291288912,45.16739082168684,47.981570621411606,42.167402291477515,44.981582091202284,40
41.2,51.599999999999994,51.51969188534508,46.51951782586701,49.30681820143539,42.21287368390969,45.00017405947807,40
42.5,53.599999999999994,53.53460831106216,48.50832980336489,51.28231081025257,42.25229750080959,45.02627850769727,40
43.7,55.599999999999994,55.48460952571031,50.45302035028175,53.195430391704946,42.289179134005366,45.031589175428564,40
45.0,57.30000000000001,57.08531174687812,52.06320959811106,54.77658239757389,42.30872934930423,45.02210214876706,40
46.2,58.69999999999999,58.47335700631834,53.48020228904332,56.165321619291376,42.30803538702696,44.99315471727502,40
47.5,60.19999999999999,59.87633052314203,54.92163493083714,57.57544749827821,42.30088302486382,44.95469559230489,40
48.7,62.19999999999999,61.875887485890615,56.95906730688171,59.56464540852977,42.311242077360845,44.91682017900891,40
50.0,63.900000000000006,63.58445293212472,58.74481050887701,61.3079360500397,42.27651688208502,44.83964242324771,40
51.5,65.5,65.10016128938771,60.31700118007487,62.840261236967095,42.25990005242062,44.783160109312846,40
53.0,66.9,66.48693579051552,61.771792321182375,64.25084663345561,42.23608915705991,44.71514346933314,40
54.5,68.4,68.0389831659026,63.434028856854695,65.84689578658194,42.192087379320654,44.6049543090479,40
56.0,70.0,69.56693040217664,65.07466779995755,67.4443145051164,42.12261589706024,44.492262602219085,40
58.0,71.5,71.08754562296183,66.67636790962484,68.99628360348822,42.091262019473604,44.41117771333698,40
60.0,72.9,72.45066957231718,68.13568410943293,70.4111657328478,42.039503839469376,44.31498546288425,40
61.5,74.2,73.76927430516912,69.56842738817528,71.77594181175307,41.99333249341605,44.20084691699384,40
63.0,75.4,74.96245643108408,70.86920599269553,73.03837260022848,41.924083830855594,44.09325043838855,40
65.0,76.5,76.05029094198319,72.04061775514593,74.16891260399996,41.881378337983236,44.00967318683726,40
67.0,77.6,77.10372117950816,73.171500547476,75.26335050620659,41.840370673301564,43.932220632032156,40
69.0,78.6,78.12039296450641,74.27343705781416,76.3219470666686,41.79844589783781,43.846955906692244,40
71.0,79.6,79.09826225259663,75.29477388072677,77.31914145291955,41.779120799677074,43.80348837186986,40
73.0,80.3,79.79826225259661,76.065487458588,78.05864057539827,41.73962167719834,43.73277479400862,40
75.0,80.9,80.42966897661907,76.76203471931089,78.73165708410714,41.69801189251193,43.66763425730818,40
77.5,81.4,80.9836168506711,77.3683162236249,79.30154180096932,41.68207504970178,43.615300627046196,40
80.0,81.80000000000001,81.38322425922125,77.80175175980109,79.71790024323046,41.66532401599079,43.58147249942016,40
82.5,82.3,81.81515464450533,78.29727475749574,80.18193164410262,41.63322300040271,43.517879887009585,40
85.0,82.8,82.30582816240994,78.83266204787992,80.69266359955007,41.613164562859865,43.47316611453002,40
87.5,83.1,82.65952914145107,79.23158546617992,81.07998155736153,41.57954758408954,43.42794367527115,40
90.0,83.29999999999998,82.87037401587199,79.53101711960397,81.33979596265799,41.530578053214,43.339356896268015,40
92.5,83.5,83.07037401587199,79.77639727347852,81.56248807732484,41.50788593854715,43.29397674239347,40
95.0,83.6,83.17037401587199,79.94554593974561,81.69682835818091,41.473545657691076,43.22482807612637,40
97.5,83.9,83.42503434289151,80.24311210791183,81.96297954422026,41.46205479867125,43.18192223497968,40
100.0,84.1,83.71276342495345,80.59161847893007,82.2862757977253,41.426487627228155,43.12114494602338,40
103.0,84.30000000000001,83.92229169903833,80.84396476820072,82.52895852742105,41.39333317161727,43.078326930837605,40
106.0,84.5,84.09984512267576,81.05564144701268,82.71561270594182,41.38423241673394,43.044203675663084,40
109.0,84.8,84.38859013042196,81.36438020961093,83.01292596361534,41.375664166806615,43.02420992081103,40
112.0,85.1,84.6538491583244,81.64147587838112,83.28663500542524,41.367214152899166,43.01237327994329,40
115.0,85.2,84.79885597484329,81.79128690533771,83.44385949624534,41.354996478597954,43.00756906950558,40
118.0,85.3,84.90837587786966,81.9134133330712,83.5559762606482,41.352399617221465,42.994962544798454,40
122.0,85.4,85.05279523611397,82.03373612809273,83.68895825069299,41.363836985420974,43.01905910802124,40
125.0,85.5,85.10837587786965,82.09045943517921,83.75745390097796,41.350921976891684,43.017916442690435,40
128.0,85.4,85.06268061224301,82.02830887247491,83.69367676318137,41.36900384906164,43.034371739768105,40
132.0,85.5,85.10709820728013,82.05373403785913,83.72700346854708,41.38009473873305,43.053364169421,40
136.0,85.5,85.10709820728013,82.05180813227136,83.73517636692162,41.37192184035851,43.05529007500877,40
140.0,85.4,85.05132876621037,82.01288639347068,83.69087325086628,41.3604555153441,43.038442372739695,40
145.0,85.4,85.02852960959676,81.97358501576186,83.6552638585641,41.37326575103266,43.054944593834904,40
150.0,85.3,85.01654805796699,81.9576593883839,83.64418516181472,41.37236289615227,43.058888669583084,40
155.0,85.3,85.0053363250161,81.95275949810937,83.62959240500703,41.37574392000907,43.05257682690673,40
160.0,85.4,85.06142509788839,82.01802393483993,83.70450524758353,41.35691985030486,43.04340116304846,40
165.0,85.5,85.1508287969927,82.10276567733283,83.78707971517298,41.36374908181972,43.04806311965987,40
170.0,85.5,85.18430945056166,82.14255750720221,83.82084073326904,41.36346871729262,43.04175194335944,40
175.0,85.6,85.25082879699269,82.17888627099596,83.86385400471436,41.38697479227834,43.07194252599673,40
180.0,85.6,85.28430945056166,82.20288993669332,83.88282412699564,41.40148532356602,43.08141951386834,40
185.0,85.6,85.28430945056166,82.15683450462441,83.85911848785791,41.42519096270375,43.12747494593725,40
190.0,85.5,85.15256013304793,81.98313611392022,83.69285293290147,41.459707200146454,43.1694240191277,40
195.0,85.4,85.03002155579165,81.80199567482697,83.54926418406639,41.48075737172526,43.22802588096468,40
200.0,85.3,84.95256013304794,81.68381396995971,83.43185442092314,41.520705712124794,43.268746163088224,40
206.0,85.3,84.93002155579163,81.60945064425115,83.37911690375275,41.55090465203888,43.32057091154047,40
212.0,85.3,84.93002155579163,81.56923075167222,83.3618779746976,41.56814358109402,43.360790804119404,40
218.0,85.3,84.92028844888749,81.50623007607226,83.32249005674181,41.59779839214568,43.414058372815234,40
224.0,85.4,85.0202884488875,81.52493081373328,83.37659529617835,41.64369315270915,43.49535763515422,40
230.0,85.5,85.04393915724127,81.5255833397208,83.39455915621569,41.64938000102558,43.51835581752047,40
236.0,85.5,85.1202884488875,81.55544624431309,83.45208547011526,41.66820297877223,43.564842204574404,40
240.0,85.6,85.17654487430579,81.56136240907801,83.47827040928588,41.69827446501991,43.615182465227775,40
250.0,85.5,85.1414291594555,81.50401363157624,83.43635602687985,41.70507313257565,43.637415527879256,40
258.0,85.5,85.10959117800274,81.42831613403067,83.38288529241733,41.72670588558542,43.68127504397208,40
265.0,85.4,85.0210525016028,81.31504714625191,83.2734047422653,41.7476477593375,43.70600535535088,40
272.0,85.3,84.95307154345394,81.19162612860026,83.17570910673471,41.77736243671923,43.76144541485368,40
280.0,85.2,84.81035711483858,81.00921654997578,83.01960008705065,41.79075702778793,43.801140564862806,40
290.0,85.0,84.67653246856906,80.82239349352069,82.85456022465608,41.82197224391298,43.85413897504837,40
300.0,84.9,84.53299206156319,80.61990157308519,82.6724179299832,41.860574131579995,43.913090488478005,40
307.0,84.69999999999999,84.37701817473003,80.40977415382673,82.48621591349436,41.89080226123566,43.967244020903294,40
315.0,84.6,84.18910912901619,80.15570761693257,82.26239524299022,41.926713886025965,44.033401512083614,40
325.0,84.4,84.06738994176666,79.9712797507793,82.1090124004292,41.95837754133747,44.09611019098736,40
335.0,84.4,84.0345171859199,79.82115590024992,81.99556325351313,42.03895393240677,44.213361285669976,40
345.0,84.4,84.01504414533458,79.70988428308151,81.91683997509178,42.09820417024281,44.30515986225308,40
355.0,84.4,84.0379140202504,79.66990099636585,81.91063347617168,42.127280544078715,44.368013023884544,40
365.0,84.6,84.16121105567774,79.71615304315802,81.97969694892143,42.18151410675631,44.44505801251972,40
375.0,84.69999999999999,84.27371170717673,79.75139147325861,82.04462786392085,42.22908384325588,44.52232023391812,40
387.0,84.9,84.43307450759588,79.78530692949079,82.12635101759582,42.30672349000005,44.64776757810509,40
400.0,85.0,84.48904010119703,79.754629632807,82.1330192213821,42.356020879814935,44.73441046839004,40
412.0,85.1,84.58904010119704,79.74001958957302,82.16214595172553,42.42689414947151,44.84902051162402,40
425.0,85.2,84.63708998745967,79.66929627774203,82.12263582782025,42.51445415963943,44.96779370971764,40
437.0,85.1,84.49516001605525,79.41839531692492,81.92122543631076,42.57393457974449,45.07676469913034,40
450.0,85.0,84.45084188985815,79.2727375364714,81.81013576265198,42.64070612720617,45.17810435338676,40
462.0,84.9,84.27257240378849,78.97008619595691,81.56494542021147,42.707626983577015,45.30248620783158,40
475.0,84.69999999999999,84.11893501837237,78.71538619338253,81.3643467121588,42.75458830621356,45.40354882498984,40
487.0,84.4,83.85986241437763,78.3340122215541,81.05077160160562,42.80909081277201,45.525850192823526,40
500.0,84.4,83.79383458583465,78.14241813758662,80.9185776779455,42.87525690788914,45.65141644824803,40
515.0,84.4,83.81656125458888,78.07763658365246,80.9065671896216,42.90999406496728,45.73892467093641,40
530.0,84.4,83.88066681410218,78.05691644261519,80.94892008891739,42.931746725184794,45.823750371486994,40
545.0,84.5,83.99004742858565,78.05052205675305,81.01352014680641,42.97652728177924,45.9395253718326,40
560.0,84.5,84.05475769525529,78.00696080298796,81.04410311329556,43.01065458195973,46.04779689226733,40
580.0,84.5,84.06397980164681,77.91904343948977,81.03138752340851,43.0325922782383,46.14493636215704,40
600.0,84.4,83.98440173075811,77.72873409355209,80.90307170079922,43.08133002995889,46.25566763720602,40
615.0,84.2,83.80501587269332,77.47893917710698,80.70889438537458,43.09612148731874,46.32607669558634,40
630.0,84.1,83.72715786546674,77.32714955632511,80.59756198647338,43.12959587899336,46.400008309141626,40
650.0,84.2,83.77039414925837,77.27277418047325,80.60418293414665,43.166211215111716,46.497619968785116,40
670.0,84.30000000000001,83.90395723439097,77.2910772285646,80.6687260058739,43.235231228517065,46.61288000582637,40
690.0,84.6,84.09653499671028,77.32959773605249,80.7686469968144,43.32788799989588,46.766937260657784,40
710.0,84.69999999999999,84.21872016011812,77.31067532564536,80.82141164918914,43.39730851092898,46.90804483447276,40
730.0,84.8,84.2545734804328,77.18452745650491,80.75060211943028,43.50397136100251,47.07004602392789,40
750.0,84.6,84.01371205462775,76.75306901306665,80.4048229717733,43.608889082854446,47.260643041561096,40
775.0,84.2,83.60777872793794,76.1550551325602,79.88358331573323,43.72419541220471,47.45272359537775,40
800.0,84.0,83.45376380463917,75.8186766110768,79.61950396512519,43.834259839513976,47.63508719356237,40
825.0,84.1,83.52518411133295,75.72178536084692,79.60517884925575,43.9200052620772,47.803398750486025,40
850.0,84.30000000000001,83.66432421058173,75.66808470191822,79.63865498472121,44.02566922586051,47.99623950866351,40
875.0,84.4,83.6727560051993,75.48150320303415,79.55918307480673,44.11357293039258,48.19125280216515,40
900.0,84.2,83.43808581998898,75.0810037759623,79.24195556053353,44.19613025945546,48.35708204402668,40
925.0,84.2,83.38045454714275,74.8735475408316,79.10997943521454,44.27047511192821,48.50690700631115,40
950.0,84.4,83.49431214834094,74.87497858821276,79.17970149254612,44.31461065579482,48.61933356012818,40
975.0,84.6,83.60332176531915,74.83190096636804,79.21993609544968,44.38338566986947,48.77142079895111,40
1000.0,84.6,83.57911178979477,74.69712016517286,79.15886777250476,44.42024401729,48.881991624621904,40
1030.0,84.30000000000001,83.10563171330936,74.1027479657627,78.64341761534237,44.46221409796699,49.00288374754666,40
1060.0,84.0,82.71257534145303,73.582054721236,78.19586003024602,44.51671531120701,49.13052062021703,40
1090.0,84.4,83.08776002219054,73.82943952975293,78.52840384763019,44.55935617456035,49.258320492437605,40
1120.0,85.0,83.63864525896913,74.28355422749982,79.04707638160104,44.59156887736809,49.355091031469314,40
1150.0,85.4,83.93501079045602,74.47547589328327,79.30542569502285,44.62958509543317,49.459534897172745,40
1180.0,85.3,83.85116945625313,74.30332804266911,79.18784569367963,44.6633237625735,49.547841413584024,40
1220.0,85.1,83.63057549193036,73.99040613413716,78.93178074030823,44.69879475162213,49.6401693577932,40
1250.0,85.0,83.4927582872776,73.75251698433715,78.73791293663668,44.75484535064092,49.74024130294045,40
1280.0,84.69999999999999,83.21171443441852,73.42339365850752,78.43334573554021,44.77836869887831,49.788320775911004,40
1320.0,84.4,82.9265952696278,73.11597301529771,78.12020934930848,44.806385920319315,49.810622254330085,40
1360.0,84.30000000000001,82.84685006867642,73.03638930331287,78.03275398982069,44.81409607885573,49.810460765363544,40
1400.0,84.2,82.78850795244023,73.00631119718449,77.96852439497616,44.81998355746407,49.78219675525574,40
1450.0,84.1,82.69415256357658,72.97011310914516,77.88669740875827,44.807455154818314,49.72403945443142,40
1500.0,84.0,82.62930128049291,72.99158049382041,77.85446731297762,44.77483396751529,49.6377207866725,40
1550.0,84.0,82.61130427260338,73.06617352173787,77.86641808384499,44.744886188758386,49.54513075086551,40
1600.0,83.8,82.42415695762877,73.01091399659697,77.75076926232278,44.67338769530599,49.4132429610318,40
1650.0,83.6,82.22028601309712,72.90865627861034,77.59305475144856,44.62723126164856,49.311629734486786,40
1700.0,83.5,82.15898059143267,72.98559208924051,77.63407761589579,44.524902975536875,49.173388502192154,40
1750.0,83.4,82.07595217774444,73.03941964613468,77.65758447441242,44.418367703332024,49.036532531609765,40
1800.0,83.29999999999998,81.99556609585261,73.07753531411474,77.6875684152748,44.30799768057781,48.91803078173787,40
1850.0,83.1,81.83280355872417,73.0556834338184,77.65185488498733,44.180948673736836,48.777120124905764,40
1900.0,82.8,81.56174389838638,72.90994713535096,77.51401921412138,44.047724684265006,48.65179676303542,40
1950.0,82.6,81.42812953569472,72.87929556359006,77.49080205882943,43.93732747686529,48.54883397210466,40
2000.0,82.5,81.32812953569473,72.8996326956874,77.51441575742001,43.81371377827472,48.42849684000733,40
2060.0,82.5,81.41585816368587,73.02145921990028,77.63632109248871,43.779537071197154,48.39439894378559,40
2120.0,82.7,81.49936650943732,73.11451907563733,77.73917036921807,43.76019614021925,48.38484743379999,40
2180.0,83.0,81.76149548744667,73.33107471789906,77.95999629398975,43.80149919345692,48.43042076954761,40
2240.0,83.20000000000002,81.82663454223305,73.37369573901609,78.01322451893809,43.81341002329496,48.452938803216966,40
2300.0,83.20000000000002,81.71471775938603,73.1889705598276,77.82240830831782,43.892309451068215,48.52574719955844,40
2360.0,83.4,81.75913700171282,73.14669575686182,77.77391616700348,43.98522083470934,48.612441244851,40
2400.0,84.1,82.3049083508928,73.5744068401537,78.21113320613878,44.09377514475402,48.7305015107391,40
2500.0,85.0,83.12675536862533,74.30282287069954,78.91336259050112,44.2133927781242,48.82393249792578,40
2580.0,85.5,83.5521345838996,74.6439529967263,79.25889925756354,44.29323532633606,48.9081815871733,40
2650.0,85.3,83.316975474202,74.3755434851129,78.98810701694777,44.32886845725423,48.9414319890891,40
2720.0,84.69999999999999,82.77616173959484,73.82235850266174,78.41542428914968,44.36073745044516,48.9538032369331,40
2800.0,84.0,82.10579225639188,73.16832836336582,77.75507828140883,44.35071397498305,48.93746389302606,40
2900.0,83.5,81.71268020877397,72.80071873965338,77.35597365993077,44.356706548843206,48.9119614691206,40
3000.0,83.20000000000002,81.5518809743661,72.6660797918619,77.19990504122646,44.35197593313964,48.885801182504196,40
3070.0,83.20000000000002,81.7791386701276,72.90260482302199,77.39450377985179,44.384634890275805,48.876533847105605,40
3150.0,83.4,82.24788605422656,73.36055890925996,77.8197343671818,44.42815168704476,48.88732714496659,40
3250.0,83.4,82.42776457807815,73.48890553503779,77.9430441084514,44.48472046962675,48.93885904304037,40
3350.0,83.1,82.25288249139804,73.17600436307387,77.6289308143998,44.623951676998246,49.07687812832417,40
3450.0,83.0,82.3109494062578,73.08949574239881,77.56605531633036,44.74489408992744,49.221453663858995,40
3550.0,83.9,83.32406180416666,73.9640919060505,78.46751124771163,44.85655055645503,49.35996989811616,40
3650.0,84.69999999999999,84.20474080762953,74.73614388996869,79.2613512713754,44.94338953625413,49.46859691766085,40
3750.0,85.0,84.46344188835414,74.88838475248907,79.43905140704013,45.024390481314015,49.575057135865066,40
3870.0,84.6,84.070839101915,74.43028756792714,78.99331781748174,45.07752128443326,49.64055153398786,40
4000.0,83.9,83.29691774476811,73.56163909411639,78.14816150113884,45.148756243629265,49.73527865065172,40
4120.0,83.29999999999998,82.65715022625568,72.88645419130461,77.46235656305299,45.19479366320269,49.77069603495107,40
4250.0,83.6,82.80573421320112,72.98786114815228,77.55999574764866,45.24573846555246,49.81787306504884,40
4370.0,84.30000000000001,83.34431209691195,73.4959700093078,78.04837632545798,45.29593577145397,49.84834208760415,40
4500.0,84.9,83.76381224540287,73.86961823142406,78.41617969031402,45.34763255508885,49.89419401397882,40
