Freq "Early Reflections DI"
22.4 40.969742660730475
23.0 40.82826914210639
23.6 40.726513679735774
24.0 40.65270934688877
25.0 40.6003088239743
25.8 40.60759871422482
26.5 40.648175061767944
27.2 40.73758334805811
28.0 40.8688624521333
29.0 40.98855132820674
30.0 41.12325208396018
30.7 41.24641301117214
31.5 41.39969081722245
32.5 41.54190304465166
33.5 41.676786105917984
34.5 41.779827574341
35.5 41.88189767261889
36.5 41.96381255084603
37.5 42.017105611982004
38.7 42.11051620560664
40.0 42.167402291477515
41.2 42.21287368390969
42.5 42.25229750080959
43.7 42.289179134005366
45.0 42.30872934930423
46.2 42.30803538702696
47.5 42.30088302486382
48.7 42.311242077360845
50.0 42.27651688208502
51.5 42.25990005242062
53.0 42.23608915705991
54.5 42.192087379320654
56.0 42.12261589706024
58.0 42.091262019473604
60.0 42.039503839469376
61.5 41.99333249341605
63.0 41.924083830855594
65.0 41.881378337983236
67.0 41.840370673301564
69.0 41.79844589783781
71.0 41.779120799677074
73.0 41.73962167719834
75.0 41.69801189251193
77.5 41.68207504970178
80.0 41.66532401599079
82.5 41.63322300040271
85.0 41.613164562859865
87.5 41.57954758408954
90.0 41.530578053214
92.5 41.50788593854715
95.0 41.473545657691076
97.5 41.46205479867125
100.0 41.426487627228155
103.0 41.39333317161727
106.0 41.38423241673394
109.0 41.375664166806615
112.0 41.367214152899166
115.0 41.354996478597954
118.0 41.352399617221465
122.0 41.363836985420974
125.0 41.350921976891684
128.0 41.36900384906164
132.0 41.38009473873305
136.0 41.37192184035851
140.0 41.3604555153441
145.0 41.37326575103266
150.0 41.37236289615227
155.0 41.37574392000907
160.0 41.35691985030486
165.0 41.36374908181972
170.0 41.36346871729262
175.0 41.38697479227834
180.0 41.40148532356602
185.0 41.42519096270375
190.0 41.459707200146454
195.0 41.48075737172526
200.0 41.520705712124794
206.0 41.55090465203888
212.0 41.56814358109402
218.0 41.59779839214568
224.0 41.64369315270915
230.0 41.64938000102558
236.0 41.66820297877223
240.0 41.69827446501991
250.0 41.70507313257565
258.0 41.72670588558542
265.0 41.7476477593375
272.0 41.77736243671923
280.0 41.79075702778793
290.0 41.82197224391298
300.0 41.860574131579995
307.0 41.89080226123566
315.0 41.926713886025965
325.0 41.95837754133747
335.0 42.03895393240677
345.0 42.09820417024281
355.0 42.127280544078715
365.0 42.18151410675631
375.0 42.22908384325588
387.0 42.30672349000005
400.0 42.356020879814935
412.0 42.42689414947151
425.0 42.51445415963943
437.0 42.57393457974449
450.0 42.64070612720617
462.0 42.707626983577015
475.0 42.75458830621356
487.0 42.80909081277201
500.0 42.87525690788914
515.0 42.90999406496728
530.0 42.931746725184794
545.0 42.97652728177924
560.0 43.01065458195973
580.0 43.0325922782383
600.0 43.08133002995889
615.0 43.09612148731874
630.0 43.12959587899336
650.0 43.166211215111716
670.0 43.235231228517065
690.0 43.32788799989588
710.0 43.39730851092898
730.0 43.50397136100251
750.0 43.608889082854446
775.0 43.72419541220471
800.0 43.834259839513976
825.0 43.9200052620772
850.0 44.02566922586051
875.0 44.11357293039258
900.0 44.19613025945546
925.0 44.27047511192821
950.0 44.31461065579482
975.0 44.38338566986947
1000.0 44.42024401729
1030.0 44.46221409796699
1060.0 44.51671531120701
1090.0 44.55935617456035
1120.0 44.59156887736809
1150.0 44.62958509543317
1180.0 44.6633237625735
1220.0 44.69879475162213
1250.0 44.75484535064092
1280.0 44.77836869887831
1320.0 44.806385920319315
1360.0 44.81409607885573
1400.0 44.81998355746407
1450.0 44.807455154818314
1500.0 44.77483396751529
1550.0 44.744886188758386
1600.0 44.67338769530599
1650.0 44.62723126164856
1700.0 44.524902975536875
1750.0 44.418367703332024
1800.0 44.30799768057781
1850.0 44.180948673736836
1900.0 44.047724684265006
1950.0 43.93732747686529
2000.0 43.81371377827472
2060.0 43.779537071197154
2120.0 43.76019614021925
2180.0 43.80149919345692
2240.0 43.81341002329496
2300.0 43.892309451068215
2360.0 43.98522083470934
2400.0 44.09377514475402
2500.0 44.2133927781242
2580.0 44.29323532633606
2650.0 44.32886845725423
2720.0 44.36073745044516
2800.0 44.35071397498305
2900.0 44.356706548843206
3000.0 44.35197593313964
3070.0 44.384634890275805
3150.0 44.42815168704476
3250.0 44.48472046962675
3350.0 44.623951676998246
3450.0 44.74489408992744
3550.0 44.85655055645503
3650.0 44.94338953625413
3750.0 45.024390481314015
3870.0 45.07752128443326
4000.0 45.148756243629265
4120.0 45.19479366320269
4250.0 45.24573846555246
4370.0 45.29593577145397
4500.0 45.34763255508885
4620.0 45.35227549667427
4750.0 45.37591968726798
4870.0 45.3613809474618
5000.0 45.36055724806904
5150.0 45.35116154531744
5300.0 45.33488989959109
5450.0 45.31029785351477
5600.0 45.28930426520091
5800.0 45.26304391530793
6000.0 45.23176793427929
6150.0 45.22496898757717
6300.0 45.201937894768065
6500.0 45.19638109955471
6700.0 45.21031740057123
6900.0 45.23199341046421
7100.0 45.25624961451119
7300.0 45.273746181105764
7500.0 45.286577216782476
7750.0 45.308513675845205
8000.0 45.299222521362424
8250.0 45.302507545756995
8500.0 45.29368896396325
8750.0 45.286454001622715
9000.0 45.266426678796336
9250.0 45.25115230606991
9500.0 45.228134589159595
9750.0 45.18478071662622
10000.0 45.16181045608579
10300.0 45.1304347100982
10600.0 45.09591633449661
10900.0 45.08225006943168
11200.0 45.04717395965953
11500.0 45.00984746224191
11800.0 44.98582426804934
12200.0 44.94687961584613
12500.0 44.900517657765704
12800.0 44.846708423101404
13200.0 44.79889368741101
13600.0 44.69866819568291
14000.0 44.62900119455438
14500.0 44.52603738628645
15000.0 44.422592671825015
15500.0 44.305764785773746
16000.0 44.23665975165956
16500.0 44.24125123427747
17000.0 44.3593408452756
17500.0 44.492567128627414
18000.0 44.65005815366733
18500.0 44.758274305097274
19000.0 44.804844498944306
19500.0 44.88165806384424
