Freq "Ceiling Bounce"
22.4 56.48346763951382
23.0 57.18868107059241
23.6 57.907227069055736
24.0 58.78405461574941
25.0 59.96859045933921
25.8 61.186874536954335
26.5 62.66597134844476
27.2 64.0412811186987
28.0 65.53353811062068
29.0 66.51032707258254
30.0 66.82970711646298
30.7 66.32972358682665
31.5 65.27075971706537
32.5 64.02175187817357
33.5 63.01578568097723
34.5 62.31540503897689
35.5 62.08995316360907
36.5 62.11889048915698
37.5 62.43895756553806
38.7 62.8350035407819
40.0 63.5349164751524
41.2 64.30539742857684
42.5 65.00250869125774
43.7 65.89381404177084
45.0 66.74035168096844
46.2 67.56921935575969
47.5 68.71903234364801
48.7 69.9625132206552
50.0 71.26194729184085
51.5 72.59238562216105
53.0 74.02402487026022
54.5 75.36839968904114
56.0 76.79431032499558
58.0 78.30498017525765
60.0 79.63538998854158
61.5 80.51177744949754
63.0 81.09312786887125
65.0 81.58339816230347
67.0 81.79350490775855
69.0 81.89501268509856
71.0 81.91851673797268
73.0 82.02449564011559
75.0 82.1528581954999
77.5 82.35789726724572
80.0 82.60748492433018
82.5 82.91066770016045
85.0 83.39110086592409
87.5 83.70605539942797
90.0 84.09088642154667
92.5 84.39192726259259
95.0 84.66024287248466
97.5 84.91512006817752
100.0 85.26474690814801
103.0 85.77960410596293
106.0 86.39278094266247
109.0 86.9214908538715
112.0 87.39238414975148
115.0 87.69238562216104
118.0 87.84576719438469
122.0 87.73821129888744
125.0 87.46769521305295
128.0 87.20076749445562
132.0 86.83513059177983
136.0 86.53513059177983
140.0 86.13663575667188
145.0 85.67071732495408
150.0 85.14044167945492
155.0 84.6760917544922
160.0 84.17928732607432
165.0 83.74680983520814
170.0 83.2840783937255
175.0 82.89046221610057
180.0 82.5595316600418
185.0 82.36826674204794
190.0 82.36966078457043
195.0 82.34066256291328
200.0 82.3121361197686
206.0 82.4121361197686
212.0 82.44413052381576
218.0 82.54413052381575
224.0 82.64413052381578
230.0 82.77662798253904
236.0 82.90473530118575
240.0 83.03752777300028
250.0 83.20473530118575
258.0 83.33752777300028
265.0 83.46588846059687
272.0 83.55667255930051
280.0 83.68623512455237
290.0 83.88623512455239
300.0 84.04898514879551
307.0 84.21227178315618
315.0 84.27928732607431
325.0 84.01227178315618
335.0 83.24898514879551
345.0 82.1489851487955
355.0 80.44898514879551
365.0 79.11916705502752
375.0 79.52758719283592
387.0 80.63752777300027
400.0 81.8489835915084
412.0 83.12179738688896
425.0 83.93546263134682
437.0 84.092378988098
450.0 83.90982855556756
462.0 83.52875610128315
475.0 82.84915203998831
487.0 82.12602452356693
500.0 81.47100612011484
515.0 80.8165581917717
530.0 80.2165581917717
545.0 79.57100612011483
560.0 79.07100612011483
580.0 78.74915203998829
600.0 78.90497668676808
615.0 79.66136837622763
630.0 80.68538710465897
650.0 81.46136837622764
670.0 81.7816120853342
690.0 81.4809849055068
710.0 80.70921140720402
730.0 79.76493035341095
750.0 79.1948466445546
775.0 79.1269682029423
800.0 79.49484664455458
825.0 79.96493035341094
850.0 80.2844476236301
875.0 80.16493035341094
900.0 79.5457722347965
925.0 78.64010271092208
950.0 77.35597330084369
975.0 76.12790007353128
1000.0 75.14465953615895
1030.0 74.44885135917306
1060.0 74.11498382011472
1090.0 74.18246753146329
1120.0 74.66322504785602
1150.0 75.59484664455461
1180.0 76.94577223479651
1220.0 78.20851320750933
1250.0 79.35872457742296
1280.0 80.21145938100321
1320.0 80.65206000485604
1360.0 80.55086653771838
1400.0 79.96870529959135
1450.0 79.0849305486431
1500.0 78.20432912249856
1550.0 77.59037884047719
1600.0 77.0422920764254
1650.0 76.12294362715998
1700.0 74.76097559154803
1750.0 73.6687693989117
1800.0 73.84258273663015
1850.0 74.24010271092207
1900.0 74.34412887807498
1950.0 74.57991415162184
2000.0 75.70091389014041
2060.0 76.97584607527146
2120.0 77.60034112939827
2180.0 77.87641629732153
2240.0 77.88915630129641
2300.0 78.00722417372364
2360.0 78.73833499684072
2400.0 79.26004623006338
2500.0 79.23955252761746
2580.0 78.70677539847122
2650.0 77.88067853625087
2720.0 76.60879341872709
2800.0 75.80828138634375
2900.0 75.078158158388
3000.0 74.60618886310185
3070.0 75.23984210571484
3150.0 76.0697022787301
3250.0 76.41904818931285
3350.0 75.84942636664185
3450.0 75.10233757958504
3550.0 74.94351870470794
3650.0 74.79430744544665
3750.0 74.2261160916701
3870.0 74.30072921332074
4000.0 74.61923785438674
4120.0 75.17558286183476
4250.0 75.71159122480906
4370.0 76.14085778997118
4500.0 75.50194647231365
4620.0 74.17064646170111
4750.0 73.3257759478207
4870.0 73.17269619418157
5000.0 73.61867994149331
5150.0 73.85866027600834
5300.0 73.14376119654482
5450.0 72.04704584057053
5600.0 71.31322397933475
5800.0 71.51320799324539
6000.0 73.04450134732097
6150.0 74.13818451355057
6300.0 73.32493630578655
6500.0 72.60391141983602
6700.0 71.85494901263858
6900.0 71.57506303171671
7100.0 71.47635623466556
7300.0 71.33081383920918
7500.0 71.02327689512386
7750.0 71.19690620373726
8000.0 72.18836336106192
8250.0 71.46937334571008
8500.0 69.38023038165939
8750.0 67.10785720669553
9000.0 69.04113351361487
9250.0 72.1777603935633
9500.0 71.25917873856527
9750.0 69.32057765478034
10000.0 67.01827044285325
10300.0 67.90445255191632
10600.0 65.54901087379027
10900.0 65.71906416705697
11200.0 66.12466146707237
11500.0 64.60928887789396
11800.0 66.71556202963556
12200.0 67.39095599166443
12500.0 65.47778589437706
12800.0 69.32588260310698
13200.0 66.55148088538199
13600.0 61.200345720116886
14000.0 63.976109722270124
14500.0 63.52572200748598
15000.0 61.44958913638585
15500.0 62.811619907826966
16000.0 62.11126851441131
16500.0 58.3292645040424
17000.0 62.51934769089419
17500.0 56.78296591161957
18000.0 53.95294610827882
18500.0 52.14986250663914
19000.0 47.08362512126281
19500.0 47.73862722572578
