Freq "Ceiling Bounce"
22.4 56.773341057235356
23.0 57.47855448831395
23.6 58.19710048677727
24.0 59.07392803347095
25.0 60.25846387706075
25.8 61.47674795467587
26.5 62.955844766166294
27.2 64.33115453642024
28.0 65.82341152834222
29.0 66.80020049030408
30.0 67.11958053418452
30.7 66.61959700454818
31.5 65.56063313478691
32.5 64.31162529589511
33.5 63.30565909869877
34.5 62.60527845669843
35.5 62.379826581330605
36.5 62.40876390687852
37.5 62.7288309832596
38.7 63.124876958503435
40.0 63.82478989287394
41.2 64.59527084629838
42.5 65.29238210897928
43.7 66.18368745949238
45.0 67.03022509868998
46.2 67.85909277348122
47.5 69.00890576136955
48.7 70.25238663837673
50.0 71.55182070956239
51.5 72.88225903988258
53.0 74.31389828798176
54.5 75.65827310676268
56.0 77.08418374271712
58.0 78.59485359297919
60.0 79.92526340626311
61.5 80.80165086721908
63.0 81.38300128659279
65.0 81.873271580025
67.0 82.08337832548008
69.0 82.1848861028201
71.0 82.20839015569422
73.0 82.31436905783713
75.0 82.44273161322144
77.5 82.64777068496726
80.0 82.89735834205172
82.5 83.20054111788198
85.0 83.68097428364563
87.5 83.9959288171495
90.0 84.38075983926821
92.5 84.68180068031413
95.0 84.9501162902062
97.5 85.20499348589905
100.0 85.55462032586955
103.0 86.06947752368447
106.0 86.682654360384
109.0 87.21136427159304
112.0 87.68225756747302
115.0 87.98225903988258
118.0 88.13564061210623
122.0 88.02808471660897
125.0 87.75756863077449
128.0 87.49064091217716
132.0 87.12500400950137
136.0 86.82500400950137
140.0 86.42650917439342
145.0 85.96059074267562
150.0 85.43031509717646
155.0 84.96596517221374
160.0 84.46916074379585
165.0 84.03668325292968
170.0 83.57395181144703
175.0 83.18033563382211
180.0 82.84940507776334
185.0 82.65814015976947
190.0 82.65953420229197
195.0 82.63053598063482
200.0 82.60200953749013
206.0 82.70200953749014
212.0 82.7340039415373
218.0 82.83400394153729
224.0 82.93400394153731
230.0 83.06650140026058
236.0 83.19460871890729
240.0 83.32740119072182
250.0 83.49460871890729
258.0 83.62740119072181
265.0 83.75576187831841
272.0 83.84654597702205
280.0 83.9761085422739
290.0 84.17610854227392
300.0 84.33885856651705
307.0 84.50214520087772
315.0 84.56916074379585
325.0 84.30214520087772
335.0 83.53885856651705
345.0 82.43885856651704
355.0 80.73885856651705
365.0 79.40904047274906
375.0 79.81746061055746
387.0 80.92740119072181
400.0 82.13885700922994
412.0 83.4116708046105
425.0 84.22533604906836
437.0 84.38225240581954
450.0 84.1997019732891
462.0 83.81862951900469
475.0 83.13902545770985
487.0 82.41589794128846
500.0 81.76087953783637
515.0 81.10643160949324
530.0 80.50643160949323
545.0 79.86087953783637
560.0 79.36087953783637
580.0 79.03902545770983
600.0 79.19485010448962
615.0 79.95124179394917
630.0 80.97526052238051
650.0 81.75124179394918
670.0 82.07148550305574
690.0 81.77085832322834
710.0 80.99908482492556
730.0 80.05480377113248
750.0 79.48472006227614
775.0 79.41684162066383
800.0 79.78472006227612
825.0 80.25480377113247
850.0 80.57432104135164
875.0 80.45480377113248
900.0 79.83564565251804
925.0 78.92997612864362
950.0 77.64584671856522
975.0 76.41777349125282
1000.0 75.43453295388049
1030.0 74.7387247768946
1060.0 74.40485723783625
1090.0 74.47234094918483
1120.0 74.95309846557755
1150.0 75.88472006227614
1180.0 77.23564565251804
1220.0 78.49838662523086
1250.0 79.6485979951445
1280.0 80.50133279872475
1320.0 80.94193342257758
1360.0 80.84073995543991
1400.0 80.25857871731289
1450.0 79.37480396636464
1500.0 78.4942025402201
1550.0 77.88025225819872
1600.0 77.33216549414693
1650.0 76.41281704488152
1700.0 75.05084900926957
1750.0 73.95864281663324
1800.0 74.13245615435169
1850.0 74.52997612864361
1900.0 74.63400229579652
1950.0 74.86978756934337
2000.0 75.99078730786195
2060.0 77.265719492993
2120.0 77.89021454711981
2180.0 78.16628971504306
2240.0 78.17902971901795
2300.0 78.29709759144518
2360.0 79.02820841456226
2400.0 79.54991964778492
2500.0 79.529425945339
2580.0 78.99664881619276
2650.0 78.1705519539724
2720.0 76.89866683644863
2800.0 76.09815480406529
2900.0 75.36803157610954
3000.0 74.89606228082339
3070.0 75.52971552343638
3150.0 76.35957569645164
3250.0 76.70892160703438
3350.0 76.13929978436339
3450.0 75.39221099730658
3550.0 75.23339212242948
3650.0 75.08418086316819
3750.0 74.51598950939163
3870.0 74.59060263104227
4000.0 74.90911127210828
4120.0 75.46545627955629
4250.0 76.00146464253059
4370.0 76.43073120769272
4500.0 75.79181989003519
4620.0 74.46051987942265
4750.0 73.61564936554224
4870.0 73.4625696119031
5000.0 73.90855335921485
5150.0 74.14853369372987
5300.0 73.43363461426635
5450.0 72.33691925829207
5600.0 71.60309739705629
5800.0 71.80308141096693
6000.0 73.33437476504251
6150.0 74.42805793127211
6300.0 73.61480972350809
6500.0 72.89378483755756
6700.0 72.14482243036012
6900.0 71.86493644943825
7100.0 71.7662296523871
7300.0 71.62068725693072
7500.0 71.3131503128454
7750.0 71.4867796214588
8000.0 72.47823677878345
8250.0 71.75924676343162
8500.0 69.67010379938093
8750.0 67.39773062441706
9000.0 69.3310069313364
9250.0 72.46763381128484
9500.0 71.5490521562868
9750.0 69.61045107250187
10000.0 67.30814386057479
10300.0 68.19432596963786
10600.0 65.8388842915118
10900.0 66.00893758477851
11200.0 66.41453488479391
11500.0 64.8991622956155
11800.0 67.0054354473571
12200.0 67.68082940938596
12500.0 65.7676593120986
12800.0 69.61575602082851
13200.0 66.84135430310353
13600.0 61.49021913783842
14000.0 64.26598313999166
14500.0 63.81559542520752
15000.0 61.73946255410739
15500.0 63.1014933255485
16000.0 62.401141932132845
16500.0 58.61913792176394
17000.0 62.80922110861573
17500.0 57.07283932934111
18000.0 54.24281952600036
18500.0 52.439735924360676
19000.0 47.37349853898435
19500.0 48.028500643447316
