Freq "Rear Wall Bounce"
22.4 52.16552326714016
23.0 52.31210055720247
23.6 52.57290161218698
24.0 52.9937545282411
25.0 53.52936950182634
25.8 54.20539783014546
26.5 55.0013229057319
27.2 55.870155238864996
28.0 56.91304295468204
29.0 58.05017320443467
30.0 59.13815830850844
30.7 60.4379780436919
31.5 62.11876271704584
32.5 64.23652273293574
33.5 66.9481218050297
34.5 70.07776133007054
35.5 73.56669911021525
36.5 76.68052215969196
37.5 78.53388699530127
38.7 79.14616363951919
40.0 79.07230153130409
41.2 79.068422367248
42.5 79.40205461973446
43.7 80.13747116848823
45.0 80.95571776749166
46.2 81.93766181478817
47.5 83.17694208421521
48.7 84.3444127963
50.0 85.29729786749438
51.5 85.89998192043143
53.0 86.21253249047126
54.5 86.30470296568085
56.0 86.47030774171667
58.0 86.74145794832518
60.0 87.298660485675
61.5 88.08788966844577
63.0 89.17365591669775
65.0 91.00956564318851
67.0 92.23853929679774
69.0 92.1212478658049
71.0 90.2368889471646
73.0 88.30830793382961
75.0 86.65010467278469
77.5 85.14797811124588
80.0 84.13467052406452
82.5 83.37157300504036
85.0 82.9333796298796
87.5 82.75900235570998
90.0 82.57321888434018
92.5 82.51145774936366
95.0 82.54269394233448
97.5 82.67718819939456
100.0 82.85024709788719
103.0 83.18838041418819
106.0 83.56611453224053
109.0 83.96641110927126
112.0 84.47196207063737
115.0 84.89922424731907
118.0 85.27936580411125
122.0 85.56705500875358
125.0 85.7143118331708
128.0 85.85414289596223
132.0 85.88913630096299
136.0 85.91925045176727
140.0 85.84960056350873
145.0 85.55377964033913
150.0 85.21670106113922
155.0 84.82714193441537
160.0 84.41620151377072
165.0 83.90765620274385
170.0 83.39659355986218
175.0 82.86132258314107
180.0 82.34171198667924
185.0 81.9018615971158
190.0 81.60746344838616
195.0 81.33137279428978
200.0 81.0787594960471
206.0 80.95569125740191
212.0 80.86427513356978
218.0 80.80312740288623
224.0 80.83377055741568
230.0 80.88881648104336
236.0 80.97091675123315
240.0 81.0101886808732
250.0 81.12162648832782
258.0 81.17785301569428
265.0 81.2099271703203
272.0 81.16246539359652
280.0 81.11425468429375
290.0 81.10249654910734
300.0 81.04938841533941
307.0 80.88228694813472
315.0 80.61793630342683
325.0 80.04081591934043
335.0 78.95341073328332
345.0 77.558910548544
355.0 75.62296610862039
365.0 74.09665536439651
375.0 74.29301482842494
387.0 75.23413493781904
400.0 76.27803285045503
412.0 77.41474823352767
425.0 78.10309783047776
437.0 78.1955779236846
450.0 78.00225420294377
462.0 77.61931760145497
475.0 76.99589410572504
487.0 76.30084098930998
500.0 75.67027881867021
515.0 74.96055471626843
530.0 74.1721158822182
545.0 73.24125134259614
560.0 72.37273277518183
580.0 71.54361198312621
600.0 71.19051088270363
615.0 71.4672157180532
630.0 72.11202378736009
650.0 72.7109911800859
670.0 73.03998135044957
690.0 72.94001398681958
710.0 72.40490173627538
730.0 71.58643116141961
750.0 70.76227201493968
775.0 70.0826266336528
800.0 69.64141194287718
825.0 69.33179555144243
850.0 68.8924758218877
875.0 68.2700210759065
900.0 67.54063879711428
925.0 66.89985813128125
950.0 66.23635126830943
975.0 65.67588058746946
1000.0 65.1529345927748
1030.0 64.64769798588928
1060.0 64.13947477440799
1090.0 63.93109474183207
1120.0 64.0541044775471
1150.0 64.56449087807174
1180.0 65.52860649039597
1220.0 66.53997966239955
1250.0 68.01491039966989
1280.0 69.76942326296529
1320.0 71.15538487199882
1360.0 71.64928652892254
1400.0 70.96709318764512
1450.0 69.326257984093
1500.0 67.53186940942425
1550.0 66.86539160018366
1600.0 67.134363318643
1650.0 67.23351023896073
1700.0 66.6625671379581
1750.0 65.50795342451819
1800.0 64.27244140812506
1850.0 63.57525106680532
1900.0 63.862106151174046
1950.0 64.49079235506817
2000.0 65.12560906335197
2060.0 65.80701384623316
2120.0 66.41147418916665
2180.0 67.1407386579117
2240.0 67.7940462207494
2300.0 68.16720093432032
2360.0 68.40152354188237
2400.0 68.25095555918885
2500.0 67.63017105164784
2580.0 66.73018672921849
2650.0 65.92353387545062
2720.0 65.00267469525957
2800.0 64.17127109596427
2900.0 62.772049751080516
3000.0 61.971517067697846
3070.0 62.81046760783694
3150.0 64.14968567198943
3250.0 65.27739319115086
3350.0 65.15301610311886
3450.0 64.52410915961923
3550.0 64.2308949579797
3650.0 63.895335764753256
3750.0 63.479816490467655
3870.0 63.25752643450535
4000.0 63.481234406955124
4120.0 63.78274849714289
4250.0 63.71916985204494
4370.0 63.77832754136077
4500.0 63.32118868235001
4620.0 62.57112398416285
4750.0 61.862505085135766
4870.0 61.85478267540533
5000.0 63.058681011717894
5150.0 64.0916380303009
5300.0 64.4597978876907
5450.0 64.28695926753316
5600.0 63.49502557577772
5800.0 61.79344344844158
6000.0 58.80804444125239
6150.0 54.11528312699859
6300.0 53.975161883856586
6500.0 58.86090421759424
6700.0 61.4959686090519
6900.0 61.03360787718195
7100.0 58.42324854644154
7300.0 56.47891644968816
7500.0 54.53868959898189
7750.0 51.656951322064785
8000.0 53.63066674193813
8250.0 55.13246775904729
8500.0 55.62074814619275
8750.0 55.69784706035104
9000.0 55.6518895760443
9250.0 50.743806301330565
9500.0 45.79974400915795
9750.0 53.54978713580091
10000.0 55.71299772682171
10300.0 53.33356411222509
10600.0 48.09982143691947
10900.0 43.106317766795556
11200.0 47.47474632481264
11500.0 50.41242589798675
11800.0 48.12170285823434
12200.0 40.08943599464949
12500.0 44.960733661392524
12800.0 48.46919506640778
13200.0 48.36617871057875
13600.0 45.58171283413783
14000.0 43.11359313640743
14500.0 39.90914838181486
15000.0 40.71036377522377
15500.0 40.130481119917576
16000.0 40.259519661192556
16500.0 42.385566728966566
17000.0 36.87330129593347
17500.0 38.31564889786678
18000.0 41.5504262211913
18500.0 31.37977976637741
19000.0 29.384332291587256
19500.0 32.24197666394518
