Freq,On Axis,Listening Window,Sound Power,Early Reflections,Early Reflections DI,Sound Power DI,DI offset
22.4,33.89999999999999,33.89999999999999,31.227332255183754,33.04427084869154,20.855729151308452,22.672667744816238,20
23.0,34.000000000000014,34.01122549985844,31.345243048778926,33.15266682846216,20.85855867139628,22.665982451079515,20
23.6,34.2,34.189001920046636,31.49528695050948,33.304130830562045,20.88487108948459,22.693714969537155,20
24.0,34.3,34.28900192004663,31.607174721158984,33.42818513248183,20.8608167875648,22.681827198887646,20
25.0,34.500000000000014,34.500000000000014,31.82042439366036,33.644270848691534,20.85572915130848,22.679575606339654,20
25.8,34.8,34.8,32.115472122467835,33.9281851324818,20.871814867518196,22.68452787753216,20
26.5,35.10000000000001,35.08900192004664,32.40033769466761,34.22030572187539,20.86869619817125,22.68866422537903,20
27.2,35.3,35.31122549985842,32.64010533500097,34.444270848691545,20.86695465116688,22.671120164857456,20
28.0,35.60000000000001,35.60000000000001,32.915472122467875,34.72818513248184,20.871814867518168,22.684527877532133,20
29.0,35.8,35.81122549985842,33.14524304877891,34.95266682846217,20.858558671396253,22.665982451079515,20
30.0,36.10000000000001,36.10000000000001,33.420424393660326,35.24427084869153,20.85572915130848,22.679575606339682,20
30.7,36.39999999999999,36.39999999999999,33.70876836786606,35.5203057218754,20.87969427812459,22.691231632133935,20
31.5,36.7,36.689001920046636,34.000337694667635,35.820305721875414,20.86869619817122,22.688664225379,20
32.5,36.89999999999999,36.91122549985842,34.24010533500093,36.04427084869154,20.86695465116688,22.671120164857484,20
33.5,37.2,37.2,34.511806638066176,36.328185132481806,20.871814867518196,22.688193361933827,20
34.5,37.39999999999999,37.41122549985842,34.74010533500093,36.54427084869154,20.86695465116688,22.671120164857484,20
35.5,37.7,37.7,35.02042439366035,36.84427084869155,20.855729151308452,22.679575606339654,20
36.5,38.000000000000014,38.000000000000014,35.30876836786605,37.120305721875425,20.87969427812459,22.691231632133963,20
37.5,38.2,38.21122549985843,35.545243048778914,37.352666828462176,20.858558671396253,22.665982451079515,20
38.7,38.500000000000014,38.500000000000014,35.8134947041173,37.63642059478447,20.863579405215546,22.68650529588271,20
40.0,38.8,38.78900192004663,36.10413320766317,37.92030572187541,20.86869619817122,22.684868712383462,20
41.2,39.10000000000001,39.10000000000001,36.420424393660355,38.244270848691556,20.855729151308452,22.679575606339654,20
42.5,39.39999999999999,39.39999999999999,36.725565909091145,38.54427084869154,20.855729151308452,22.674434090908846,20
43.7,39.7,39.7,37.027332255183765,38.84427084869152,20.85572915130848,22.672667744816238,20
45.0,40.10000000000001,40.08900192004664,37.39528695050949,39.20413083056202,20.88487108948462,22.693714969537155,20
46.2,40.500000000000014,40.500000000000014,37.82733225518375,39.64427084869156,20.855729151308452,22.672667744816266,20
47.5,40.89999999999999,40.91122549985842,38.24297759552694,40.052666828462165,20.858558671396253,22.66824790433148,20
48.7,41.3,41.31122549985842,38.64010533500094,40.444270848691545,20.86695465116688,22.671120164857484,20
50.0,41.8,41.78900192004663,39.10413320766317,40.92030572187541,20.86869619817122,22.684868712383462,20
51.5,42.2,42.2,39.528976017763156,41.34427084869154,20.855729151308466,22.671023982236846,20
53.0,42.60000000000001,42.60000000000001,39.9322163946256,41.74427084869154,20.855729151308466,22.66778360537441,20
54.5,43.0,43.011225499858426,40.34010533500093,42.144270848691534,20.866954651166893,22.6711201648575,20
56.0,43.39999999999999,43.41122549985842,40.7452430487789,42.552666828462165,20.858558671396253,22.665982451079515,20
58.0,43.8,43.81122549985842,41.14010533500094,42.94427084869153,20.866954651166893,22.671120164857484,20
60.0,44.2,44.2,41.53921920013036,43.34427084869155,20.855729151308452,22.66078079986964,20
61.5,44.60000000000001,44.60000000000001,41.92556590909115,43.74427084869153,20.85572915130848,22.67443409090886,20
63.0,44.999999999999986,44.999999999999986,42.30876836786605,44.12030572187541,20.879694278124575,22.691231632133935,20
65.0,45.39999999999999,45.389001920046624,42.69528695050947,44.50413083056202,20.884871089484605,22.693714969537155,20
67.0,45.7,45.711225499858415,43.03687084111661,44.84427084869152,20.866954651166893,22.674354658741805,20
69.0,46.10000000000001,46.08900192004664,43.40033769466761,45.220305721875405,20.868696198171236,22.68866422537903,20
71.0,46.39999999999999,46.41122549985842,43.74010533500095,45.54427084869154,20.86695465116688,22.67112016485747,20
73.0,47.2,54.6911125356708,54.93286074540633,55.0077263540435,19.6833861816273,19.758251790264467,20
75.0,47.499999999999986,54.14331586307486,53.94186945119924,54.25599567375154,19.88732018932332,20.201446411875622,20
77.5,47.7,53.71501469599389,53.005520559308906,53.581822730368145,20.13319196562574,20.70949413668498,20
80.0,48.0,53.59364684637137,52.40847152531076,53.23786465726049,20.355782189110883,21.185175321060612,20
82.5,48.3,53.570728015717435,52.089847805856465,53.11049239895304,20.460235616764393,21.48088020986097,20
85.0,48.60000000000001,53.746113605856294,51.93690871925769,53.1588438128516,20.587269793004694,21.809204886598607,20
87.5,49.10000000000001,54.11810979609368,52.055015986370776,53.43891283962125,20.679196956472424,22.0630938097229,20
90.0,49.8,54.625265577151296,52.32436394042763,53.847851484834194,20.777414092317102,22.300901636723665,20
92.5,50.7,55.421033895441056,52.90141729826212,54.56209326205243,20.858940633388627,22.51961659717894,20
95.0,51.5,56.12482245617072,53.464187680132056,55.22702338620172,20.897799069968997,22.660634776038663,20
97.5,52.3,56.89410715229867,54.067012183661404,55.930386925333934,20.96372022696474,22.82709496863727,20
100.0,53.0,57.59410715229866,54.613604352745526,56.58026927399493,21.013837878303733,22.980502799553136,20
103.0,53.8,58.20199612836004,55.13750558390559,57.190217207646825,21.011778920713212,23.064490544454443,20
106.0,54.39999999999999,58.8678077708725,55.64452767988966,57.78364642144621,21.084161349426296,23.22328009098284,20
109.0,54.999999999999986,59.40199612836004,56.13019375695555,58.324509838206765,21.077486290153274,23.27180237140449,20
112.0,55.60000000000001,59.99720092301169,56.58861810851418,58.87109523762358,21.12610568538811,23.408582814497507,20
115.0,56.2,60.5060733431891,57.02571772444509,59.35528541347783,21.15078792971127,23.480355618744014,20
118.0,56.8,61.075929321278394,57.46589834117371,59.86261568549581,21.213313635782583,23.610030980104682,20
122.0,57.3,61.505455464927806,57.87529078704172,60.31819647948909,21.187258985438717,23.630164677886086,20
125.0,57.8,61.98395096480684,58.2761135423621,60.77993844066002,21.20401252414682,23.70783742244474,20
128.0,58.2,62.4759293212784,58.654274410057326,61.20832215389838,21.26760716738002,23.821654911221074,20
132.0,58.7,62.8801265658236,59.037747815251876,61.63703694243175,21.243089623391853,23.842378750571726,20
136.0,59.2,63.3801265658236,59.47189593946142,62.117856748516004,21.262269817307597,23.908230626362183,20
140.0,59.7,63.88012656582359,59.93741600638029,62.61424001510082,21.26588655072277,23.9427105594433,20
145.0,60.3,64.47541690219845,60.433346458671735,63.147954743283464,21.327462158914983,24.04207044352671,20
150.0,60.89999999999999,64.69508306477744,60.710865667374506,63.41074390839189,21.284339156385542,23.98421739740293,20
155.0,61.5,64.86684459191765,60.93931092490473,63.612607800459514,21.25423679145814,23.927533667012924,20
160.0,62.10000000000001,65.07310808304196,61.199166531892814,63.84508504811966,21.228023034922302,23.873941551149144,20
165.0,62.7,65.27061388242812,61.4715773463566,64.06925525233576,21.201358630092358,23.799036536071526,20
170.0,63.3,65.56511873949687,61.806958483617834,64.37940749230509,21.185711247191776,23.758160255879034,20
175.0,63.8,65.70877725011435,62.02643707850511,64.56266798357724,21.14610926653711,23.68234017160924,20
180.0,64.1,65.66144850505034,62.02418036972348,64.51633608213793,21.14511242291242,23.637268135326863,20
185.0,64.2,65.49045604014633,61.88800412476526,64.34944691542265,21.14100912472368,23.602451915381067,20
190.0,64.3,65.33984157045585,61.79542958085902,64.22109922731156,21.11874234314429,23.544411989596824,20
195.0,64.5,65.27019659438861,61.790420556728364,64.1832240306598,21.086972563728807,23.479776037660244,20
200.0,64.7,65.26552803996503,61.85011349265389,64.20830400065246,21.057224039312572,23.415414547311144,20
206.0,65.1,65.33080012249849,61.977354379754985,64.28956024613238,21.041239876366106,23.353445742743503,20
212.0,65.4,65.48209645363227,62.194216570697066,64.47126343452844,21.010833019103828,23.2878798829352,20
218.0,65.8,65.5971006775429,62.34993222499217,64.57977587033372,21.017324807209178,23.247168452550724,20
224.0,65.8,65.63558319196675,62.41911782408606,64.62378352277719,21.011799669189557,23.216465367880687,20
230.0,65.8,65.64673878305402,62.43870249063467,64.60154264510736,21.04519613794666,23.20803629241935,20
236.0,65.9,65.67044851141146,62.512676387657976,64.6505673018526,21.01988120955886,23.15777212375349,20
240.0,65.9,65.70702528468199,62.60768265020866,64.704412017514,21.002613267167987,23.09934263447333,20
250.0,66.00000000000001,65.81023032104555,62.73083510048127,64.79233341250311,21.01789690854244,23.07939522056428,20
258.0,66.09999999999998,65.92085260166543,62.86140103107677,64.88974204670244,21.031110554962993,23.059451570588664,20
265.0,66.09999999999998,65.92583470592362,62.91103664633968,64.90124798586002,21.024586720063596,23.01479805958394,20
272.0,66.09999999999998,65.89031752396151,62.892219071107235,64.84311189074273,21.04720563321878,22.99809845285428,20
280.0,66.00000000000001,65.83282593219452,62.870094840250644,64.7834007924046,21.049425139789918,22.96273109194388,20
290.0,66.00000000000001,65.78848668239918,62.868139748871485,64.73292965659148,21.0555570258077,22.920346933527696,20
300.0,65.9,65.84155218981182,62.94878941485078,64.82030170088184,21.02125048892998,22.892762774961042,20
307.0,65.8,65.8744309056598,63.04879635136764,64.92361814285958,20.950812762800226,22.825634554292165,20
315.0,65.7,65.89500071682654,63.125605640338065,64.99948607365121,20.895514643175332,22.76939507648848,20
325.0,65.6,65.92532802972146,63.20754503804086,65.09324426616946,20.832083763551992,22.717782991680593,20
335.0,65.5,65.95562743490775,63.25093025293624,65.15049877698554,20.80512865792221,22.70469718197151,20
345.0,65.4,65.97182099666975,63.339985729398634,65.24406231991917,20.727758676750582,22.631835267271114,20
355.0,65.3,66.11326922508671,63.52606895737716,65.43015269617324,20.683116528913473,22.587200267709548,20
365.0,65.4,66.26478919295512,63.70847431990167,65.62794355970566,20.636845633249465,22.556314873053452,20
375.0,65.4,66.28900394318224,63.704661485676255,65.63872965138675,20.650274291795483,22.584342457505983,20
387.0,65.5,66.33253942450531,63.691981195201905,65.64756627671844,20.684973147786877,22.64055822930341,20
400.0,65.6,66.38540498150188,63.69897162076758,65.6680737877563,20.71733119374558,22.6864333607343,20
412.0,65.7,66.49580401166335,63.77526348179795,65.74977710497163,20.746026906691725,22.720540529865403,20
425.0,65.8,66.58783500741261,63.850973093122505,65.86141381995029,20.72642118746232,22.736861914290103,20
437.0,66.00000000000001,66.70872701186535,63.89644823440281,65.917037877654,20.791689134211353,22.812278777462538,20
450.0,66.09999999999998,66.66560784185545,63.81093945279429,65.83228998243949,20.833317859415956,22.85466838906116,20
462.0,66.09999999999998,66.50952765865613,63.62251116473949,65.64699081771946,20.86253684093667,22.887016493916633,20
475.0,66.2,66.3704793133354,63.38686610114969,65.42155273288425,20.948926580451143,22.983613212185702,20
487.0,66.2,66.13827684602508,63.097608615191646,65.12862719383428,21.009649652190802,23.040668230833433,20
500.0,66.2,65.94778592100813,62.80326837692607,64.84505933198267,21.102726589025465,23.144517544082063,20
515.0,66.2,65.79059227976667,62.556194799998494,64.59357389396007,21.1970183858066,23.234397479768177,20
530.0,66.2,65.64129510552344,62.32424860907868,64.39027215968254,21.2510229458409,23.31704649644476,20
545.0,66.00000000000001,65.45982756174378,62.02747907993874,64.11986124977828,21.339966311965497,23.432348481805036,20
560.0,65.9,65.27386627533586,61.71275460188808,63.83152531393533,21.442340961400532,23.561111673447783,20
580.0,65.9,65.21423265190822,61.51097816267425,63.66705369155024,21.547178960357982,23.70325448923397,20
600.0,66.00000000000001,65.39167298501224,61.69545506564479,63.820427082368795,21.57124590264344,23.69621791936744,20
615.0,65.9,65.58123330553575,61.99887543028062,64.069351786157,21.511881519378747,23.582357875255127,20
630.0,65.8,65.70561627732089,62.19538729890297,64.21283425439648,21.492782022924402,23.510228978417913,20
650.0,65.7,65.79453795064603,62.35657099345927,64.33758188641802,21.45695606422801,23.43796695718676,20
670.0,65.5,65.88152873995622,62.57271598573821,64.5250132063717,21.356515533584528,23.30881275421801,20
690.0,65.4,65.9647888128889,62.7791038175299,64.75288427717199,21.21190453571691,23.185684995358997,20
710.0,65.3,66.119489769131,63.066081405562244,65.03476362170406,21.084726147426935,23.05340836356875,20
730.0,65.3,66.24420767005769,63.29421993240247,65.2817065892326,20.962501080825092,22.94998773765522,20
750.0,65.3,66.14330895087737,63.222916591057285,65.20230851880599,20.941000432071377,22.920392359820084,20
775.0,65.3,66.01558754722117,63.09537764800213,65.07805547432935,20.937532072891827,22.920209899219046,20
800.0,65.2,65.72971117312342,62.837066209540254,64.83265009007631,20.897061083047106,22.892644963583166,20
825.0,65.1,65.35990510759108,62.54100224082899,64.50482534701642,20.855079760574654,22.818902866762087,20
850.0,64.90000000000002,64.86743744105682,62.17526930986675,64.10775791112407,20.759679529932754,22.692168131190073,20
875.0,64.7,64.36690517862596,61.790945595854126,63.69037190893995,20.676533269686004,22.57595958277183,20
900.0,64.60000000000001,64.15544565254686,61.57110075020084,63.4628892335066,20.692556419040258,22.584344902346018,20
925.0,64.5,64.01280665919818,61.335836162771685,63.23976023675412,20.773046422444054,22.67697049642649,20
950.0,64.3,63.83970092748622,61.035838233093855,62.97155214556017,20.868148781926052,22.803862694392365,20
975.0,64.1,64.0657764046126,61.16316325715576,63.161691730555816,20.90408467405679,22.902613147456847,20
1000.0,64.0,64.40925251473503,61.426510883155856,63.488931956827855,20.920320557907175,22.982741631579174,20
1030.0,64.0,64.78506940914828,61.80883376748464,63.91607300845503,20.86899640069325,22.976235641663635,20
1060.0,63.89999999999999,65.00716958937504,62.21875178834027,64.29696672148596,20.71020286788908,22.788417801034768,20
1090.0,63.8,65.13271224349725,62.543400994537606,64.58097181037789,20.551740433119363,22.589311248959646,20
1120.0,63.7,64.95861310720487,62.66816720599475,64.60237274497213,20.35624036223274,22.29044590121012,20
1150.0,63.3,64.43403904950696,62.472487068389725,64.26316164871874,20.17087740078823,21.96155198111724,20
1180.0,62.89999999999999,63.601855259083536,61.79277761881117,63.45391666693156,20.147938592151974,21.809077640272363,20
1220.0,63.0,62.9425286341034,61.073930541796,62.61567115481968,20.326857479283717,21.868598092307394,20
1250.0,63.3,62.72595441839991,60.73704959521106,62.23290602776244,20.49304839063747,21.988904823188847,20
1280.0,63.500000000000014,62.681327928116104,60.514298635638525,62.03306939796461,20.648258530151494,22.16702929247758,20
1320.0,64.1,63.63937092077812,61.373469947094264,62.99295756395769,20.64641335682043,22.265900973683856,20
1360.0,64.5,64.59240304583348,62.31562226525479,64.02373885632547,20.568664189508013,22.27678078057869,20
1400.0,64.8,65.36507583591948,63.09255118485777,64.91669101863577,20.44838481728371,22.272524651061715,20
1450.0,64.8,65.66249972904585,63.41619840031477,65.36606602641469,20.296433702631163,22.24630132873108,20
1500.0,64.5,65.30329582872832,63.20930128997934,65.16679119851179,20.136504630216535,22.093994538748987,20
1550.0,64.1,64.65033133028173,62.74108251196087,64.70447851346798,19.945852816813755,21.90924881832086,20
1600.0,64.1,63.82647644578222,62.00701065883311,63.87540721694921,19.951069228833006,21.81946578694911,20
1650.0,63.8,63.376590028267984,61.48271672971852,63.31551419796898,20.061075830299004,21.893873298549465,20
1700.0,63.7,63.498426078293605,61.306298820319554,63.18515823297619,20.313267845317412,22.19212725797405,20
1750.0,64.4,64.67233399964097,61.874155329735586,63.867035880931766,20.805298118709203,22.798178669905383,20
1800.0,64.99999999999999,65.56376954680867,62.451578923873086,64.47678842461526,21.086981122193407,23.112190622935586,20
1850.0,65.5,66.00952765865613,62.861795836309895,64.86843782796993,21.141089830686198,23.14773182234623,20
1900.0,65.7,65.92577165594687,62.923444596459504,64.83138271406,21.094388941886876,23.00232705948737,20
1950.0,65.6,65.26912037407394,62.198704926156,64.01911144508075,21.250008928993182,23.070415447917938,20
2000.0,65.8,64.98526465440048,61.562820096344964,63.389551132018354,21.595713522382127,23.422444558055517,20
2060.0,66.2,65.26958359550372,61.554557876099565,63.44036019693418,21.82922339856954,23.715025719404153,20
2120.0,66.5,65.93201496428296,62.39493266239852,64.28130182816066,21.65071313612229,23.53708230188444,20
2180.0,66.6,66.47743811710463,63.06265044406341,65.02763874422075,21.449799372883874,23.414787673041218,20
2240.0,66.3,66.68532951154454,63.888837920272465,65.72689584592906,20.958433665615473,22.796491591272073,20
2300.0,65.8,65.6111408076494,63.25775539393834,65.05451452808713,20.55662627956228,22.353385413711067,20
2360.0,65.1,64.85123556729026,62.26892285313396,64.2975281447447,20.553707422545557,22.582312714156302,20
2400.0,64.7,65.54065918396766,62.43411529505876,64.83169678835364,20.708962395614023,23.106543888908902,20
2500.0,64.0,66.23578163464283,63.240437284194215,65.69249933459629,20.543282300046542,22.99534435044862,20
2580.0,63.7,66.20440189738743,63.55048960532156,65.96468502337206,20.23971687401537,22.65391229206587,20
2650.0,64.0,65.19532147725333,63.308656265400586,65.41874403621402,19.776577441039308,21.886665211852744,20
2720.0,65.4,65.44037961367495,62.92428458732111,64.96986841816572,20.470511195509232,22.516095026353838,20
2800.0,66.5,66.74229438994325,63.29985495206759,65.53788253287574,21.204411857067512,23.442439437875663,20
2900.0,67.9,67.58259176885927,64.49242276544179,66.51673999861039,21.065851770248884,23.090169003417486,20
3000.0,68.8,67.28855568390816,64.70212581341994,66.44923111082204,20.839324573086117,22.586429870488217,20
3070.0,69.4,67.10341852570566,63.96298083470752,65.84536810397421,21.258050421731454,23.14043769099814,20
3150.0,69.2,67.62060414013352,63.25812245069886,65.72075594295681,21.89984819717671,24.36248168943466,20
3250.0,68.50000000000001,68.0953548371046,64.20512688223964,66.60191446641547,21.49344037068913,23.890227954864955,20
3350.0,68.4,68.09357750583486,64.78135907475514,67.039026203827,21.05455130200785,23.312218431079714,20
3450.0,68.0,67.33976971283194,63.90521058543794,66.31498944016474,21.0247802726672,23.434559127393996,20
3550.0,67.10000000000001,67.82922549390533,64.04479965007421,66.6917844520061,21.137441041899223,23.784425843831116,20
3650.0,66.09999999999998,68.36134839693311,64.92129544455236,67.31697886242965,21.04436953450346,23.440052952380753,20
3750.0,65.8,67.63361159413311,64.10672616955314,66.36853752555778,21.26507406857533,23.526885424579973,20
3870.0,66.5,67.64569916564203,63.063982421876645,65.65833329500586,21.987365870636168,24.581716743765384,20
4000.0,67.2,68.2426228178769,63.80248653120212,66.40708572620011,21.835537091676798,24.440136286674786,20
4120.0,68.0,67.63824492474458,63.27490624243133,65.80094300527172,21.837301919472864,24.363338682313255,20
