Freq "Ceiling Bounce"
20.5078 75.2747333882623
21.9727 76.78923402782443
23.4375 77.86222958313554
24.9023 78.9392572887132
26.3672 79.93932240912741
27.832 80.83122363602985
29.2969 81.56863084536907
30.7617 82.40795667372412
32.2266 83.14041997374858
33.6914 83.72639342030261
35.1562 84.34986038669126
36.6211 84.8994978166058
38.0859 85.33584218864748
39.5508 85.5597696238128
41.0156 85.78952240912741
42.4805 86.11768875849837
43.9453 86.3875585232979
45.4102 86.5210058105191
46.875 86.6420635149136
48.3398 86.35105792961484
51.2695 86.67547389044624
52.7344 86.73938563862647
54.1992 86.80752138343756
55.6641 87.00783696153346
58.5938 86.84127586444134
60.0586 86.8391696238128
62.9883 86.50496164701902
64.4531 86.375356069741
67.3828 86.55714654597769
68.8477 86.55234788808879
71.7773 86.54527323551896
74.707 86.5361331056903
77.6367 86.3073318326935
79.1016 86.21406869402294
82.0312 86.32700888044532
84.9609 86.33490888044533
87.8906 86.11510236185812
90.8203 86.14899501796869
95.2148 86.06539725754757
98.1445 85.759917962873
101.074 85.76222245443394
105.469 84.93700754572974
108.398 84.8130405525953
112.793 84.52830033407162
117.188 84.38569013914896
120.117 84.69675092197905
124.512 85.15141543955738
128.906 85.04637197829815
133.301 84.95905145511766
139.16 84.8491775593575
143.555 84.70112692543684
147.949 84.49136201191482
153.809 84.22669587868259
159.668 84.11429135654774
165.527 84.06807308169026
171.387 84.03332413073797
177.246 84.16860793439723
183.105 84.31045746511178
188.965 84.09793563313342
196.289 83.71012563551561
203.613 84.1161697404423
210.938 84.15826558913594
218.262 84.19772720121017
225.586 84.1303431225576
232.91 83.98161659168554
241.699 84.28575198259868
250.488 84.368204288428
259.277 84.88580516879328
268.066 85.41471399496287
276.855 85.576730825869
287.109 85.7622615115961
297.363 85.87040435012852
307.617 86.37434291952917
319.336 86.7769980762997
329.59 86.65647242074982
341.309 87.1003360649204
353.027 87.19035684288843
366.211 87.20054774359042
379.395 87.600371898292
392.578 87.32418271917425
405.762 87.10166747323015
420.41 86.97813205187616
435.059 86.62449128786335
451.172 86.46248241222767
465.82 86.41027686072817
483.398 86.53373132429815
499.512 86.64266173347869
517.09 86.43628641029223
536.133 86.62340367411645
555.176 86.55677539549772
574.219 86.55941596547694
594.727 86.20988373965234
615.234 85.82190810663774
637.207 86.35706430907064
659.18 85.3595860495757
682.617 85.83154934719191
707.52 86.03275670839186
732.422 86.30178132555741
757.324 86.6190515150176
785.156 86.23763997902566
811.523 86.10163054352098
840.82 86.5964950958521
870.117 86.49011033776905
900.879 86.37422291799795
933.105 86.50012710931337
965.332 85.86296264268506
1000.49 85.70722331466176
1035.64 86.32325637723525
1072.27 85.863728168183
1108.89 85.62407924571265
1148.44 85.55438781969157
1189.45 85.94154680475707
1230.47 86.0181781504544
1274.41 86.07186215391509
1319.82 85.94736187345761
1366.7 86.32595614895361
1413.57 86.123919247418
1463.38 86.44650578583442
1516.11 86.58817673709245
1568.85 86.63780876576642
1624.51 86.44163658669981
1681.64 86.50002371676347
1741.7 85.98447691978251
1803.22 86.01994283193181
1866.21 85.99763507134611
1932.13 86.15669591224056
1999.51 86.06906072670313
2069.82 84.58288313704684
2143.07 83.75501933466754
2219.24 83.22035695773194
2296.88 82.71123254839257
2378.91 81.29428699920116
2462.4 78.64861963505011
2548.83 76.47117491195056
2639.65 74.4742424847973
2731.93 72.75429038857241
2828.61 75.59912232396637
2928.22 79.61928298135815
3030.76 81.76542421203472
3137.7 83.91173225639612
3249.02 85.24471122849211
3363.28 83.73343642530848
3481.93 83.86101344635624
3604.98 83.20586256726914
3732.42 82.99011667827217
3864.26 80.95847818773383
4000.49 80.08488489941597
4141.11 81.19299279442818
4287.6 79.24406918369715
4438.48 80.84810549374596
4595.21 80.50485911966358
4756.35 80.59316170730881
4924.8 82.57954600517276
5097.66 81.71218746123326
5277.83 82.09950468585056
5463.87 82.87372310408797
5657.23 82.4472610481656
5856.45 82.63241436856521
6062.99 82.1273712791947
6276.86 82.44103652448732
6498.05 82.85547520577954
6726.56 82.607922806192
6963.87 83.09856554354339
7209.96 82.2046157537916
7464.84 82.33350861200657
7727.05 81.72882309105923
7999.51 82.17600185422512
8282.23 81.97933168430797
8573.73 82.08310974071448
8876.95 82.16397069118688
9188.96 82.90559240029971
9514.16 83.69471421378235
9849.61 84.84177642695172
10196.8 85.84149606526935
10555.7 86.81280937129078
10927.7 87.08231136579768
11313.0 86.79283076732112
11712.9 85.50673608987798
12126.0 83.87602621771742
12553.7 83.74080434373435
12996.1 84.53538466322944
13454.6 85.02943256763929
13929.2 84.16102241265496
14419.9 82.75397853552434
14928.2 81.43863349929377
15455.6 80.83907650450921
16000.5 80.5506390912041
16564.5 80.37455025844046
17148.9 79.95208272677182
17752.4 78.1245009962701
18379.4 76.00930482694598
19026.9 75.97800117074944
19697.8 77.63311303016224
19999.5 78.57572744772895
