Freq "Rear Wall Bounce"
20.5078 65.94080858686411
21.9727 67.45630664851241
23.4375 68.52415613984337
24.9023 69.59560718536554
26.3672 70.59306117481032
27.832 71.48757171989685
29.2969 72.2265070795118
30.7617 73.06045609084397
32.2266 73.78896115926483
33.6914 74.3822051824909
35.1562 75.00450769118486
36.6211 75.55720704742033
38.0859 76.00130595895358
39.5508 76.22175524678133
41.0156 76.43596177344756
42.4805 76.76295499723385
43.9453 77.03277207153907
45.4102 77.1436549828039
46.875 77.20168336501519
48.3398 76.95216074087631
51.2695 77.34335726160201
52.7344 77.41551002031669
54.1992 77.4838194989089
55.6641 77.66721904698916
58.5938 77.50485496897912
60.0586 77.49472630859722
62.9883 77.17514327008561
64.4531 77.04215513012016
67.3828 77.2253517552578
68.8477 77.21642558053331
71.7773 77.19988426349059
74.707 77.18640551580127
77.6367 76.96206212224149
79.1016 76.87250848498057
82.0312 76.98481049763487
84.9609 76.99096989867321
87.8906 76.75815501459681
90.8203 76.78075501415712
95.2148 76.72755786740485
98.1445 76.45465578633797
101.074 76.37434307110806
105.469 75.56104626082981
108.398 75.4818664827684
112.793 75.305989920419
117.188 75.38266153626459
120.117 75.65300524205969
124.512 75.82633477567957
128.906 75.69048407028468
133.301 75.59585501599408
139.16 75.4851545399182
143.555 75.34325645667616
147.949 75.22124945146741
153.809 74.92772977641437
159.668 74.77740678617145
165.527 74.7739640536038
171.387 74.71293342090848
177.246 74.86051087302675
183.105 74.97811223620634
188.965 74.75151282664703
196.289 74.48038337747721
203.613 74.95310007459545
210.938 74.96061226079885
218.262 74.97335616289418
225.586 74.85172088261311
232.91 74.7916940346334
241.699 74.95937218705812
250.488 74.97136491286132
259.277 75.52455484005434
268.066 76.05020333880195
276.855 76.03570467049286
287.109 76.19791805316503
297.363 76.23450473071087
307.617 76.50046214444242
319.336 76.75938414341488
329.59 76.84583909277077
341.309 77.17313681032569
353.027 77.35749739779877
366.211 77.33814221362444
379.395 77.27649320104895
392.578 77.16811374786101
405.762 77.23011750458106
420.41 77.00600066806666
435.059 76.85428501634838
451.172 77.10279698854478
465.82 77.06045028282529
483.398 76.87706028021026
499.512 76.79398484919176
517.09 76.92480763049306
536.133 76.84657392753647
555.176 76.7566363924836
574.219 76.85582558713281
594.727 76.8761173226151
615.234 76.66016813911179
637.207 76.61367103612949
659.18 76.43736155098122
682.617 76.14229143127125
707.52 76.05153168618465
732.422 75.91275497753918
757.324 75.58882171503225
785.156 75.22952835504448
811.523 75.68783360443247
840.82 75.69586028665594
870.117 75.63720765862787
900.879 74.89326334179727
933.105 74.59934667792744
965.332 73.85494714024335
1000.49 73.63029956394973
1035.64 73.05591515878484
1072.27 72.30537248468583
1108.89 71.87114836337543
1148.44 72.4205895208279
1189.45 72.9834125166909
1230.47 73.19263078035661
1274.41 73.2517509830888
1319.82 73.67240239784867
1366.7 74.06279996181462
1413.57 73.68730367839792
1463.38 73.65921806647015
1516.11 73.10156468991482
1568.85 72.32730730472531
1624.51 72.10698315531364
1681.64 72.64957321863298
1741.7 72.82818132104973
1803.22 71.78509828323627
1866.21 70.5568263145119
1932.13 70.57516172876745
1999.51 70.87775374332921
2069.82 70.81991108930912
2143.07 71.21921225024875
2219.24 70.4984782776895
2296.88 70.42560217937847
2378.91 70.23511754346579
2462.4 70.8315762936653
2548.83 71.18561139187014
2639.65 70.674977838228
2731.93 69.94655255732154
2828.61 69.78680269198068
2928.22 70.38105869813342
3030.76 71.44774018928643
3137.7 71.87372551362428
3249.02 72.06816426315076
3363.28 73.10022382021093
3481.93 73.0611805601084
3604.98 72.48013199372531
3732.42 71.59875065639329
3864.26 69.15115296825091
4000.49 65.85333286588668
4141.11 63.719195025191894
4287.6 64.30264358500044
4438.48 67.89933542308796
4595.21 68.1048131162824
4756.35 68.87644103848663
4924.8 64.80829067915202
5097.66 62.344825419216676
5277.83 55.74727534848654
5463.87 63.38328886551061
5657.23 63.19190520472313
5856.45 60.66429736912727
6062.99 59.30904711101556
6276.86 66.38597766923674
6498.05 66.64091866906537
6726.56 65.22642719837174
6963.87 63.10732818685649
7209.96 61.69202563759376
7464.84 63.911959468803715
7727.05 60.21122740891829
7999.51 57.400422761684496
8282.23 56.439991357149154
8573.73 59.69985136205261
8876.95 61.49423822905973
9188.96 60.518105495128765
9514.16 58.79805121734435
9849.61 56.1723483014832
10196.8 59.8576455043636
10555.7 61.877649941684325
10927.7 62.77462470027419
11313.0 60.89466870651066
11712.9 59.04755091533468
12126.0 61.57092038857783
12553.7 62.275142414222756
12996.1 60.62051052833502
13454.6 56.84376360804097
13929.2 57.98274726161486
14419.9 59.34354235846229
14928.2 59.288053903225745
15455.6 61.70868947339912
16000.5 62.38881554723014
16564.5 60.82460531115376
17148.9 57.43883517377989
17752.4 54.84638549542035
18379.4 55.32740309470671
19026.9 54.380088198393594
19697.8 51.321916741920376
19999.5 47.61861161121425
