Freq "Total Early Reflection"
20.5078 74.83730024980272
21.9727 76.35201242593695
23.4375 77.4213172727587
24.9023 78.4927149198785
26.3672 79.49048660797459
27.832 80.3839071939986
29.2969 81.12595038454614
30.7617 81.9588187230008
32.2266 82.68796564531632
33.6914 83.2807995084525
35.1562 83.90393853282282
36.6211 84.45728880186643
38.0859 84.90196691994652
39.5508 85.12127758512156
41.0156 85.33709972202467
42.4805 85.66483830289329
43.9453 85.9364960370883
45.4102 86.05000111889485
46.875 86.12238308244025
48.3398 85.87159252102073
51.2695 86.2456747836404
52.7344 86.31731242463005
54.1992 86.38651945104365
55.6641 86.57237014526606
58.5938 86.40930413434151
60.0586 86.39881694064306
62.9883 86.07748374866894
64.4531 85.94534888821585
67.3828 86.12819492455826
68.8477 86.12294473608642
71.7773 86.10666363985916
74.707 86.09278306886114
77.6367 85.86603901751346
79.1016 85.77688113291705
82.0312 85.89390527141738
84.9609 85.90075206402628
87.8906 85.67270802784913
90.8203 85.70050326256919
95.2148 85.62760065661719
98.1445 85.3349609834992
101.074 85.26993754879732
105.469 84.45611385342312
108.398 84.38507086504234
112.793 84.21456503354204
117.188 84.29376453092911
120.117 84.55825463562967
124.512 84.77773742217803
128.906 84.64461206782025
133.301 84.54704550424508
139.16 84.44010726747749
143.555 84.31584430919682
147.949 84.12600935033231
153.809 83.82034357475275
159.668 83.70482638438224
165.527 83.70404748641911
171.387 83.67158627993706
177.246 83.82680918359321
183.105 83.94165159266554
188.965 83.71053844093133
196.289 83.43888688647631
203.613 83.94516960854524
210.938 83.93578388967552
218.262 83.917389459843
225.586 83.81727614139393
232.91 83.78207147467761
241.699 84.03762347978152
250.488 84.0466614035812
259.277 84.67257778769158
268.066 85.2224066713399
276.855 85.20413214173294
287.109 85.34933625298571
297.363 85.39260637680881
307.617 85.65209036349627
319.336 85.90992956815077
329.59 85.99052086219535
341.309 86.44548498157077
353.027 86.59348104557118
366.211 86.51285119191404
379.395 86.57332829338716
392.578 86.44962615755492
405.762 86.31493673257998
420.41 86.19093540625578
435.059 85.99533526006203
451.172 85.98644544175589
465.82 85.82652274514527
483.398 85.85908520928866
499.512 86.04489921581222
517.09 85.96829386636038
536.133 86.01660336032285
555.176 85.92675863961607
574.219 86.15360680931954
594.727 86.32165882904614
615.234 85.94548441803389
637.207 85.95342646427841
659.18 85.49057184449175
682.617 85.59227545937388
707.52 85.46910545315464
732.422 85.41977362970417
757.324 85.40700326968609
785.156 85.17931880060283
811.523 85.05437030379416
840.82 85.17804000504283
870.117 85.02074667796919
900.879 85.06076547071045
933.105 84.72551263247064
965.332 84.32508403343552
1000.49 83.87366314546558
1035.64 84.0786285177478
1072.27 83.43217805234076
1108.89 83.19918903357579
1148.44 82.9560295061214
1189.45 83.24549596689066
1230.47 83.43578993473521
1274.41 83.37914837579925
1319.82 83.54459125536331
1366.7 83.98461331747446
1413.57 83.9814701511401
1463.38 84.23432734989112
1516.11 84.05448801894165
1568.85 83.62439122207175
1624.51 83.6772273203686
1681.64 83.68800842076857
1741.7 84.00932492680977
1803.22 84.07356166755532
1866.21 83.7347893068191
1932.13 83.54957983560072
1999.51 83.6007193519665
2069.82 83.20003449197542
2143.07 82.85799585065865
2219.24 82.37338683664478
2296.88 81.6385556567341
2378.91 80.7902777647081
2462.4 80.79104164622586
2548.83 80.93099818187088
2639.65 80.62595690273858
2731.93 79.94037063507378
2828.61 80.59448667660959
2928.22 82.48741527513135
3030.76 83.91712057289806
3137.7 84.84849925502094
3249.02 85.18259437028915
3363.28 85.015044534971
3481.93 84.92959220748781
3604.98 84.84414825031956
3732.42 84.9853138718392
3864.26 84.53564663168487
4000.49 83.73146096288889
4141.11 83.9693554646647
4287.6 83.87856982490476
4438.48 83.8385790158179
4595.21 83.5108479664078
4756.35 83.5359688517539
4924.8 83.41168218551522
5097.66 83.6937112150238
5277.83 83.70720780176391
5463.87 84.53210261523287
5657.23 84.28541730223048
5856.45 84.18798027934436
6062.99 84.20081869718945
6276.86 84.31669225846353
6498.05 84.30522005587467
6726.56 84.61438898418326
6963.87 84.0242328047465
7209.96 83.78541097022675
7464.84 83.8537090101627
7727.05 83.5695828594528
7999.51 83.9476962039778
8282.23 83.90731614204995
8573.73 84.07661000452869
8876.95 84.03505604439158
9188.96 84.45695438803013
9514.16 84.37195658118992
9849.61 84.49392381321222
10196.8 84.2526932727028
10555.7 84.01378110652811
10927.7 83.54769556034043
11313.0 82.6124027298059
11712.9 81.35917959769107
12126.0 80.17285483933917
12553.7 79.87372397630278
12996.1 79.99044851218234
13454.6 79.69850663329242
13929.2 78.6533964523219
14419.9 77.70908099682507
14928.2 76.59893633355101
15455.6 75.45254199262854
16000.5 74.66911825736621
16564.5 74.32427848581733
17148.9 73.84914691554226
17752.4 72.21355908262674
18379.4 70.45819685391179
19026.9 70.38523419036929
19697.8 71.62716625355031
19999.5 72.38867832617713
