Freq,On Axis,Listening Window,Sound Power,Early Reflections,Early Reflections DI,Sound Power DI,DI offset
22.4,38.4493670886076,38.42837164047435,37.59721877721094,38.05460780065741,30.373763839816945,30.831152863263412,30
23.0,39.64936708860759,39.62837164047437,38.78691329531259,39.23936862668927,30.3890030137851,30.841458345161783,30
23.6,40.84936708860758,40.805717689863684,39.9778380715301,40.43436909395567,30.371348595908017,30.827879618333583,30
24.0,42.049367088607596,41.97281310222925,41.145783121373654,41.6062329139674,30.36658018826185,30.8270299808556,30
25.0,43.14936708860759,43.12837164047434,42.29520056221634,42.75091761316784,30.3774540273065,30.833171078258005,30
25.8,44.34936708860758,44.283724409943176,43.46102603729631,43.92149082327725,30.362233586665923,30.82269837264687,30
26.5,45.549367088607596,45.46161918583596,44.6516717630972,45.10686678302787,30.35475240280809,30.80994742273876,30
27.2,46.64936708860759,46.62837164047437,45.803911161031095,46.25843782734367,30.3699338131307,30.824460479443275,30
28.0,47.84936708860758,47.783724409943176,46.97331844498481,47.42627804110069,30.35744636884249,30.810405964958363,30
29.0,48.9493670886076,48.92837164047438,48.11070544373078,48.5602787708672,30.36809286960718,30.817666196743602,30
30.0,50.049367088607596,50.028371640474376,49.186913295312564,49.639368626689276,30.3890030137851,30.84145834516181,30
30.7,51.049367088607596,51.028371640474376,50.20198746780565,50.65751222340438,30.370859417069994,30.826384172668725,30
31.5,52.049367088607596,51.97281310222925,51.1636080765289,51.620528383446015,30.35228471878324,30.80920502570035,30
32.5,52.84936708860758,52.82837164047433,52.01884128889591,52.46394817672589,30.364423463748437,30.809530351578417,30
33.5,53.64936708860759,53.62837164047437,52.79838702347706,53.254607800657425,30.373763839816945,30.829984616997308,30
34.5,54.34936708860759,54.32837164047436,53.495200562216354,53.95091761316786,30.3774540273065,30.833171078258005,30
35.5,55.049367088607596,54.98372440994319,54.17005694077443,54.62538752983437,30.358336880108823,30.813667469168763,30
36.5,55.64936708860759,55.628371640474356,54.78691329531257,55.2393686266893,30.389003013785057,30.841458345161783,30
37.5,56.249367088607585,56.228371640474364,55.38691329531258,55.83936862668929,30.38900301378507,30.841458345161783,30
38.7,56.84936708860759,56.783724409943176,55.97005694077443,56.42538752983435,30.358336880108823,30.81366746916875,30
40.0,57.44936708860757,57.372813102229244,56.54535472491622,57.00623291396738,30.366580188261864,30.82745837731302,30
41.2,58.049367088607596,57.96161918583597,57.13433392732334,57.58667610088227,30.3749430849537,30.82728525851263,30
42.5,58.64936708860759,58.56161918583595,57.73433392732335,58.186676100882266,30.374943084953685,30.827285258512603,30
43.7,59.249367088607585,59.17281310222924,58.34535472491622,58.80623291396738,30.366580188261864,30.82745837731302,30
45.0,59.84936708860761,59.78372440994319,58.97005694077443,59.42538752983437,30.358336880108823,30.813667469168763,30
46.2,60.44936708860759,60.42837164047435,59.61744331049623,60.063065357016995,30.365306283457357,30.810928329978125,30
47.5,61.14936708860759,61.10571768986368,60.28673948029305,60.74301918482598,30.3626985050377,30.81897820957063,30
48.7,61.84936708860759,61.82837164047436,60.98691329531256,61.43936862668929,30.38900301378507,30.841458345161797,30
50.0,62.64936708860759,62.5503963426099,61.717571926136344,62.17017120975858,30.380225132851322,30.832824416473557,30
51.5,63.34936708860759,63.28372440994319,62.47031306877919,62.92640768894469,30.357316720998497,30.813411341164,30
53.0,64.14936708860759,64.06161918583597,63.25167176309719,63.70686678302788,30.35475240280809,30.809947422738773,30
54.5,64.84936708860761,64.82837164047437,64.00198746780563,64.45751222340436,30.370859417070008,30.82638417266874,30
56.0,65.64936708860759,65.58372440994319,64.77005694077442,65.22538752983435,30.358336880108837,30.813667469168763,30
58.0,66.44936708860759,66.3503963426099,65.51903573478194,65.97017120975858,30.380225132851322,30.83136060782796,30
60.0,67.0493670886076,67.02837164047436,66.22098579503921,66.66306535701699,30.36530628345737,30.80738584543515,30
61.5,67.74936708860758,67.6946083725417,66.88214065139915,67.33126026533617,30.363348107205525,30.81246772114254,30
63.0,68.3493670886076,68.28372440994319,67.47031306877919,67.92640768894469,30.357316720998497,30.813411341164,30
65.0,68.84936708860758,68.82837164047436,68.00198746780563,68.45751222340434,30.370859417070022,30.826384172668725,30
67.0,69.3493670886076,69.29460837254169,68.47791381339839,68.93126026533615,30.36334810720554,30.8166945591433,30
69.0,69.84936708860761,69.75039634260989,68.91879550722038,69.37017120975858,30.380225132851308,30.83160083538951,30
71.0,70.24936708860758,70.17281310222926,69.33803488052858,69.79694460158987,30.375868500639385,30.834778221700674,30
73.0,70.64936708860759,70.58372440994319,69.76065537831984,70.22357398532145,30.360150424621736,30.823069031623348,30
75.0,71.0493670886076,71.02837164047436,70.19124130797906,70.64596013692241,30.38241150355195,30.837130332495306,30
77.5,71.5493670886076,71.50571768986367,70.67899960266098,71.13436909395566,30.371348595908017,30.826718087202693,30
80.0,72.0493670886076,72.02837164047436,71.20198746780564,71.65751222340435,30.370859417070008,30.826384172668725,30
82.5,72.64936708860759,72.62837164047437,71.80121729077663,72.25549234109079,30.372879299383584,30.827154349697736,30
85.0,73.3493670886076,73.28372440994319,72.46730222977027,72.91783140737274,30.365893002570445,30.81642218017292,30
87.5,74.0493670886076,73.93965146947535,73.13816569749547,73.58411350029402,30.355537969181327,30.801485771979884,30
90.0,74.64936708860759,74.62837164047436,73.80988127547579,74.26101014267391,30.367361497800445,30.818490364998567,30
92.5,75.24936708860758,75.22837164047436,74.44450100144734,74.8848245330631,30.34354710741127,30.78387063902703,30
95.0,75.8493670886076,75.82837164047437,75.03093667263603,75.47916810820871,30.349203532265662,30.797434967838342,30
97.5,76.34936708860758,76.32837164047436,75.52297923408372,75.97552363218966,30.352848008284695,30.805392406390638,30
100.0,76.8493670886076,76.7503963426099,75.91910922321645,76.37017120975858,30.380225132851322,30.83128711939345,30
103.0,77.0493670886076,77.02837164047436,76.17968849340878,76.64225483043707,30.386116810037294,30.848683147065586,30
106.0,77.24936708860758,77.18372440994318,76.33467152017245,76.80704842639551,30.37667598354767,30.849052889770732,30
109.0,77.34936708860761,77.27281310222925,76.40814095601681,76.8877827571815,30.385030345047753,30.864672146212442,30
112.0,77.34936708860761,77.32760015369146,76.42378896132209,76.91780841181432,30.409791741877143,30.903811192369375,30
115.0,77.34936708860761,77.2946083725417,76.3793171611426,76.8809387178195,30.4136696547222,30.915291211399108,30
118.0,77.34936708860761,77.28372440994319,76.31626282238756,76.83576907279391,30.44795533714928,30.967461587555633,30
122.0,77.24936708860758,77.21679866187932,76.25207428648909,76.76908928410109,30.44770937777824,30.964724375390233,30
125.0,77.24936708860758,77.19486156780638,76.20765177609051,76.74035645095748,30.454505116848907,30.98720979171587,30
128.0,77.24936708860758,77.20571768986368,76.20060346433608,76.73738497489597,30.4683327149677,31.005114225527592,30
132.0,77.34936708860761,77.28372440994319,76.23486080748087,76.77614842048862,30.507575989454566,31.04886360246232,30
136.0,77.44936708860757,77.37281310222924,76.28546521470118,76.83993747895926,30.532875623269987,31.087347887528068,30
140.0,77.5493670886076,77.47306177906471,76.37511122748407,76.93000947635335,30.54305230271136,31.097950551580638,30
145.0,77.64936708860759,77.58372440994319,76.46826132007149,77.04175720415115,30.541967205792034,31.115463089871696,30
150.0,77.8493670886076,77.75140775354191,76.56860916336048,77.16789881836739,30.58350893517452,31.182798590181434,30
155.0,78.0493670886076,77.89512064546619,76.68028482199975,77.29411541253604,30.60100523293015,31.214835823466444,30
160.0,78.14936708860759,78.06237290526168,76.77608320979212,77.41509135300856,30.64728155225312,31.286289695469563,30
165.0,78.3493670886076,78.2514077535419,76.86718444536487,77.55436769448642,30.69704005905548,31.384223308177027,30
170.0,78.5493670886076,78.38448599174824,76.93377297322937,77.65880606009188,30.72567993165636,31.45071301851887,30
175.0,78.64936708860759,78.5623729052617,76.98939774207776,77.76776479097515,30.794608114286547,31.57297516318394,30
180.0,78.84936708860758,78.69588023161378,77.02014409608829,77.86041107008988,30.835469161523903,31.675736135525497,30
185.0,78.94936708860759,78.81806403990196,77.01241083308891,77.90946228715298,30.90860175274898,31.805653206813048,30
190.0,79.0493670886076,78.91806403990195,76.97837124452418,77.93639897312066,30.98166506678129,31.939692795377766,30
195.0,79.0493670886076,78.94064787552088,76.90671157224547,77.91191041009887,31.02873746542201,32.03393630327541,30
200.0,79.14936708860759,78.9521575593742,76.80572344805242,77.88208802699221,31.070069532381993,32.14643411132178,30
206.0,79.0493670886076,78.92937063752771,76.6467690179568,77.78383322441333,31.145537413114383,32.28260161957091,30
212.0,79.0493670886076,78.88599142666465,76.4744658784444,77.66345514152184,31.22253628514281,32.41152554822024,30
218.0,78.94936708860759,78.77483146946045,76.275820336939,77.52088142013925,31.253950049321205,32.499011132521446,30
224.0,78.84936708860758,78.67483146946046,76.08070997984896,77.36118545338414,31.31364601607632,32.594121489611496,30
230.0,78.74936708860758,78.5633817985483,75.86170929809462,77.17906799513443,31.384313803413875,32.70167250045368,30
236.0,78.64936708860759,78.44192409842435,75.65528006286203,77.02619626969565,31.415727828728706,32.78664403556232,30
240.0,78.5493670886076,78.35369805833241,75.4594289263999,76.87333711139624,31.480360946936173,32.89426913193252,30
250.0,78.4493670886076,78.28702990051124,75.2955512557417,76.7392388422633,31.547791058247938,32.99147864476954,30
258.0,78.4493670886076,78.2536980583324,75.14990234585572,76.65408493722163,31.599613121110778,33.10379571247668,30
265.0,78.3493670886076,78.19895342069016,75.01460598209034,76.56767000896706,31.631283411723103,33.184347438599815,30
272.0,78.3493670886076,78.17661820918917,74.89997643608322,76.51704513381152,31.65957307537765,33.27664177310595,30
280.0,78.3493670886076,78.17661820918917,74.80859304320259,76.47286540546844,31.703752803720732,33.36802516598658,30
290.0,78.3493670886076,78.17661820918917,74.71146887631532,76.42632102585073,31.750297183338446,33.46514933287385,30
300.0,78.3493670886076,78.14271095454463,74.62770103788675,76.38542928332389,31.75728167122074,33.515009916657874,30
307.0,78.24936708860758,78.08702990051124,74.52994575402577,76.32015935380193,31.766870546709313,33.557084146485465,30
315.0,78.24936708860758,78.02164259093259,74.4304339436517,76.24431491160071,31.777327679331876,33.59120864728088,30
325.0,78.0493670886076,77.91005164305507,74.31810383907663,76.13982152526995,31.77023011778512,33.59194780397844,30
335.0,77.94936708860759,77.7321867565662,74.19374495878043,76.02194843017631,31.710238326389884,33.538441797785765,30
345.0,77.74936708860758,77.5656660601746,74.05027549638433,75.87004978204327,31.69561627813134,33.51539056379028,30
355.0,77.44936708860757,77.29993108270591,73.86323135334217,75.66434593756601,31.6355851451399,33.43669972936374,30
365.0,77.24936708860758,77.03367653916925,73.64463800867189,75.42923925458068,31.60443728458857,33.38903853049736,30
375.0,76.8493670886076,76.7115490368505,73.36909329329379,75.1448230139811,31.566726022869403,33.34245574355671,30
387.0,76.5493670886076,76.37937088556772,73.05423869981361,74.82428930428759,31.555081581280135,33.325132185754114,30
400.0,76.14936708860759,76.0016625243083,72.66010717236915,74.44190373829228,31.55975878601602,33.34155535193915,30
412.0,75.8493670886076,75.58041699850222,72.18585177632006,73.99140476436337,31.58901223413885,33.39456522218215,30
425.0,75.44936708860759,75.2016801922203,71.70787000069538,73.55947897018386,31.642201222036434,33.493810191524915,30
437.0,75.0493670886076,74.80243863206152,71.2050796095041,73.12203875749077,31.680399874570753,33.59735902255743,30
450.0,74.74936708860758,74.48235915017078,70.75464335865786,72.74223318520876,31.74012596496202,33.72771579151292,30
462.0,74.5493670886076,74.26097820809338,70.39373968792336,72.44780238143838,31.813175826654998,33.86723852017002,30
475.0,74.44936708860759,74.15097576708439,70.15931983182803,72.31245211996321,31.83852364712118,33.99165593525636,30
487.0,74.5493670886076,74.19782693911438,70.08020286479625,72.33092959184567,31.866897347268704,34.11762407431813,30
500.0,74.84936708860761,74.43320399209078,70.20103191758275,72.55143047361818,31.8817735184726,34.23217207450803,30
515.0,75.24936708860758,74.89305400086616,70.54191847271078,72.99414114388239,31.89891285698377,34.35113552815538,30
530.0,75.8493670886076,75.49525291346689,71.06528974508652,73.61683824445596,31.878414669010922,34.42996316838037,30
545.0,76.5493670886076,76.18634787366804,71.71728522016963,74.36021030853266,31.826137565135383,34.46906265349841,30
560.0,77.24936708860758,76.91088047997386,72.41332681450335,75.12549263346509,31.78538784650877,34.497553665470505,30
580.0,77.8493670886076,77.57692710780935,73.105672425851,75.87721653561033,31.699710572199024,34.47125468195836,30
600.0,78.4493670886076,78.1657552758547,73.7381779060652,76.5420690391933,31.623686236661413,34.4275773697895,30
615.0,78.84936708860758,78.61923306594238,74.21589778465837,77.0300730754798,31.589159990462576,34.403335281284015,30
630.0,79.0493670886076,78.83002851227549,74.49880918718746,77.29622302421353,31.533805488061958,34.33121932508803,30
650.0,79.0493670886076,78.81495053412064,74.52445230829262,77.27290820933499,31.542042324785655,34.29049822582802,30
670.0,78.84936708860758,78.54714421762174,74.34505338947028,77.03355153071666,31.51359268690507,34.202090828151455,30
690.0,78.4493670886076,78.14098355273443,73.99590528560047,76.60285502649702,31.5381285262374,34.145078267133954,30
710.0,77.94936708860759,77.63744447452214,73.569371904979,76.08623932426345,31.551205150258696,34.06807256954315,30
730.0,77.44936708860757,77.10204108624967,73.07464894036471,75.52211312319739,31.579927963052285,34.02739214588496,30
750.0,76.94936708860759,76.58366021066384,72.56251206877832,74.94703069923472,31.63662951142912,34.02114814188552,30
775.0,76.44936708860759,76.12634967107806,72.0654734336476,74.3857858029137,31.740563868164358,34.06087623743046,30
800.0,76.24936708860758,75.83877662308731,71.59613576604305,73.87709213769402,31.96168448539329,34.242640857044265,30
825.0,76.14936708860759,75.71346651156792,71.22686048036228,73.50223570649796,32.21123080506996,34.48660603120564,30
850.0,76.14936708860759,75.72887708592644,70.9541483967729,73.25137073466043,32.477506351266015,34.77472868915355,30
875.0,76.34936708860758,75.8873164559494,70.76201032689266,73.11783701780075,32.76947943814865,35.12530612905674,30
900.0,76.64936708860759,76.1483667954704,70.69147602654434,73.1493887786412,32.9989780168292,35.45689076892606,30
925.0,77.0493670886076,76.48022427654206,70.69582916647211,73.26894328135222,33.21128099518984,35.78439511006995,30
950.0,77.44936708860757,76.80065456978637,70.73739444800195,73.41375997869577,33.38689459109061,36.063260121784424,30
975.0,77.8493670886076,77.17307026189991,70.8334552089558,73.62549337314445,33.54757688875546,36.33961505294411,30
1000.0,78.14936708860759,77.48228685037517,70.90070084607906,73.80092048140446,33.681366368970714,36.58158600429611,30
1030.0,78.4493670886076,77.75125906965317,70.92082501061813,73.9061224337422,33.845136635910976,36.83043405903504,30
1060.0,78.64936708860759,77.91201411065238,70.85697693194432,73.91563219867014,33.99638191198224,37.05503717870806,30
1090.0,78.84936708860758,78.02491310730635,70.76182933395992,73.89298675229142,34.131926355014926,37.26308377334642,30
1120.0,78.94936708860759,78.07662272732927,70.6247138336267,73.8232530624564,34.253369664872864,37.451908893702566,30
1150.0,78.94936708860759,78.0821146983966,70.47602426520228,73.72940395264658,34.35271074575002,37.60609043319431,30
1180.0,78.94936708860759,78.02171577317266,70.28548683101636,73.58865768726686,34.4330580859058,37.7362289421563,30
1220.0,78.84936708860758,77.92777012251499,70.10021353620434,73.43881411720919,34.488956005305795,37.82755658631065,30
1250.0,78.74936708860758,77.7945474534126,69.8967912511402,73.28009600905672,34.514451444355885,37.897756202272404,30
1280.0,78.5493670886076,77.59577320832207,69.69845685655397,73.11250996422874,34.48326324409334,37.8973163517681,30
1320.0,78.3493670886076,77.39152846730907,69.49550869309438,72.94108198632775,34.45044648098133,37.89601977421469,30
1360.0,78.14936708860759,77.15931474506223,69.30554390278371,72.78233941111499,34.37697533394724,37.85377084227852,30
1400.0,77.8493670886076,76.90250233949135,69.11049366635069,72.60879992243495,34.293702417056394,37.79200867314066,30
1450.0,77.64936708860759,76.65659726918611,68.91986160589983,72.45085662208058,34.20574064710553,37.73673566328628,30
1500.0,77.34936708860761,76.41857164044032,68.70510206294851,72.27122033047557,34.14735130996475,37.71346957749181,30
1550.0,77.14936708860759,76.17273003445146,68.49033905235301,72.08793316014325,34.08479687430821,37.682390982098454,30
1600.0,76.8493670886076,75.9269014297806,68.24492235624714,71.8762679159915,34.050633513789094,37.681979073533455,30
1650.0,76.74936708860758,75.72870726001929,67.99932378316944,71.69922836078769,34.029478899231606,37.72938347684985,30
1700.0,76.64936708860759,75.54384198277695,67.74479548364191,71.50868205193726,34.0351599308397,37.799046499135045,30
1750.0,76.5493670886076,75.35847134825012,67.50437772538578,71.33437481114126,34.02409653710886,37.85409362286434,30
1800.0,76.44936708860759,75.22034712003244,67.30386281706903,71.20160368651139,34.01874343352105,37.91648430296341,30
1850.0,76.34936708860758,75.06740565120096,67.13138874115641,71.09296607609855,33.97443957510241,37.93601691004454,30
1900.0,76.24936708860758,74.90647600973617,66.96866152720338,70.99488397923571,33.91159203050046,37.93781448253279,30
1950.0,76.14936708860759,74.78124242007688,66.87931223862384,70.96113429876736,33.82010812130952,37.90193018145304,30
2000.0,75.9493670886076,74.63366216074498,66.78838067090544,70.89381450029126,33.73984766045372,37.845281489839536,30
2060.0,75.8493670886076,74.49749744694938,66.71610315574469,70.83380073905904,33.66369670789034,37.78139429120469,30
2120.0,75.64936708860759,74.3793891159925,66.66858324896104,70.74671403101125,33.632675084981244,37.71080586703145,30
2180.0,75.44936708860759,74.22248006727698,66.61169914540798,70.6225000309392,33.59998003633778,37.610780921868994,30
2240.0,75.24936708860758,74.11855292591657,66.58026454460773,70.50481591168406,33.61373701423251,37.538288381308845,30
2300.0,75.0493670886076,74.05788659377365,66.56679941277919,70.40820536426105,33.649681229512595,37.491087180994455,30
2360.0,74.94936708860757,73.98897946100432,66.54584117825283,70.28871226258116,33.70026719842316,37.44313828275149,30
2400.0,74.84936708860761,73.96761413478481,66.51358398076741,70.19334241627206,33.77427171851275,37.4540301540174,30
2500.0,74.84936708860761,73.98858983635276,66.48094613991515,70.14679938541838,33.84179045093438,37.50764369643761,30
2580.0,74.84936708860761,74.04460824456443,66.4359148417987,70.12281081482477,33.921797429739655,37.608693402765724,30
2650.0,74.94936708860757,74.14033342134778,66.38745260110537,70.12271374236715,34.01761967898062,37.75288082024241,30
2720.0,75.14936708860759,74.279324374842,66.33783915024384,70.15013670678593,34.129187668056076,37.94148522459817,30
2800.0,75.3493670886076,74.43333912377909,66.32284922909557,70.22213442664204,34.21120469713705,38.110489894683525,30
