Freq "Listening Window"
22.4 38.42837164047435
23.0 39.62837164047437
23.6 40.805717689863684
24.0 41.97281310222925
25.0 43.12837164047434
25.8 44.283724409943176
26.5 45.46161918583596
27.2 46.62837164047437
28.0 47.783724409943176
29.0 48.92837164047438
30.0 50.028371640474376
30.7 51.028371640474376
31.5 51.97281310222925
32.5 52.82837164047433
33.5 53.62837164047437
34.5 54.32837164047436
35.5 54.98372440994319
36.5 55.628371640474356
37.5 56.228371640474364
38.7 56.783724409943176
40.0 57.372813102229244
41.2 57.96161918583597
42.5 58.56161918583595
43.7 59.17281310222924
45.0 59.78372440994319
46.2 60.42837164047435
47.5 61.10571768986368
48.7 61.82837164047436
50.0 62.5503963426099
51.5 63.28372440994319
53.0 64.06161918583597
54.5 64.82837164047437
56.0 65.58372440994319
58.0 66.3503963426099
60.0 67.02837164047436
61.5 67.6946083725417
63.0 68.28372440994319
65.0 68.82837164047436
67.0 69.29460837254169
69.0 69.75039634260989
71.0 70.17281310222926
73.0 70.58372440994319
75.0 71.02837164047436
77.5 71.50571768986367
80.0 72.02837164047436
82.5 72.62837164047437
85.0 73.28372440994319
87.5 73.93965146947535
90.0 74.62837164047436
92.5 75.22837164047436
95.0 75.82837164047437
97.5 76.32837164047436
100.0 76.7503963426099
103.0 77.02837164047436
106.0 77.18372440994318
109.0 77.27281310222925
112.0 77.32760015369146
115.0 77.2946083725417
118.0 77.28372440994319
122.0 77.21679866187932
125.0 77.19486156780638
128.0 77.20571768986368
132.0 77.28372440994319
136.0 77.37281310222924
140.0 77.47306177906471
145.0 77.58372440994319
150.0 77.75140775354191
155.0 77.89512064546619
160.0 78.06237290526168
165.0 78.2514077535419
170.0 78.38448599174824
175.0 78.5623729052617
180.0 78.69588023161378
185.0 78.81806403990196
190.0 78.91806403990195
195.0 78.94064787552088
200.0 78.9521575593742
206.0 78.92937063752771
212.0 78.88599142666465
218.0 78.77483146946045
224.0 78.67483146946046
230.0 78.5633817985483
236.0 78.44192409842435
240.0 78.35369805833241
250.0 78.28702990051124
258.0 78.2536980583324
265.0 78.19895342069016
272.0 78.17661820918917
280.0 78.17661820918917
290.0 78.17661820918917
300.0 78.14271095454463
307.0 78.08702990051124
315.0 78.02164259093259
325.0 77.91005164305507
335.0 77.7321867565662
345.0 77.5656660601746
355.0 77.29993108270591
365.0 77.03367653916925
375.0 76.7115490368505
387.0 76.37937088556772
400.0 76.0016625243083
412.0 75.58041699850222
425.0 75.2016801922203
437.0 74.80243863206152
450.0 74.48235915017078
462.0 74.26097820809338
475.0 74.15097576708439
487.0 74.19782693911438
500.0 74.43320399209078
515.0 74.89305400086616
530.0 75.49525291346689
545.0 76.18634787366804
560.0 76.91088047997386
580.0 77.57692710780935
600.0 78.1657552758547
615.0 78.61923306594238
630.0 78.83002851227549
650.0 78.81495053412064
670.0 78.54714421762174
690.0 78.14098355273443
710.0 77.63744447452214
730.0 77.10204108624967
750.0 76.58366021066384
775.0 76.12634967107806
800.0 75.83877662308731
825.0 75.71346651156792
850.0 75.72887708592644
875.0 75.8873164559494
900.0 76.1483667954704
925.0 76.48022427654206
950.0 76.80065456978637
975.0 77.17307026189991
1000.0 77.48228685037517
1030.0 77.75125906965317
1060.0 77.91201411065238
1090.0 78.02491310730635
1120.0 78.07662272732927
1150.0 78.0821146983966
1180.0 78.02171577317266
1220.0 77.92777012251499
1250.0 77.7945474534126
1280.0 77.59577320832207
1320.0 77.39152846730907
1360.0 77.15931474506223
1400.0 76.90250233949135
1450.0 76.65659726918611
1500.0 76.41857164044032
1550.0 76.17273003445146
1600.0 75.9269014297806
1650.0 75.72870726001929
1700.0 75.54384198277695
1750.0 75.35847134825012
1800.0 75.22034712003244
1850.0 75.06740565120096
1900.0 74.90647600973617
1950.0 74.78124242007688
2000.0 74.63366216074498
2060.0 74.49749744694938
2120.0 74.3793891159925
2180.0 74.22248006727698
2240.0 74.11855292591657
2300.0 74.05788659377365
2360.0 73.98897946100432
2400.0 73.96761413478481
2500.0 73.98858983635276
2580.0 74.04460824456443
2650.0 74.14033342134778
2720.0 74.279324374842
2800.0 74.43333912377909
2900.0 74.64979407806163
3000.0 74.87259313672415
3070.0 75.10189892887232
3150.0 75.39915876864455
3250.0 75.71055910276345
3350.0 76.03032786198003
3450.0 76.33083227683386
3550.0 76.68096493128081
3650.0 76.98281709200461
3750.0 77.25614058153255
3870.0 77.53394647810367
4000.0 77.74631042001687
4120.0 77.90256998715263
4250.0 78.05356239976646
4370.0 78.12727949697397
4500.0 78.18551231499107
4620.0 78.176161046642
4750.0 78.13080361333209
4870.0 78.03666706506561
5000.0 77.90547040893719
5150.0 77.7409579517957
5300.0 77.52848415398496
5450.0 77.33555682324985
5600.0 77.10400597520369
5800.0 76.88158033930328
6000.0 76.67891064161388
6150.0 76.47296059664342
6300.0 76.23734733957893
6500.0 76.06787525109678
6700.0 75.88952292036075
6900.0 75.77712297105462
7100.0 75.6627994331322
7300.0 75.61909787502263
7500.0 75.63450258940046
7750.0 75.75352666607448
8000.0 75.90750503870133
8250.0 76.12658803135315
8500.0 76.40141925122404
8750.0 76.68376433280584
9000.0 76.93025273900372
9250.0 77.17292023948279
9500.0 77.31371949644407
9750.0 77.40174764798702
10000.0 77.31953943742396
10300.0 77.12219886671616
10600.0 76.7604905927871
10900.0 76.35115544047645
11200.0 75.9604905927871
11500.0 75.61278095277989
11800.0 75.35537775776432
12200.0 75.26492084241289
12500.0 75.36008205542834
12800.0 75.66983661731848
13200.0 76.15068877798383
13600.0 76.65068877798382
14000.0 77.08237072079822
14500.0 77.36983661731848
15000.0 77.3624390324124
15500.0 76.96983661731848
16000.0 76.08266224688818
16500.0 74.64885523417627
17000.0 72.71953943742395
17500.0 70.41953943742394
18000.0 67.84142179334131
18500.0 65.09574753050954
19000.0 62.295747530509544
19500.0 59.56008205542835
