Freq "Floor Bounce"
20.5078 63.19278596913804
21.2402 63.840013460560996
21.9727 64.87041811497427
22.7051 65.8921596992732
23.4375 66.96238182925366
24.1699 66.81629722082772
25.6348 68.65181234753376
26.3672 69.67688554048597
27.0996 71.16079056510117
27.832 71.9407996419604
29.2969 72.73230772209119
30.0293 73.19113258957914
31.4941 74.41581800251042
32.2266 74.87327157463929
33.6914 75.68490324719548
34.4238 76.16050380054806
35.8887 76.69172595056159
37.3535 77.39756744327832
38.8184 78.01551552700163
39.5508 78.30386848602166
41.0156 78.86460724137582
42.4805 79.38814810978951
43.9453 79.9534806004717
45.4102 80.43007393875943
47.6074 81.11819735698197
49.0723 81.67183364036082
50.5371 82.15382521270342
52.7344 82.73799319016885
54.1992 83.17319451583485
56.3965 83.85291462994896
58.5938 84.49814755982923
60.0586 84.89747489595278
62.2559 85.38077411249479
64.4531 85.81288219358078
66.6504 86.29705194395908
69.5801 86.82373483202376
71.7773 87.08422467314004
73.9746 87.35251639399826
76.9043 87.73618229575048
79.834 87.88370972887496
82.7637 87.85008932409043
85.6934 88.03321531299308
88.623 88.01642830510892
91.5527 88.03711408965367
94.4824 87.93301196105887
98.1445 87.76140985635328
101.807 87.62280786210123
105.469 87.45666808049185
109.131 87.11478975527162
112.793 86.95136579627061
116.455 86.78264909940879
120.85 86.59516297043866
125.244 86.62794657425258
129.639 86.37303152219546
134.033 85.98235332128151
138.428 85.73964940797794
143.555 85.67274833800646
148.682 85.53826049325129
153.809 85.29703189191898
159.668 84.67190202081693
164.795 84.98986837155915
170.654 85.18578963722057
176.514 84.25222049979222
183.105 84.0191351279352
189.697 83.9534344193913
196.289 83.50370579394992
202.881 83.67326545505368
210.205 83.6248091314237
217.529 83.41979582167721
225.586 82.95622326665566
232.91 83.04066849432401
241.699 82.55927100555839
249.756 82.77457469221817
258.545 82.70769889618924
268.066 82.60807023282659
277.588 81.85442721776722
287.109 81.95325225766443
297.363 81.51167648772719
307.617 81.63058397362185
318.604 81.36266775346867
329.59 81.73107981045491
341.309 80.90979964294506
353.76 80.82097332633064
366.211 80.99492431239271
378.662 80.64052663439877
392.578 81.15609124920573
405.762 81.49052273514121
420.41 81.63622365697886
435.059 82.29707132579365
450.439 81.37399029076506
466.553 80.51288519033416
482.666 80.82640659950903
500.244 81.03756144147418
517.822 80.50262845733712
536.133 81.10139829234593
554.443 82.02537979828689
574.219 82.40086262973979
594.727 82.85566711730677
615.234 82.1561256109269
637.207 82.4054601728732
659.912 82.13387652438514
683.35 77.52419604067579
706.787 78.7074280123903
731.689 80.28863805892955
758.057 79.75398115623369
784.424 80.01301591945177
812.256 80.16613624362905
840.82 79.84403236398755
870.85 80.76510524580222
901.611 81.19097997328744
933.105 81.5421405629967
966.064 81.7726728130694
999.756 81.62345383869057
1034.91 80.84664803310592
1071.53 80.80136546200791
1109.62 81.1524290070797
1148.44 81.63514846152336
1189.45 81.14136937294931
1231.2 82.47611994918181
1274.41 82.69586266097208
1319.82 82.15555773155604
1365.97 83.26741167198762
1414.31 82.86030286451178
1464.11 82.64578407229959
1515.38 83.66305357586644
1568.85 83.83946133138558
1624.51 83.80993779817923
1681.64 83.38021389459027
1740.97 82.9291440787842
1802.49 82.99347905380945
1866.21 83.02758880831581
1932.13 81.83910450825223
2000.24 80.5475477344561
2070.56 79.80367374139145
2143.8 77.78432605376885
2219.24 75.53054909396248
2297.61 75.12111960148587
2378.17 75.22466732646781
2462.4 74.5631499574679
2548.83 75.02114073446386
2638.92 75.90011953097705
2731.93 77.34399682529444
2828.61 78.15766185329534
2928.22 78.33726844893413
3031.49 79.27936214576194
3138.43 79.92329219768756
3249.02 81.11850489852202
3363.28 81.32145284365384
3481.93 81.16708528198153
3604.98 81.7388175622416
3732.42 82.77955592244601
3863.53 83.1647322257936
3999.76 83.04290491908687
4141.11 83.30211300979245
4286.87 83.62587250582733
4438.48 83.51813087694923
4594.48 83.23041424196829
4757.08 83.01208482606692
4924.8 83.20008785947074
5098.39 83.31458496745077
5277.83 82.93004371770887
5463.87 82.67674925201638
5656.49 82.65322243179769
5856.45 82.51492662094363
6062.99 82.33964953991126
6276.86 82.75600408627191
6498.05 82.33213613922626
6727.29 82.47653127210654
6964.6 82.02427463343507
7209.96 82.2529616202598
7464.11 82.11919592381433
7727.78 82.01477302669515
8000.24 81.97661462146199
8282.23 81.87414289383987
8574.46 81.6927485854058
8876.22 81.30711568262363
9189.7 80.66700381977886
9513.43 80.36830739780433
9848.88 80.10638975508823
10196.8 79.52640827572476
10556.4 79.31362970239155
10928.5 79.36733096348149
11313.7 79.53742649496344
11712.9 79.52424304288631
12126.0 79.17475675447558
12553.7 78.7510156787914
12996.1 78.61270902365884
13454.6 78.77817286770518
13928.5 78.67906676531332
14419.9 77.87369245776816
14928.2 76.62721080113519
15454.8 75.20945542661268
15999.8 73.99976815483113
16564.5 72.92526324361329
17148.2 71.31596879661926
17753.2 68.79452446354036
18379.4 64.3362276817317
19027.6 58.45387415066436
19698.5 59.67143130169801
19999.5 59.763285382850185
