Freq "Ceiling Bounce"
22.4 -7.39923250554439
23.0 -6.199232505544373
23.6 -4.999232505544384
24.0 -3.3992325055443615
25.0 -1.6992325055444013
25.8 -0.19923250554437288
26.5 1.4007674944556214
27.2 2.9007674944556214
28.0 4.400767494455593
29.0 5.800767494455599
30.0 7.635130591779827
30.7 10.10076749445561
31.5 12.300767494455627
32.5 14.300767494455627
33.5 16.13435140868505
34.5 17.90076749445562
35.5 19.700767494455604
36.5 22.000767494455616
37.5 24.166921851160495
38.7 26.10076749445561
40.0 28.000767494455616
41.2 29.700767494455604
42.5 31.90076749445562
43.7 34.166921851160495
45.0 36.200767494455604
46.2 38.10076749445564
47.5 39.90076749445559
48.7 42.233589826879964
50.0 44.40076749445562
51.5 46.30076749445563
53.0 48.20076749445563
54.5 50.500767494455616
56.0 52.700767494455604
58.0 54.700767494455604
60.0 56.633589826879984
61.5 58.80076749445561
63.0 60.70076749445563
65.0 62.600767494455624
67.0 64.3669218511605
69.0 66.10076749445561
71.0 67.70076749445562
73.0 69.16845083805433
75.0 70.50076749445562
77.5 71.86845083805433
80.0 73.10076749445562
82.5 74.26845083805433
85.0 75.30076749445561
87.5 76.13513059177983
90.0 76.93513059177984
92.5 77.60306957104252
95.0 78.16845083805434
97.5 78.63513059177983
100.0 79.00306957104252
103.0 79.20306957104252
106.0 79.30306957104253
109.0 79.33821129888743
112.0 79.37150800786937
115.0 79.37150800786937
118.0 79.37150800786937
122.0 79.23821129888742
125.0 79.13821129888743
128.0 79.07609175449221
132.0 79.10690501035458
136.0 79.20690501035459
140.0 79.3069050103546
145.0 79.24283030471975
150.0 79.14283030471974
155.0 79.11227178315617
160.0 79.31227178315619
165.0 79.44576719438469
170.0 79.27609175449223
175.0 79.01227178315618
180.0 78.98219967332305
185.0 78.91916705502754
190.0 79.11916705502753
195.0 79.11916705502753
200.0 79.11916705502753
206.0 78.98982856673473
212.0 78.88982856673472
218.0 78.96096514237182
224.0 79.19897445130925
230.0 79.19897445130925
236.0 79.09897445130926
240.0 78.99897445130924
250.0 79.10963256681619
258.0 79.37082970284298
265.0 79.29897445130925
272.0 79.29897445130925
280.0 79.29897445130925
290.0 79.06096514237183
300.0 78.92758719283593
307.0 78.73257218046558
315.0 78.83257218046558
325.0 78.82758719283592
335.0 78.66096514237182
345.0 78.96096514237182
355.0 78.89897445130926
365.0 78.37082970284297
375.0 78.23752777300028
387.0 77.77082970284299
400.0 77.00963256681621
412.0 76.17082970284298
425.0 74.96588846059687
437.0 73.08888547155003
450.0 72.69237898809799
462.0 73.65062128010364
475.0 74.9672655885961
487.0 75.87641629732153
500.0 76.07641629732153
515.0 75.1165581917717
530.0 75.0264329774251
545.0 74.67245249207643
560.0 74.55648313414828
580.0 74.70921140720402
600.0 74.58343461029553
615.0 74.3361070797735
630.0 73.98161208533422
650.0 73.48161208533422
670.0 73.28538710465898
690.0 73.21719474435358
710.0 73.36620989389219
730.0 73.30174601124772
750.0 73.36268190818896
775.0 73.49664781293231
800.0 73.49664781293231
825.0 73.51719474435357
850.0 73.34066681957172
875.0 73.20174601124772
900.0 74.0844476236301
925.0 74.90473949550547
950.0 75.37100612011483
975.0 75.64066681957173
1000.0 74.6527499421436
1030.0 73.40994607707172
1060.0 73.37301209244411
1090.0 74.43012177221654
1120.0 75.1493489016972
1150.0 75.00851320750932
1180.0 74.84010271092207
1220.0 75.13012177221653
1250.0 75.93898164121286
1280.0 76.49430925610405
1320.0 76.67406327003758
1360.0 76.04743899086733
1400.0 75.05648313414828
1450.0 73.88246753146329
1500.0 72.20935602590691
1550.0 70.21851550199946
1600.0 69.2535216502699
1650.0 69.27611856531715
1700.0 69.64608461666676
1750.0 70.35647994661606
1800.0 71.2121361197686
1850.0 71.20542400732661
1900.0 70.16226741403312
1950.0 68.72790007353129
2000.0 67.73913968958946
2060.0 66.85588982462696
2120.0 67.64878700732918
2180.0 68.11403481914587
2240.0 68.67075835861421
2300.0 68.90857942301257
2360.0 67.74166454193309
2400.0 66.15055781622273
2500.0 65.22644078206443
2580.0 64.41841265864714
2650.0 64.23835530969329
2720.0 65.92566228536352
2800.0 66.13577042956858
2900.0 64.63138904094096
3000.0 63.94412885328626
3070.0 64.54993472601853
3150.0 64.2151572618204
3250.0 63.72585044351925
3350.0 64.82188682922212
3450.0 66.58318629029516
3550.0 66.30427244119464
3650.0 64.42855248917319
3750.0 62.814329817495306
3870.0 61.148778257266756
4000.0 60.45009295639362
4120.0 62.4001678867173
4250.0 62.3161566667291
4370.0 62.72996319673929
4500.0 63.522751483055956
4620.0 64.57295409049298
4750.0 65.88219671845799
4870.0 66.71471033977959
5000.0 67.6277300866453
5150.0 68.0126632172949
5300.0 68.1757155655739
5450.0 68.12148145229507
5600.0 69.56083736121327
5800.0 71.29552029490402
6000.0 72.39859922471697
6150.0 72.98996969149759
6300.0 71.80306334338779
6500.0 70.4078436337162
6700.0 70.96017446427516
6900.0 70.27580861761
7100.0 65.18945113932031
7300.0 62.916785335082
7500.0 68.09081169728846
7750.0 70.06455411461897
8000.0 69.33517000151939
8250.0 66.21224384837075
8500.0 65.89444918832339
8750.0 68.11476097345948
9000.0 65.93932061309921
9250.0 62.198032817908626
9500.0 68.00728105261827
9750.0 70.67479325343083
10000.0 70.28272787350748
10300.0 67.42925436903829
10600.0 64.89411509223616
10900.0 58.6259247699478
11200.0 62.996680155555225
11500.0 61.80517981536646
11800.0 64.28080494811262
12200.0 66.9339369331207
12500.0 64.91625633710437
12800.0 66.43994991286935
13200.0 63.151750939086895
13600.0 55.59501268509855
14000.0 58.68811991567999
14500.0 57.64089599022617
15000.0 60.96795072971058
15500.0 58.09393259456333
16000.0 64.97114677241167
16500.0 68.01739120956046
17000.0 63.40846096115679
17500.0 53.80339044892209
18000.0 57.488061718429336
18500.0 52.19764592971741
19000.0 45.59057453991913
19500.0 38.01605660311937
