Freq "Front Wall Bounce"
22.4 -6.340171957507394
23.0 -5.140171957507377
23.6 -3.8961614231666744
24.0 -2.279599150942957
25.0 -0.6045064713534174
25.8 0.9984900999892119
26.5 2.5303899693295904
27.2 4.061739461583173
28.0 5.548899709076764
29.0 7.008221655125297
30.0 8.834110735357527
30.7 11.25142085492287
31.5 13.44742343148711
32.5 15.416429806812957
33.5 17.258197067147265
34.5 19.014097072688045
35.5 20.757190731944107
36.5 23.099528826544045
37.5 25.242430012593005
38.7 27.19952882654404
40.0 29.042430012592988
41.2 30.785244824919502
42.5 32.97057930864399
43.7 35.19952882654407
45.0 37.19952882654404
46.2 39.08491154723656
47.5 40.97057930864402
48.7 43.270579308644
50.0 45.39919664325687
51.5 47.356199615296205
53.0 49.25619961529618
54.5 51.54177215189874
56.0 53.74177215189873
58.0 55.713434905817635
60.0 57.641772151898735
61.5 59.7561996152962
63.0 61.74177215189873
65.0 63.584911547236544
67.0 65.38491154723654
69.0 67.11343490581764
71.0 68.74210109470229
73.0 70.21343490581764
75.0 71.61343490581764
77.5 72.92762664100111
80.0 74.17090607684162
82.5 75.31408953687695
85.0 76.3709060768416
87.5 77.24308028797653
90.0 78.04308028797652
92.5 78.78523723887771
95.0 79.3852372388777
97.5 79.84308028797652
100.0 80.21506016879842
103.0 80.42957649550225
106.0 80.57221307702149
109.0 80.65879970538492
112.0 80.72957649550224
115.0 80.72957649550224
118.0 80.65879970538492
122.0 80.55879970538491
125.0 80.5021106690058
128.0 80.48816064300948
132.0 80.56040130603114
136.0 80.58816064300947
140.0 80.70310665031687
145.0 80.73185605301103
150.0 80.71734735648465
155.0 80.74631644093958
160.0 80.93250791345878
165.0 81.04631644093959
170.0 80.9050314880811
175.0 80.7334309419626
180.0 80.83343094196259
185.0 80.83343094196259
190.0 81.00568738695485
195.0 81.01958131830732
200.0 81.01958131830732
206.0 80.86238937430923
212.0 80.85119393866498
218.0 80.86463078528644
224.0 81.20857028171966
230.0 81.2780545567708
236.0 81.09140868174404
240.0 81.06463078528644
250.0 81.42597444554885
258.0 81.49464102258618
265.0 81.28000725511389
272.0 81.30825370946279
280.0 81.20991179148591
290.0 80.95119393866499
300.0 80.73674980889156
307.0 80.76751293554003
315.0 80.78534297541326
325.0 80.65209208634857
335.0 80.55056629031685
345.0 80.82644413295559
355.0 80.97143859142331
365.0 80.6286024745112
375.0 80.54410680704736
387.0 80.08899492260305
400.0 79.38115243403499
412.0 78.4971912143931
425.0 77.32898568839504
437.0 76.3481777275308
450.0 76.41306411306547
462.0 77.1857610020948
475.0 78.37328324843637
487.0 79.14811298186176
500.0 79.51658906410957
515.0 79.79673252772737
530.0 79.63689697798968
545.0 79.32671449263299
560.0 79.22969915849417
580.0 79.043837931529
600.0 78.84383793152898
615.0 78.41003237578563
630.0 78.14961138290937
650.0 77.91353542591928
670.0 77.93427501598336
690.0 78.37103892657878
710.0 79.26720232433216
730.0 79.66739464649865
750.0 79.25495347598046
775.0 78.45725966952942
800.0 78.19046900483482
825.0 78.4306094530355
850.0 78.65774506171935
875.0 78.6811524390613
900.0 78.68535679361925
925.0 78.91674532177764
950.0 79.48908148641566
975.0 80.08602869021328
1000.0 79.76674339388798
1030.0 78.38494292416699
1060.0 77.30500641925067
1090.0 77.19946651936428
1120.0 78.2615740980166
1150.0 79.06242685091459
1180.0 78.95248720508523
1220.0 77.92088130289169
1250.0 77.06535932582027
1280.0 77.61946634412358
1320.0 79.07176621762821
1360.0 80.19346458093102
1400.0 80.51694379945799
1450.0 80.33220407053928
1500.0 79.90213214680308
1550.0 79.70149822413791
1600.0 79.89976840186264
1650.0 80.1961333731498
1700.0 80.39297339584424
1750.0 80.29413824326626
1800.0 79.95242357041128
1850.0 79.21748518692358
1900.0 78.33265841914557
1950.0 77.67254576129358
2000.0 77.63988421686373
2060.0 77.87873220287412
2120.0 77.60876135770779
2180.0 77.42898553136494
2240.0 77.68813786582565
2300.0 77.63647080986048
2360.0 77.56296241748456
2400.0 78.95335817111066
2500.0 79.49997158616291
2580.0 79.28695261333039
2650.0 79.0257138935723
2720.0 78.95838041908502
2800.0 78.17557880058256
2900.0 78.01315791955486
3000.0 78.09086134033333
3070.0 77.99058343412112
3150.0 78.35945449054466
3250.0 79.07862531286627
3350.0 79.56584026721701
3450.0 79.91045096978893
3550.0 79.18695462525295
3650.0 78.39335731805753
3750.0 77.56521550732602
3870.0 77.27222270971748
4000.0 77.6582292948156
4120.0 78.27428490844883
4250.0 78.55359368668717
4370.0 77.46375011608872
4500.0 76.88898914047773
4620.0 76.39553353098398
4750.0 75.43810050113811
4870.0 74.94122451499494
5000.0 76.0022915917006
5150.0 77.3505190902554
5300.0 79.04598257382438
5450.0 80.53440566629934
5600.0 80.35161678339135
5800.0 79.72995840591108
6000.0 78.80227641070908
6150.0 78.8884062928134
6300.0 79.58366963179976
6500.0 79.68344822920223
6700.0 78.5531385535359
6900.0 78.33659783909123
7100.0 79.23825531837439
7300.0 79.75069263457623
7500.0 80.3705598222276
7750.0 81.05592871471903
8000.0 81.06663730236771
8250.0 80.77494737139172
8500.0 80.88579292413277
8750.0 81.05757203281611
9000.0 80.31513053332307
9250.0 78.86787949022253
9500.0 76.50376672048642
9750.0 74.31030478590996
10000.0 74.53737648125048
10300.0 78.09749123442923
10600.0 78.48853870908098
10900.0 78.21013617028053
11200.0 76.93508517307737
11500.0 76.79786129353387
11800.0 75.092807331949
12200.0 78.07865789961983
12500.0 79.12031613865953
12800.0 78.23416411535956
13200.0 77.57088399423877
13600.0 75.58962876699849
14000.0 78.04620960938742
14500.0 78.7562353927619
15000.0 80.58316021301499
15500.0 82.80204839578609
16000.0 85.07829916630793
16500.0 85.72108022787255
17000.0 83.4615112156973
17500.0 77.71151822539073
18000.0 74.86527512301367
18500.0 67.31013292699306
19000.0 58.59133058381802
19500.0 50.37308933004552
