Freq "Side Wall Bounce"
22.4 -6.170693492747276
23.0 -4.970693492747259
23.6 -3.720203830991281
24.0 -2.042624479542482
25.0 -0.33095516188699037
25.8 1.3301129168094548
26.5 2.898394764711284
27.2 4.467704957334675
28.0 5.977771362437508
29.0 7.485379997903053
30.0 9.277771362437491
30.7 11.638587854115158
31.5 13.765413086219425
32.5 15.717512021374503
33.5 17.534628393387507
34.5 19.253019694509604
35.5 20.982505142960022
36.5 23.292515180287197
37.5 25.422644155985623
38.7 27.372471980223153
40.0 29.172471980223165
41.2 30.8929809457493
42.5 33.04292334272567
43.7 35.25325993873089
45.0 37.26357199112017
46.2 39.142923342725695
47.5 41.01339351551603
48.7 43.28320007169616
50.0 45.42356393433347
51.5 47.3431483043865
53.0 49.2332544257488
54.5 51.48250514296002
56.0 53.652790015341495
58.0 55.602275121522226
60.0 57.54268788852393
61.5 59.66286869811783
63.0 61.572924045414396
65.0 63.442687888523935
67.0 65.1934308812673
69.0 66.9034157964414
71.0 68.55302504427992
73.0 69.94315366633052
75.0 71.31407848749451
77.5 72.62379014341653
80.0 73.83393627264913
82.5 74.99436228931772
85.0 76.01478997400856
87.5 76.83533652152256
90.0 77.61548515252024
92.5 78.32588718220256
95.0 78.92654938081684
97.5 79.33764384465267
100.0 79.62911862223837
103.0 79.840228756874
106.0 79.94022875687399
109.0 79.9933912584769
112.0 79.98426476541148
115.0 79.9450866378666
118.0 79.87823392108172
122.0 79.73566400829252
125.0 79.58800399272828
128.0 79.46563860522367
132.0 79.39273421795825
136.0 79.41544416911253
140.0 79.56286693590718
145.0 79.54111926480726
150.0 79.42720283930203
155.0 79.33711499291923
160.0 79.460703736436
165.0 79.62099700017184
170.0 79.48900988671791
175.0 79.28105409234793
180.0 79.24263293447558
185.0 79.16520452324899
190.0 79.23862825856521
195.0 79.24043680977667
200.0 79.19133669376474
206.0 79.0512661388098
212.0 78.84368461697649
218.0 78.71445789286823
224.0 78.94321822194418
230.0 79.10148510060485
236.0 78.95192926449847
240.0 78.85283908238755
250.0 78.94600370753206
258.0 79.0806990276973
265.0 79.01176646779913
272.0 79.02946231908665
280.0 78.88199471809982
290.0 78.54164210503524
300.0 78.31301686699838
307.0 78.26716515400538
315.0 78.4726262116633
325.0 78.38178079923605
335.0 78.16540947839847
345.0 78.27556098347812
355.0 78.22681876191498
365.0 77.86346020471835
375.0 77.86574071701408
387.0 77.38062518769118
400.0 76.39046516007163
412.0 75.25957697291457
425.0 73.9159743630771
437.0 72.61198365097239
450.0 72.84613239711426
462.0 73.5972976038355
475.0 74.47594795887147
487.0 75.22146694874475
500.0 75.34189409000308
515.0 75.44974822613773
530.0 75.40587342725549
545.0 74.91407966604122
560.0 74.69289563932035
580.0 74.45739742290029
600.0 74.35120992751041
615.0 74.03871657442917
630.0 73.8238926841549
650.0 73.59109854549958
670.0 73.40679899683215
690.0 73.27673206547293
710.0 73.9499981902636
730.0 74.60877194208739
750.0 75.28080809454781
775.0 75.43437323928647
800.0 74.81693016184578
825.0 74.42302296782218
850.0 74.22710088331193
875.0 74.40679461640929
900.0 75.00444105359296
925.0 75.4884649619281
950.0 75.95661060264095
975.0 75.799426947238
1000.0 74.56884772365615
1030.0 72.63708619213573
1060.0 71.80833824815362
1090.0 72.4583149490821
1120.0 73.28495710205884
1150.0 73.79281120151637
1180.0 73.71832749152058
1220.0 73.27435651513902
1250.0 73.39367175579109
1280.0 74.3885118955838
1320.0 75.5726419420342
1360.0 76.40071101651725
1400.0 76.60999051042891
1450.0 76.1589985351925
1500.0 75.38954722704132
1550.0 74.88220640505804
1600.0 74.82529144180442
1650.0 74.9966665241642
1700.0 75.06131543683458
1750.0 74.62058390277176
1800.0 73.85662117053876
1850.0 72.99661941209186
1900.0 72.03359845968261
1950.0 71.12436033513087
2000.0 70.84616991657067
2060.0 70.99135317111141
2120.0 70.92333383297002
2180.0 70.43157649719295
2240.0 70.22962495424719
2300.0 70.20551294248554
2360.0 69.89970775784235
2400.0 70.67704718076232
2500.0 70.83782638566862
2580.0 70.34883719394952
2650.0 70.91511139573629
2720.0 71.98762498896645
2800.0 72.19401617094384
2900.0 71.99625057104367
3000.0 71.26738473196251
3070.0 70.72337200986426
3150.0 70.81921094821743
3250.0 70.71875125210389
3350.0 70.44172380979781
3450.0 70.39734998691172
3550.0 69.9572301232421
3650.0 69.43388477535358
3750.0 69.15044522296259
3870.0 69.70624799346416
4000.0 70.68775118513014
4120.0 70.58752348504773
4250.0 70.36896668780052
4370.0 70.06807300537282
4500.0 69.70611492570713
4620.0 69.84491006963607
4750.0 70.07305311782437
4870.0 69.50018599955693
5000.0 69.16019077653038
5150.0 70.68379632132756
5300.0 73.56825170767381
5450.0 75.02663774590684
5600.0 75.31760744461864
5800.0 75.67635327247376
6000.0 75.30515134373115
6150.0 74.35241500028934
6300.0 73.87887886019874
6500.0 73.1341051740062
6700.0 71.43902069016929
6900.0 70.04782342407925
7100.0 70.94375507945881
7300.0 73.02723843461034
7500.0 75.24624077806297
7750.0 76.60067476079269
8000.0 75.97150098421297
8250.0 73.11728587341052
8500.0 70.73162844529459
8750.0 71.91647241908103
9000.0 74.32573643050023
9250.0 74.7585801196369
9500.0 72.60707035407266
9750.0 69.61134675672368
10000.0 66.98067691679738
10300.0 68.96172480053838
10600.0 70.61555375180758
10900.0 72.66942024917519
11200.0 70.24718065429668
11500.0 66.17698310053736
11800.0 62.90665699021285
12200.0 70.42530505900557
12500.0 73.49534927534327
12800.0 72.84621710252411
13200.0 70.59111012865945
13600.0 67.82814733048579
14000.0 70.31696574589314
14500.0 71.82762205984396
15000.0 70.95950470650035
15500.0 73.18092592117064
16000.0 74.06717824372403
16500.0 75.91770087275765
17000.0 73.91023663792336
17500.0 67.9148087486101
18000.0 63.996710754018
18500.0 58.401856101295195
19000.0 50.60994175302751
19500.0 41.433803640347506
