Freq,On Axis,Listening Window,Sound Power,Early Reflections,Early Reflections DI,Sound Power DI,DI offset
20.5078,52.92999999999999,52.95827441181781,53.582536097354634,53.257260530976154,39.70101388084166,39.37573831446318,40
21.9727,54.9618,54.99861684916458,55.705141884033324,55.34679436603328,39.6518224831313,39.29347496513125,40
23.4375,59.20020000000001,59.23101382582324,59.96841490152927,59.57672030856996,39.65429351725328,39.26259892429397,40
24.9023,57.504900000000006,57.53176040830941,58.12718540718721,57.84096162896488,39.69079877934453,39.4045750011222,40
26.3672,61.107900000000015,61.10686679668966,61.04244812285536,61.08156117345156,40.0253056232381,40.0644186738343,40
27.832,63.67059999999999,63.668938870172084,63.60011166148554,63.64370600550167,40.025232864670414,40.06882720868654,40
29.2969,66.3204,66.31779034274099,66.24517264433712,66.28422315958186,40.033567183159136,40.072617698403874,40
30.7617,68.7993,68.79516212041618,68.70242486708959,68.75421717613014,40.04094494428604,40.09273725332659,40
32.2266,71.0042,70.99754978268635,70.85153360386057,70.93047346394884,40.067076318737506,40.146016178825775,40
33.6914,73.13119999999999,73.12221813802945,72.9328950107318,73.03262696113335,40.08959117689611,40.189323127297655,40
35.1563,75.1237,75.11348723163513,74.90551309555335,75.01429769099673,40.099189540638406,40.20797413608179,40
36.6211,76.97590000000001,76.96365424155199,76.71830383309793,76.84437517661948,40.11927906493251,40.24535040845406,40
38.0859,78.67720000000001,78.66320546013664,78.38453422075425,78.52764508158947,40.13556037854717,40.27867123938239,40
39.5508,80.2387,80.22379896136619,79.92806328679634,80.07909803255528,40.144700928810906,40.29573567456984,40
41.0156,81.65819999999998,81.64134013672302,81.31187679668797,81.47978568443033,40.16155445229269,40.32946334003505,40
42.4805,82.9393,82.92032854642211,82.54111561241854,82.73398485981926,40.186343686602854,40.379212934003576,40
43.9453,84.0948,84.07229689727498,83.61481562938603,83.84863426565356,40.22366263162142,40.45748126788895,40
45.4102,85.0864,85.06400152346882,84.59418796801195,84.8326644722118,40.231337051257015,40.46981355545687,40
46.875,85.8985,85.87739802999778,85.44403023723565,85.6635985592447,40.213799470753074,40.43336779276213,40
48.3398,86.6622,86.64106449168831,86.21491779041556,86.43077585619663,40.21028863549168,40.426146701272756,40
51.2695,87.8599,87.83691657507048,87.39065715799532,87.6150884349289,40.22182814014158,40.446259417075154,40
52.7344,88.2956,88.27214908852251,87.8249081877697,88.04880758682208,40.22334150170043,40.44724090075282,40
54.1992,88.63079999999998,88.60557876675293,88.12880951667273,88.36716274680562,40.23841601994731,40.476769250080196,40
55.6641,88.8985,88.8720764784473,88.3726451721088,88.62278371538004,40.24929276306726,40.499431306338494,40
58.5938,89.2815,89.2533247766006,88.73314584742778,88.99180517683156,40.261519599769045,40.52017892917283,40
60.0586,89.3927,89.36312431642212,88.82373241019353,89.09062291174988,40.27250140467224,40.53939190622859,40
62.9883,89.51800000000001,89.48653432559516,88.92032026128363,89.1983800180482,40.28815430754696,40.566214064311524,40
64.4531,89.5702,89.53658906538514,88.93707204532804,89.2327720808344,40.30381698455075,40.59951702005711,40
67.3828,89.707,89.67333181243225,88.9948160864215,89.33558235218261,40.33774946024964,40.67851572601076,40
68.8477,89.6703,89.63807605551096,89.00937149242051,89.32206730929073,40.316008746220234,40.62870456309045,40
71.7773,89.6088,89.57444090560912,88.94113424505402,89.25304753385377,40.32139337175535,40.63330666055511,40
74.707,89.6269,89.59002431668974,88.9077966723389,89.24246837867683,40.3475559380129,40.68222764435083,40
77.6367,89.6148,89.57912649675626,88.91121147475651,89.23472422041088,40.34440227634538,40.66791502199975,40
79.1016,89.6045,89.56992648569953,88.94411731355045,89.2442472879516,40.32567919774793,40.625809172149076,40
82.0313,89.6327,89.59342406868271,88.94547931027864,89.25552707883291,40.337896989849796,40.647944758404066,40
84.9609,89.6647,89.62277876655105,88.95184302817901,89.2727175213685,40.350061245182545,40.67093573837204,40
87.8906,89.6687,89.62465620227907,88.98195906391935,89.28650372582679,40.33815247645228,40.64269713835972,40
90.8203,89.7845,89.73513441255817,89.01670051415594,89.3571438138518,40.37799059870636,40.718433898402225,40
95.2148,89.8107,89.75728648934583,88.93560814282752,89.32889190304122,40.428394586304606,40.82167834651831,40
98.1445,89.80469999999998,89.7484662986364,88.89148794315956,89.30014252175197,40.448323776884436,40.85697835547684,40
101.074,89.8021,89.74238854170692,88.81885560936261,89.26175603827382,40.4806325034331,40.9235329323443,40
105.469,89.83559999999999,89.77404943882637,88.77141101987183,89.25952768198576,40.51452175684061,41.00263841895453,40
108.398,89.77810000000001,89.71810581827829,88.7775420151483,89.22857262639526,40.48953319188303,40.94056380312999,40
112.793,89.6239,89.55994174756334,88.63455433069362,89.06516139718255,40.49478035038079,40.925387416869725,40
117.188,89.604,89.53250954104523,88.4866627982499,88.97148443890855,40.56102510213668,41.045846742795334,40
120.117,89.772,89.69967336026802,88.63042497076461,89.13181334565256,40.56786001461546,41.069248389503414,40
124.512,89.8824,89.80661234246995,88.71961796116584,89.22910534994372,40.577506992526224,41.08699438130411,40
128.906,89.9458,89.86226988087286,88.64017067090971,89.21589748805901,40.646372392813845,41.22209920996315,40
133.301,89.9409,89.86089277129082,88.47646588719603,89.15252510163434,40.70836766965648,41.38442688409479,40
139.16,89.6469,89.56696136753902,88.26839533159955,88.88521591331114,40.68174545422788,41.29856603593947,40
143.555,89.6696,89.5775879172282,88.14665864914082,88.82524361454314,40.75234430268506,41.43092926808738,40
147.949,89.8282,89.73866471318227,88.35916179655526,89.0122290515736,40.726435661608676,41.37950291662702,40
153.809,89.6417,89.54834549592326,88.01405741334399,88.76297523231918,40.78537026360408,41.534288082579266,40
159.668,89.4296,89.32960602537653,87.77755461454556,88.52809324452049,40.801512780856044,41.55205141083097,40
165.527,89.3756,89.24422679179686,87.36628393522982,88.27038133692695,40.97384545486992,41.877942856567046,40
171.387,89.98469999999999,89.88466017918388,88.10655472102984,88.98808340399172,40.89657677519216,41.778105458154045,40
177.246,89.8843,89.77345873468194,87.8993193391887,88.83202385042578,40.941434884256154,41.874139395493245,40
183.105,89.7128,89.60189312327043,87.91844968913729,88.71981113788806,40.88208198538237,41.68344343413314,40
188.965,89.9814,89.85479385635429,87.91154934212113,88.84882545689683,41.00596839945746,41.94324451423316,40
196.289,89.731,89.60767067418483,87.61154260245736,88.58992138240237,41.017749291782465,41.99612807172747,40
203.613,89.6201,89.476450016977,87.14872558334105,88.29784184370521,41.17860817327178,42.32772443363595,40
210.938,90.0962,89.96146250037604,87.31145678631675,88.68613404210937,41.27532845826667,42.65000571405929,40
218.262,89.8704,89.7629692265127,87.54100999901222,88.65669836744338,41.10627085906931,42.22195922750048,40
225.586,89.6752,89.54353793678021,87.32515889376606,88.41168097272806,41.13185696405215,42.21837904301415,40
232.91,89.8899,89.7514335389926,87.18598902845592,88.46449491522942,41.28693862376318,42.56544451053668,40
241.699,89.8738,89.74609176568904,86.90791049953701,88.38302642465129,41.36306534103775,42.838181266152034,40
250.488,89.6673,89.50606596672218,86.74700877584681,88.1270835885005,41.37898237822168,42.75905719087537,40
259.277,90.3388,90.21363997666197,87.05912771992072,88.74227695539815,41.47136302126381,43.15451225674124,40
268.066,89.85799999999999,89.75030493731008,87.45727585179239,88.61061697592709,41.13968796138299,42.29302908551769,40
276.855,89.39220000000002,89.24921669001796,86.3229547058168,87.83478875120316,41.4144279388148,42.92626198420116,40
287.109,89.75859999999999,89.62130502329343,86.45644354506854,88.07415688050985,41.547148142783584,43.16486147822489,40
297.363,89.92230000000002,89.80866310874548,86.65351194783995,88.31073033128821,41.497932777457265,43.15515116090553,40
307.617,89.24149999999999,89.12749527157995,86.45376083821174,87.81883160259878,41.30866366898117,42.67373443336821,40
319.336,89.1605,89.032687682304,86.00915829184991,87.57583787639348,41.45684980591052,43.02352939045409,40
329.59,89.4036,89.21838072657879,85.99929993241254,87.64806901809314,41.57031170848565,43.219080794166246,40
341.309,89.4071,89.24789563607375,85.69029963888197,87.55281891215584,41.69507672391791,43.55759599719178,40
353.027,89.8052,89.64665438749661,85.79069946435132,87.8564243658772,41.79023002161941,43.85595492314529,40
366.211,88.73050000000002,88.62729908877826,85.59259593407724,87.14516616705254,41.48213292172572,43.03470315470102,40
379.395,88.7473,88.63176793234578,85.5998515986888,87.23483756347284,41.396930368872944,43.03191633365698,40
392.578,88.2481,88.07545148851203,85.31576778427052,86.72844969613334,41.34700179237869,42.75968370424151,40
405.762,88.94109999999999,88.67019075680247,85.2352527708725,86.87062679796821,41.799563958834256,43.43493798592996,40
420.41,88.8233,88.63693724077514,85.07613671684231,86.91571490626028,41.72122233451486,43.560800523932826,40
435.059,88.9377,88.67515887519171,84.63729349498554,86.67219845639069,42.002960418801024,44.03786538020617,40
451.172,88.6778,88.38521383260299,84.5481597004745,86.5553019166555,41.82991191594749,43.837054132128486,40
465.82,87.9141,87.6647869717058,84.46828480595393,86.17712775770441,41.48765921400138,43.196502165751866,40
483.398,88.5876,88.269378319288,84.58199882484944,86.45351285204623,41.815865467241764,43.68737949443856,40
499.512,89.2377,88.85874375059866,84.35013422196941,86.58292939836672,42.27581435223195,44.50860952862925,40
517.09,89.172,88.9759644444899,85.09244325391224,87.02502017457552,41.95094426991439,43.88352119057767,40
536.133,89.4894,89.20172823728005,85.24522045967213,87.39279745685387,41.80893078042618,43.956507777607925,40
555.176,89.0749,88.7058137766081,84.72259114674249,86.76395234464958,41.941861431958515,43.98322262986561,40
574.219,89.7878,89.48737547534647,84.90543527199753,87.29495431878884,42.19242115655763,44.581940203348935,40
594.727,89.8158,89.44217589727084,84.94515813139817,87.26018250995074,42.181993387320105,44.49701776587267,40
615.234,89.7563,89.37030832674927,84.4178426474925,86.90846280010496,42.46184552664431,44.95246567925676,40
637.207,88.1248,87.93042701316662,83.66446797720731,85.87713748634272,42.0532895268239,44.26595903595931,40
659.18,88.1429,87.78201262024118,83.32898438821508,85.39325355840509,42.38875906183608,44.4530282320261,40
682.617,89.89289999999998,89.52829784151315,83.98035243645815,86.36845232847804,43.15984551303511,45.547945405055,40
707.52,89.2689,88.96186515767688,83.39490121604565,85.99365392650395,42.96821123117293,45.56696394163123,40
732.422,89.5727,89.14054726957387,83.26559318276988,86.12498379845758,43.015563471116295,45.874954086803996,40
757.324,89.1666,88.6855867034053,83.20324196860673,86.47637682399946,42.20920987940585,45.48234473479857,40
785.156,88.2509,88.06666031334449,83.19588043094781,86.8098979889312,41.25676232441329,44.870779882396675,40
811.523,87.5267,87.22955675521199,82.88022679212509,86.3487549889204,40.88080176629158,44.3493299630869,40
840.82,87.884,87.58803592268262,82.76997987837434,86.19053579118243,41.397500131500195,44.81805604430828,40
870.117,88.7245,88.30202489800395,82.66028931486123,86.37665135675653,41.925373541247424,45.64173558314272,40
900.879,88.4854,88.06753844337526,82.82390125633599,86.22170674008113,41.845831703294124,45.24363718703927,40
933.105,88.3339,87.9091272157206,82.28381494134132,85.83160997406728,42.077517241653325,45.62531227437928,40
965.332,88.3503,87.83274737576893,82.20461303414137,85.7554292985857,42.077318077183236,45.62813434162756,40
1000.49,88.7871,88.15962619724512,82.17277928999256,85.75946987817814,42.40015631906698,45.986846907252556,40
1035.64,88.6798,88.27174267778338,82.30733805385914,85.79768322344073,42.47405945434265,45.96440462392424,40
1072.27,89.18000000000002,88.59709923123268,82.60722237361318,85.89895591531452,42.69814331591816,45.98987685761949,40
1108.89,89.802,89.2212850315957,82.95701325846677,86.58526788738803,42.63601714420767,46.264271773128925,40
1148.44,89.6888,89.05788591297498,82.86344957134978,86.46818036966452,42.58970554331046,46.194436341625206,40
1189.45,89.1599,88.60635382923094,82.61312775592476,86.17355384787332,42.43279998135762,45.993226073306175,40
1230.47,89.2855,88.6611361369899,82.6687482783159,86.3020347617195,42.3591013752704,45.99238785867399,40
1274.41,88.9801,88.49296896113596,82.39962057062444,86.07660729974243,42.41636166139352,46.09334839051152,40
1319.82,89.4953,88.94404241868511,82.35066909436716,85.88799746315124,43.05604495553388,46.59337332431795,40
1366.7,90.3985,89.52598624895082,82.90046303982699,86.46757135641538,43.05841489253544,46.62552320912383,40
1413.57,89.7683,89.25433776879105,83.20729430395868,86.67095377294655,42.5833839958445,46.04704346483237,40
1463.38,89.33999999999999,88.97410138937057,83.28643754897492,86.82196034042191,42.152141048948664,45.68766384039566,40
1516.11,89.6495,89.15990537713822,83.21383544108683,86.85122149832274,42.30868387881547,45.94606993605139,40
1568.85,90.7469,89.86070527460929,82.77483714472628,86.61949411571646,43.241211158892824,47.08586812988301,40
1624.51,91.0356,90.18255217459786,82.09043587425806,86.08820441670146,44.0943477578964,48.0921163003398,40
1681.64,90.0629,89.36666997073954,81.06382646901423,85.11716544589572,44.249504524843815,48.302843501725306,40
1741.7,87.648,87.11577470222831,79.1605669186737,83.36990568444952,43.74586901777879,47.95520778355461,40
1803.22,87.9932,86.75385405377592,77.98031897796852,82.20187729062253,44.55197676315339,48.7735350758074,40
1866.21,87.5282,86.54166938933638,77.67148683627352,81.58891923997517,44.95275014936121,48.87018255306286,40
1932.13,86.802,85.94936493275573,77.246633475723,80.9705460911397,44.97881884161603,48.702731457032726,40
1999.51,86.1128,85.4243616625566,76.74460656693914,80.39871641408122,45.025645248475385,48.679755095617466,40
2069.82,87.3769,85.93172868577916,76.80772992513918,80.56085999387777,45.37086869190139,49.12399876063998,40
2143.07,87.4284,86.43197595525848,76.90932787976749,80.77118060533704,45.66079534992144,49.52264807549099,40
2219.24,87.839,86.71872666868389,77.0035634307534,81.05725693563188,45.661469733052,49.71516323793048,40
2296.88,88.3769,86.85191644932333,77.41690638337272,81.28640957367871,45.565506875644616,49.43501006595061,40
2378.91,89.3992,87.75112274777364,78.33376729450693,82.21823860846456,45.532884139309076,49.41735545326671,40
2462.4,89.0576,87.59059443708173,79.0568273907853,82.75928888345689,44.831305553624844,48.53376704629643,40
2548.83,88.7433,87.33262868893368,79.56990918699758,83.15573938690396,44.17688930202972,47.762719501936104,40
2639.65,89.3263,87.76860199582144,80.35846607708291,83.84504109210037,43.92356090372107,47.41013591873853,40
2731.93,89.5596,88.04419515674674,81.23351454802865,84.65045551791654,43.3937396388302,46.81068060871809,40
2828.61,89.81859999999999,88.15760729364712,81.71838565296937,85.09784469145099,43.05976260219613,46.439221640677744,40
2928.22,89.43070000000002,88.43539588452293,82.49756573780563,85.6552288825546,42.78016700196834,45.9378301467173,40
3030.76,89.1062,89.03647069001968,83.0144418141272,86.0941622985431,42.94230839147659,46.02202887589249,40
3137.7,88.86049999999999,88.64641795477245,83.55737787167352,86.35905035990176,42.28736759487069,45.08904008309892,40
3249.02,90.1195,89.44387501842922,84.1109679348631,86.95542614130925,42.48844887711998,45.33290708356613,40
3363.28,89.3645,89.37549422538913,84.7406154767027,87.35928490839778,42.01620931699135,44.63487874868643,40
3481.93,89.8076,89.38682572832649,84.72758445788399,87.53479560369327,41.85203012463322,44.65924127044249,40
3604.98,88.8402,88.94245636464277,84.96519217677564,87.7912908309285,41.15116553371426,43.97726418786712,40
3732.42,89.3569,89.2569369895568,85.19589773281542,87.99367810265106,41.263258886905746,44.06103925674138,40
3864.26,89.4817,88.71008461397044,85.124523488385,88.0910159560502,40.61906865792024,43.58556112558544,40
4000.49,90.37310000000001,89.06953656044853,85.15572141417412,88.11814909655224,40.95138746389628,43.9138151462744,40
4141.11,90.7018,89.17848931048209,85.41403805760676,88.25671622871731,40.92177308176478,43.76445125287533,40
4287.6,91.0185,88.85204900062561,85.14400590526597,87.91069955137714,40.94134944924848,43.70804309535964,40
4438.48,90.8071,89.37102920905464,85.49334685268221,88.30212932194932,41.06889988710532,43.87768235637243,40
4595.21,89.46,89.35599222047922,85.20079945699433,88.24470037601445,41.11129184446477,44.15519276348489,40
4756.35,89.5353,89.80027565147425,85.54086861884477,88.58196249009005,41.2183131613842,44.25940703262948,40
4924.8,87.7709,89.81081826340044,85.4656193708057,88.44535602584493,41.365462237555505,44.34519889259474,40
5097.66,86.8573,89.95202027051535,85.69061541052507,88.60058019334565,41.3514400771697,44.26140485999028,40
5277.83,87.903,89.82722044653885,85.80565937495932,88.71829299546287,41.10892745107597,44.02156107157953,40
5463.87,88.82270000000001,89.68263963077021,85.85340165826052,88.71442757327642,40.96821205749379,43.82923797250969,40
5657.23,89.7017,89.42532455358372,85.74840927560612,88.6589141220743,40.76641043150943,43.6769152779776,40
5856.45,89.54350000000001,89.19849043967922,85.87141813881207,88.51906160086847,40.67942883881075,43.327072300867144,40
6062.99,89.7691,89.49644822826359,85.72537910725801,88.33580371942584,41.16064450883775,43.77106912100558,40
6276.86,90.4218,89.8637072204264,85.247391447362,88.1474635026383,41.7162437177881,44.6163157730644,40
6498.05,90.3663,90.14883564223315,84.83672554255844,87.72109701001823,42.427738632214925,45.31211009967471,40
6726.56,89.9837,90.31643939232863,84.4320353738874,87.25495611172644,43.06148328060219,45.88440401844123,40
6963.87,89.22340000000001,89.70623544245318,83.81030074351911,86.65129699220354,43.05493845024964,45.89593469893407,40
7209.96,89.5679,88.90509669287923,82.91210310929678,86.01143267090463,42.8936640219746,45.99299358358245,40
7464.84,90.2426,88.30736305480329,81.99174822614485,85.4106747673329,42.89668828747038,46.31561482865844,40
7727.05,90.1658,88.23939259145746,81.74211283759367,85.44180794697267,42.797584644484786,46.49727975386379,40
7999.51,89.3978,88.03957747067746,81.2484318139761,84.93483082000218,43.10474665067528,46.79114565670136,40
8282.23,89.0646,88.16701501801909,80.84655025903172,84.61877138491461,43.54824363310448,47.32046475898737,40
8573.73,89.3422,88.45353479391589,80.65653212054288,84.47427274811238,43.97926204580351,47.797002673373015,40
8876.95,89.7744,88.82072464765362,80.75079901178395,84.67146568369769,44.14925896395593,48.069925635869666,40
9188.96,90.4339,89.22852195895554,81.03969172735552,85.1044640159678,44.12405794298773,48.18883023160002,40
9514.16,91.2236,89.62636669851277,81.48456123116537,85.67800938902617,43.948357309486596,48.141805467347396,40
9849.61,91.7336,90.29730060664365,82.35375234891644,86.4865221932379,43.81077841340574,47.9435482577272,40
10196.8,91.1099,90.5070386851365,82.61403894086698,86.72166858711891,43.78537009801758,47.89299974426952,40
10555.7,90.84230000000001,90.28085623596881,82.36298905265586,86.56777971476785,43.71307652120096,47.91786718331295,40
10927.7,90.3671,89.92501116479339,82.14659442875711,86.18781917765452,43.73719198713887,47.77841673603628,40
11313.0,89.7828,89.72948334299615,81.94108076745675,85.9930643603642,43.736418982631946,47.78840257553939,40
11712.9,90.0889,89.57748649441157,81.70693935575339,85.88688055727998,43.69060593713159,47.87054713865818,40
12126.0,90.2752,89.48036751323939,81.4512137043066,85.68571461104007,43.79465290219932,48.02915380893279,40
