Freq "Sound Power"
20.5078 53.9845436731122
21.9727 56.10714945979089
23.4375 60.37042247728684
24.9023 58.52919298294478
26.3672 61.44445569861293
27.832 64.00211923724311
29.2969 66.64718022009468
30.7617 69.10443244284716
32.2266 71.25354117961814
33.6914 73.33490258648936
35.1563 75.30752067131091
36.6211 77.1203114088555
38.0859 78.78654179651181
39.5508 80.33007086255391
41.0156 81.71388437244553
42.4805 82.9431231881761
43.9453 84.0168232051436
45.4102 84.99619554376952
46.875 85.84603781299322
48.3398 86.61692536617312
51.2695 87.79266473375289
52.7344 88.22691576352726
54.1992 88.5308170924303
55.6641 88.77465274786637
58.5938 89.13515342318534
60.0586 89.2257399859511
62.9883 89.3223278370412
64.4531 89.3390796210856
67.3828 89.39682366217906
68.8477 89.41137906817808
71.7773 89.34314182081158
74.707 89.30980424809647
77.6367 89.31321905051408
79.1016 89.34612488930802
82.0313 89.34748688603621
84.9609 89.35385060393658
87.8906 89.38396663967691
90.8203 89.41870808991351
95.2148 89.33761571858508
98.1445 89.29349551891713
101.074 89.22086318512018
105.469 89.1734185956294
108.398 89.17954959090586
112.793 89.03656190645118
117.188 88.88867037400746
120.117 89.03243254652217
124.512 89.1216255369234
128.906 89.04217824666728
133.301 88.8784734629536
139.16 88.67040290735711
143.555 88.54866622489838
147.949 88.76116937231282
153.809 88.41606498910156
159.668 88.17956219030313
165.527 87.76829151098738
171.387 88.5085622967874
177.246 88.30132691494626
183.105 88.32045726489486
188.965 88.3135569178787
196.289 88.01355017821493
203.613 87.55073315909861
210.938 87.71346436207432
218.262 87.94301757476978
225.586 87.72716646952362
232.91 87.58799660421349
241.699 87.30991807529458
250.488 87.14901635160437
259.277 87.46113529567829
268.066 87.85928342754995
276.855 86.72496228157436
287.109 86.8584511208261
297.363 87.05551952359751
307.617 86.8557684139693
319.336 86.41116586760748
329.59 86.4013075081701
341.309 86.09230721463953
353.027 86.19270704010889
366.211 85.9946035098348
379.395 86.00185917444637
392.578 85.71777536002809
405.762 85.63726034663007
420.41 85.47814429259988
435.059 85.03930107074311
451.172 84.95016727623207
465.82 84.8702923817115
483.398 84.984006400607
499.512 84.75214179772698
517.09 85.4944508296698
536.133 85.64722803542969
555.176 85.12459872250005
574.219 85.3074428477551
594.727 85.34716570715574
615.234 84.81985022325007
637.207 84.06647555296487
659.18 83.73099196397264
682.617 84.38236001221571
707.52 83.79690879180322
732.422 83.66760075852744
757.324 83.6052495443643
785.156 83.59788800670538
811.523 83.28223436788265
840.82 83.17198745413191
870.117 83.0622968906188
900.879 83.22590883209355
933.105 82.68582251709888
965.332 82.60662060989894
1000.49 82.57478686575013
1035.64 82.7093456296167
1072.27 83.00922994937075
1108.89 83.35902083422434
1148.44 83.26545714710734
1189.45 83.01513533168233
1230.47 83.07075585407347
1274.41 82.801628146382
1319.82 82.75267667012473
1366.7 83.30247061558455
1413.57 83.60930187971624
1463.38 83.68844512473248
1516.11 83.6158430168444
1568.85 83.17684472048384
1624.51 82.49244345001563
1681.64 81.4658340447718
1741.7 79.56257449443126
1803.22 78.38232655372609
1866.21 78.07349441203108
1932.13 77.64864105148057
1999.51 77.1466141426967
2069.82 77.20973750089675
2143.07 77.31133545552505
2219.24 77.40557100651097
2296.88 77.81891395913028
2378.91 78.73577487026449
2462.4 79.45883496654287
2548.83 79.97191676275514
2639.65 80.76047365284047
2731.93 81.63552212378622
2828.61 82.12039322872694
2928.22 82.8995733135632
3030.76 83.41644938988476
3137.7 83.95938544743109
3249.02 84.51297551062066
3363.28 85.14262305246027
3481.93 85.12959203364156
3604.98 85.36719975253321
3732.42 85.59790530857299
3864.26 85.52653106414256
4000.49 85.55772898993169
4141.11 85.81604563336433
4287.6 85.54601348102354
4438.48 85.89535442843977
4595.21 85.6028070327519
4756.35 85.94287619460233
4924.8 85.86762694656326
5097.66 86.09262298628263
5277.83 86.20766695071688
5463.87 86.25540923401809
5657.23 86.15041685136369
5856.45 86.27342571456964
6062.99 86.12738668301557
6276.86 85.64939902311957
6498.05 85.238733118316
6726.56 84.83404294964497
6963.87 84.21230831927667
7209.96 83.31411068505435
7464.84 82.39375580190242
7727.05 82.14412041335123
7999.51 81.65043938973366
8282.23 81.24855783478928
8573.73 81.05853969630044
8876.95 81.15280658754152
9188.96 81.44169930311308
9514.16 81.88656880692294
9849.61 82.75575992467401
10196.8 83.01604651662454
10555.7 82.76499662841343
10927.7 82.54860200451468
11313.0 82.34308834321432
11712.9 82.10894693151096
12126.0 81.85322128006416
12553.7 81.53821019906468
12996.1 81.09783937482314
13454.6 80.69886791525559
13929.2 80.33017521100753
14419.9 79.81626763569469
14928.2 79.25116612869587
15455.6 78.56135027406191
16000.5 78.02308439188991
16564.5 77.57111573194827
17148.9 77.12115579906221
17752.4 76.51391048649711
18379.4 75.89940393094577
19026.9 75.42889336726304
19697.8 75.18498950961705
19999.5 75.20950943928109
