Freq "Estimated In-Room Response"
20.5078 60.447378973874024
21.9727 63.997677350396245
23.4375 64.84623405781478
24.9023 67.10619884113991
26.3672 68.8318393128422
27.832 70.15906407939316
29.2969 71.75172768305353
30.7617 72.78256414341104
32.2266 74.13187953871741
33.6914 75.46780541982943
35.1562 76.73074488147368
36.6211 77.86320528051836
38.0859 78.86071743446833
39.5508 79.88123826692514
41.0156 80.65858832988404
42.4805 81.34483025557584
43.9453 81.980164568161
45.4102 82.57360116350323
46.875 83.13014831135128
48.3398 83.56614183909049
51.2695 84.26693837693567
52.7344 84.53250207278315
54.1992 84.76454869268686
55.6641 84.94730955604652
58.5938 85.36430331588109
60.0586 85.566233936825
62.9883 85.80730133635834
64.4531 85.93724281311711
67.3828 86.05485012332409
68.8477 86.17327579473462
71.7773 86.31152192216157
74.707 86.49120696504234
77.6367 86.72080222385725
79.1016 86.7539645524184
82.0312 86.70790087965212
84.9609 86.79946935675791
87.8906 86.94765186325108
90.8203 87.19866068148764
95.2148 86.94625353169015
98.1445 87.0594210611939
101.074 86.95562596066306
105.469 87.24471470940438
108.398 87.36413948046305
112.793 87.32837244525477
117.188 87.365470264133
120.117 87.37678460512593
124.512 87.35978269546587
128.906 87.38228513701692
133.301 87.36562674920016
139.16 87.30878249100293
143.555 87.2459466869327
147.949 87.18922591707722
153.809 87.1499104734118
159.668 87.25031295279636
165.527 87.20997702056606
171.387 87.16309230554643
177.246 86.95524123860064
183.105 86.87351256269262
188.965 86.86166957594502
196.289 86.83112334231902
203.613 86.67938999854603
210.938 86.64473014115922
218.262 86.52701249284739
225.586 86.48636505461448
232.91 86.41814167803908
241.699 86.21362358992522
250.488 86.28863383682182
259.277 86.22471176885392
268.066 85.95783597347322
276.855 85.93977421289958
287.109 85.63770722006646
297.363 85.75629360912514
307.617 85.02796860931278
319.336 86.16017324957112
329.59 86.2258025839189
341.309 85.75557766949794
353.027 85.68032770737759
366.211 85.66283612089971
379.395 85.83179046743034
392.578 85.21603690118967
405.762 84.82734372672742
420.41 85.41499881226194
435.059 85.89173318842984
451.172 86.41294566198395
465.82 86.331372832731
483.398 85.9876799833653
499.512 85.96339018694597
517.09 86.19394753890542
536.133 85.92453794018888
555.176 85.9459280595916
574.219 87.24123597040077
594.727 87.769197862947
615.234 87.05846163515221
637.207 88.19293516972711
659.18 87.40512817448813
682.617 86.32794428847156
707.52 85.58932402430982
732.422 84.81774940541725
757.324 84.52613481911065
785.156 85.37895832275551
811.523 84.30096440810335
840.82 84.55219889405653
870.117 84.56033622088412
900.879 84.97939136165088
933.105 84.46090660690386
965.332 84.87516293241042
1000.49 85.98218127932991
1035.64 85.7063034947022
1072.27 84.7882028484374
1108.89 84.14613560418054
1148.44 84.47333476036292
1189.45 84.11311337751343
1230.47 83.48918420047848
1274.41 83.3961913036661
1319.82 83.14386575389524
1366.7 83.15299114640827
1413.57 83.00987167771703
1463.38 82.86278709402768
1516.11 81.75650897480885
1568.85 80.55452378318421
1624.51 81.1493707906418
1681.64 82.362545482803
1741.7 82.65068804903407
1803.22 82.89201530056421
1866.21 82.39964513528251
1932.13 81.50793939150185
1999.51 81.48897033320243
2069.82 81.8482156683365
2143.07 82.16043702820504
2219.24 81.70447864596696
2296.88 81.00805665239747
2378.91 81.13728499301041
2462.4 82.42786739485616
2548.83 82.51654951455454
2639.65 81.71783233891321
2731.93 81.46832466968846
2828.61 82.0191627390523
2928.22 82.87930889426457
3030.76 83.29293449116541
3137.7 83.55074283615141
3249.02 83.71809002016666
3363.28 84.13261392737121
3481.93 84.50084680451612
3604.98 84.62110536094528
3732.42 84.66632248678728
3864.26 84.17464630657416
4000.49 83.71437140664288
4141.11 83.97146292825533
4287.6 84.07397280640045
4438.48 84.2230009320612
4595.21 83.9984549236745
4756.35 84.3869325067842
4924.8 84.53036223330517
5097.66 84.19622291524911
5277.83 84.28284083017213
5463.87 83.98959080733225
5657.23 83.94469703194436
5856.45 83.96754625560945
6062.99 83.95793622388366
6276.86 83.56599370836848
6498.05 83.72330140392748
6726.56 83.79473888906595
6963.87 83.5696443770244
7209.96 83.20418054051332
7464.84 82.65245580411111
7727.05 82.53401602768888
7999.51 82.33392042751943
8282.23 81.93188609823538
8573.73 81.75506628613344
8876.95 81.58234028025507
9188.96 81.72679959654535
9514.16 82.03488392655744
9849.61 82.23453996898085
10196.8 82.47516764208639
10555.7 82.54420714058584
10927.7 82.52202977963897
11313.0 82.46446935617921
11712.9 82.58369404668579
12126.0 82.53666281084314
12553.7 82.25978400648617
12996.1 81.93360286353872
13454.6 81.27490953754084
13929.2 80.49256376560166
14419.9 79.83969525228984
14928.2 79.4692163365214
15455.6 79.12578842067082
16000.5 78.73895022388547
16564.5 78.52816767759937
17148.9 78.47420734334273
17752.4 78.55271628758297
18379.4 78.42945379669112
19026.9 78.29016171996808
19697.8 78.17069096999775
19999.5 78.11747529409082
