Freq "Sound Power"
30.7617 66.66216110562605
32.2266 68.99571152986802
33.6914 71.39604771741399
35.1562 73.28297594503778
36.6211 75.43729030278102
38.0859 76.96817802289357
39.5508 78.72037730943934
41.0156 80.35729936315725
42.4805 81.8601118838988
43.9453 83.28200433813579
45.4102 84.87484438860947
46.875 86.24928363529013
48.3398 87.38280238502757
51.2695 89.28032908714378
52.7344 90.00174240055982
54.1992 90.53605318378901
55.6641 90.89456294426857
58.5938 91.45620705690492
60.0586 91.56225514176263
62.9883 91.70951153429924
64.4531 91.66337061222875
67.3828 91.64346979907323
68.8477 91.62984224221584
71.7773 91.5511508750504
74.707 91.4765975617482
77.6367 91.37558794189954
79.1016 91.33452903510828
82.0312 91.25648358700651
84.9609 91.23462195115113
87.8906 91.11729731110817
90.8203 91.11573746499106
95.2148 91.11036800870342
98.1445 91.04837239684502
101.074 91.0263245568383
105.469 91.01655626118485
108.398 90.97410109532144
112.793 90.92279028196972
117.188 90.93069152878986
120.117 91.08512210695154
124.512 91.06686872653877
128.906 91.0647568144304
133.301 91.05399820658296
139.16 90.94794253231198
143.555 90.82454782550828
147.949 90.86461272866767
153.809 90.61221983231368
159.668 90.45548831200881
165.527 90.27948916744197
171.387 90.49430751912787
177.246 90.15819352730563
183.105 90.28699649230602
188.965 90.06862736184975
196.289 90.01859372864561
203.613 89.51010263649967
210.938 89.50230727650512
218.262 89.53681164768348
225.586 89.02252375206164
232.91 88.89185515954874
241.699 88.53337834521245
250.488 88.6569474282958
259.277 88.54046934009703
268.066 88.96252280833393
276.855 88.21688545151504
287.109 88.41930170415728
297.363 88.42923801929491
307.617 88.38473768084884
319.336 87.6890651431801
329.59 87.59316693930013
341.309 87.62406827209131
353.027 87.36359839933208
366.211 87.44686281520451
379.395 87.2421819971574
392.578 86.97933658535318
405.762 87.2315733416968
420.41 86.80822683318688
435.059 86.72808372932933
451.172 86.2322168931175
465.82 86.36829744900805
483.398 86.40751952985892
499.512 86.0618425772803
517.09 85.76062763062957
536.133 85.78292268386245
555.176 85.73682695931386
574.219 86.031007170482
594.727 86.34996210253904
615.234 86.10632126052552
637.207 85.95732248351909
659.18 85.50302299904713
682.617 85.41684631466023
707.52 85.22475589769715
732.422 84.87756261321113
757.324 85.70213512355926
785.156 85.78162078285884
811.523 85.51512770546071
840.82 85.6299827617465
870.117 85.01444769877685
900.879 85.15340659228046
933.105 84.6512729058451
965.332 84.81260309159059
1000.49 84.42407584824373
1035.64 84.27671629743004
1072.27 84.23681692726615
1108.89 84.1390802346078
1148.44 84.02750565962229
1189.45 83.66265144209335
1230.47 83.60718049195386
1274.41 83.56117852092784
1319.82 83.8077964506649
1366.7 84.19049839899573
1413.57 84.477305947358
1463.38 84.61414409998694
1516.11 84.56671567846206
1568.85 84.90977339501451
1624.51 85.41607706504347
1681.64 85.6974737368338
1741.7 85.31392263040337
1803.22 84.40948638926591
1866.21 84.2379588967976
1932.13 83.9797147348256
1999.51 83.87571502020377
2069.82 84.34722400157334
2143.07 84.6815795168944
2219.24 84.07560488325181
2296.88 84.07196953325193
2378.91 84.62165426521771
2462.4 84.16047072477939
2548.83 84.04517632310123
2639.65 84.45032716564221
2731.93 84.49491133830881
2828.61 84.46658554039243
2928.22 84.41530363597327
3030.76 84.72001695415584
3137.7 84.48006565605154
3249.02 84.788461540547
3363.28 84.73923585114736
3481.93 84.90758847349498
3604.98 84.65468850634686
3732.42 84.9729612436138
3864.26 84.4325790860497
4000.49 84.5484427250882
4141.11 84.29286514649662
4287.6 84.39397209951088
4438.48 84.35279733342908
4595.21 84.25617363600581
4756.35 84.27701233756142
4924.8 84.23904758715106
5097.66 84.2924439319766
5277.83 84.19006055137062
5463.87 84.28087315871646
5657.23 84.43287993573439
5856.45 84.23242101972205
6062.99 84.18924175188333
6276.86 83.9842372050109
6498.05 83.83028341831582
6726.56 84.00690889266819
6963.87 83.87662412834543
7209.96 83.68491846767276
7464.84 83.66222153086223
7727.05 83.82201115163316
7999.51 83.79194420764213
8282.23 83.64182030757063
8573.73 83.59472670363975
8876.95 83.5598578543172
9188.96 83.7394136120226
9514.16 83.89998499217764
9849.61 84.03873073798461
10196.8 84.11303495028588
10555.7 84.06075384908512
10927.7 83.90316506913759
11313.0 83.87863084858832
11712.9 83.76427880888716
12126.0 83.70306837861439
12553.7 83.44639715026493
12996.1 83.0690562488433
13454.6 82.94117042154001
13929.2 82.95210758572064
14419.9 82.99336561145721
14928.2 83.14192886992119
15455.6 83.13097505243196
16000.5 82.82450387626474
16564.5 82.15909716224981
17148.9 81.1346670905614
17752.4 80.12962700015045
18379.4 79.22081679767426
19026.9 78.12147810621991
19697.8 76.8461144587056
19999.5 76.18127816192232
