Freq,On Axis,Listening Window,Sound Power,Early Reflections,Early Reflections DI,Sound Power DI,DI offset
22.4,57.499999999999986,57.6623382211922,65.05334548198407,60.72998179091546,46.93235643027674,42.608992739208134,50
23.0,59.2,59.29997757545583,65.67415122557013,61.96846393480355,47.331513640652275,43.6258263498857,50
23.6,60.89999999999999,61.002919341488436,66.31601350448302,63.239452069614785,47.76346727187365,44.68690583700541,50
24.0,62.499999999999986,62.624686735970315,67.0469319905976,64.4974293814153,48.12725735455501,45.577754745372715,50
25.0,64.2,64.24979196288443,67.85388584241666,65.79931183246644,48.450480130417986,46.39590612046777,50
25.8,65.8,65.91473513302209,68.7179951448603,67.1151608422734,48.799574290748694,47.196739988161795,50
26.5,67.5,67.56609555983071,69.64596368305125,68.44746134352596,49.118634216304756,47.920131876779465,50
27.2,69.0,69.08610606178705,70.59404994215343,69.73262562360887,49.35348043817818,48.49205611963362,50
28.0,71.0,71.0306237678752,71.87068872282497,71.36609557319355,49.66452819468165,49.15993504505023,50
29.0,73.09999999999998,73.15923585475925,73.41470106209982,73.2496839854103,49.909551869348945,49.74453479265942,50
30.0,74.6,74.66795310641209,74.60201635666947,74.61507629995732,50.05287680645476,50.06593674974262,50
30.7,75.8,75.8563506012561,75.54644445968263,75.68216082231167,50.174189778944424,50.309906141573464,50
31.5,76.90000000000002,76.9784901971291,76.47963892185037,76.71162766108269,50.26686253604642,50.49885127527874,50
32.5,78.3,78.2784901971291,77.63244957678454,77.96021494450598,50.318275252623124,50.646040620344564,50
33.5,79.7,79.75660903212372,78.9606814499923,79.34798495938472,50.408624072739,50.79592758213143,50
34.5,80.7,80.75660903212372,79.88145008340179,80.30834977167905,50.44825926044467,50.87515894872193,50
35.5,81.60000000000001,81.70230816861718,80.80712484053677,81.24117887039233,50.46112929822485,50.89518332808041,50
36.5,82.7,82.79181126989523,81.8470362149424,82.30125953711769,50.49055173277755,50.94477505495283,50
37.5,83.6,83.66923019986677,82.7139895254757,83.17504985422568,50.4941803456411,50.95524067439108,50
38.7,84.40000000000002,84.44600095967628,83.52634838154903,83.96614706038223,50.479853899294056,50.919652578127256,50
40.0,85.1,85.15660903212373,84.21004998260167,84.6581783411245,50.49843069099923,50.94655904952205,50
41.2,85.7,85.75660903212372,84.8351171485369,85.28303273787434,50.47357629424938,50.921491883586825,50
42.5,86.3,86.30102329580306,85.39031783175454,85.83295350845626,50.468069787346806,50.91070546404852,50
43.7,86.90000000000002,86.90102329580306,85.97130823774255,86.43289456332076,50.4681287324823,50.92971505806051,50
45.0,87.4,87.46743744105682,86.51792712226916,86.98268565458605,50.48475178647077,50.94951031878766,50
46.2,87.9,87.85583957685778,86.93580444961512,87.40217266622545,50.45366691063232,50.920035127242656,50
47.5,88.3,88.333843702321,87.43385703061983,87.89398285221661,50.439860850104395,50.89998667170117,50
48.7,88.9,88.86692185116051,88.00048834607573,88.44756634264633,50.41935550851419,50.866433505084785,50
50.0,89.3,89.31148068598391,88.45383901928211,88.89814581820488,50.41333486777903,50.857641666701795,50
51.5,89.8,89.82267658830112,89.00667480021306,89.42582138305718,50.39685520524394,50.81600178808806,50
53.0,90.4,90.38900192004665,89.59979547003225,90.00796234083111,50.38103957921554,50.789206450014404,50
54.5,90.89999999999999,90.88900192004664,90.1066532644713,90.50828697178612,50.38071494826052,50.78234865557533,50
56.0,91.3,91.26692185116049,90.50053222328164,90.89003665049873,50.37688520066176,50.76638962787885,50
58.0,91.8,91.78900192004663,91.02155411691832,91.41824553519447,50.37075638485216,50.767447803128306,50
60.0,92.3,92.31122549985842,91.55591270975862,91.94483062127864,50.36639487857978,50.75531279009981,50
61.5,92.7,92.71122549985841,91.95567314514912,92.34110370440511,50.3701217954533,50.755552354709295,50
63.0,93.00000000000001,92.9669218511605,92.19345046808444,92.59165019887638,50.37527165228413,50.77347138307607,50
65.0,93.2,93.21122549985843,92.42118901815574,92.81563827821445,50.39558722164398,50.790036481702685,50
67.0,93.39999999999999,93.41122549985842,92.60958757882334,92.99315962756998,50.41806587228844,50.80163792103508,50
69.0,93.6,93.55583957685775,92.72398097022801,93.11575677429344,50.440082802564305,50.83185860662974,50
71.0,93.7,93.65583957685777,92.80854206463138,93.21294756207494,50.44289201478283,50.84729751222639,50
73.0,93.7,93.68925841531062,92.85021454439932,93.26383677215077,50.42542164315985,50.8390438709113,50
75.0,93.8,93.78925841531063,92.9333628796455,93.35894427976778,50.430314135542844,50.85589553566513,50
77.5,93.9,93.90051167804047,93.0419032596153,93.46302720094145,50.43748447709902,50.85860841842518,50
80.0,94.10000000000001,94.06717965375995,93.21760064685533,93.650936547046,50.41624310671395,50.84957900690462,50
82.5,94.3,94.21173585711585,93.34625104704345,93.77102490259568,50.44071095452017,50.8654848100724,50
85.0,94.3,94.23461706421344,93.38835997581934,93.79689732886415,50.43771973534929,50.8462570883941,50
87.5,94.3,94.22319152961713,93.34171064506462,93.75662178911853,50.4665697404986,50.8814808845525,50
90.0,94.2,94.03461706421345,93.18130085378357,93.58417759922538,50.450439464988065,50.85331621042988,50
92.5,94.0,93.7913101041108,92.98200603094345,93.37622347896605,50.41508662514475,50.809304073167354,50
95.0,93.8,93.56924179705824,92.76530124398909,93.1569686190052,50.41227317805304,50.803940553069154,50
97.5,93.5,93.2810790494556,92.50103284423992,92.87409109631373,50.406987953141865,50.78004620521568,50
100.0,93.3,93.0810790494556,92.22017655535849,92.62188169570871,50.45919735374689,50.860902494097104,50
103.0,93.09999999999998,92.82628044162406,91.9289095476008,92.33812601456164,50.488154427062426,50.89737089402327,50
106.0,92.9,92.55015716089184,91.64263309166274,92.05766227716809,50.49249488372375,50.9075240692291,50
109.0,92.6,92.31738956077557,91.34249327770264,91.77586814248455,50.54152141829101,50.97489628307292,50
112.0,92.4,92.06232302422266,91.05749305294187,91.49399459264751,50.568328431575154,51.0048299712808,50
115.0,92.2,91.81792942580353,90.73144044662972,91.20233700476747,50.615592421036055,51.08648897917381,50
118.0,91.90000000000002,91.53018577653545,90.37077975415407,90.86941845908015,50.660767317455296,51.159406022381376,50
122.0,91.60000000000001,91.23018577653544,89.95580802190658,90.50339967035526,50.72678610618017,51.27437775462886,50
125.0,91.3,90.93018577653544,89.46741778030074,90.10008901283409,50.83009676370135,51.4627679962347,50
128.0,91.0,90.67410347218502,88.92332408907963,89.68035974219718,50.99374372998784,51.750779383105396,50
132.0,90.7,90.41712878547779,88.34688280378523,89.27096031259457,51.14616847288322,52.07024598169255,50
136.0,90.50000000000001,90.26169432147411,87.7899930265349,88.92325594590382,51.33843837557029,52.47170129493921,50
140.0,90.4,90.18380091620118,87.32004721610116,88.6717241153253,51.512076800875874,52.86375370010002,50
145.0,90.3,90.19332595649055,86.97817176111977,88.5590237362488,51.63430222024175,53.215154195370786,50
150.0,90.4,90.29332595649056,86.75511585821683,88.52822019581187,51.76510576067869,53.53821009827374,50
155.0,90.4,90.35991500869721,86.62591180642622,88.53283625182651,51.827078756870705,53.734003202271,50
160.0,90.4,90.44881481709908,86.54727634089564,88.55375976796793,51.895055049131145,53.90153847620344,50
165.0,90.4,90.4270143640224,86.46191199143593,88.51985062401378,51.90716374000861,53.96510237258647,50
170.0,90.3,90.33742662227563,86.36588895298006,88.44303093109579,51.89439569117984,53.97153766929557,50
175.0,90.2,90.19306373222187,86.26496654979087,88.31071892375557,51.8823448084663,53.928097182431,50
180.0,90.1,90.02775987090844,86.16998408055953,88.18116654003698,51.84659333087146,53.85777579034891,50
185.0,89.9,89.79255700981676,86.05957230338693,87.99727632948999,51.79528068032677,53.73298470642983,50
190.0,89.6,89.42621015383259,85.87382055042156,87.7274171276442,51.69879302618838,53.55238960341103,50
195.0,89.2,88.88458936020946,85.54946692347379,87.29292551898006,51.591663841229405,53.33512243673567,50
200.0,88.6,88.17701990091193,85.13748793738723,86.76469357952507,51.41232632138686,53.039531963524695,50
206.0,88.09999999999998,87.51869767406404,84.70569038280999,86.25691912797704,51.261778546087,52.81300729125405,50
212.0,87.7,87.11869767406404,84.33360416180192,85.8818327077059,51.23686496635814,52.78509351226212,50
218.0,87.6,87.10207746656847,84.1462251874202,85.77090982435139,51.33116764221708,52.955852279148274,50
224.0,87.6,87.36037932894546,84.1094494130987,85.82459467177019,51.53578465717527,53.250929915846754,50
230.0,87.6,87.82990003141568,84.26226132534438,86.07276410238585,51.75713592902983,53.56763870607129,50
236.0,87.8,88.33271188943208,84.5143803187246,86.41901138300128,51.9137005064308,53.81833157070747,50
240.0,88.09999999999998,88.88380137236055,84.81854419226485,86.81149426954804,52.072307102812516,54.0652571800957,50
250.0,88.5,89.37382664015679,85.12590066209711,87.21148628855191,52.16234035160488,54.24792597805968,50
258.0,88.9,89.89463411242444,85.47173790996438,87.66113956443044,52.233494547994,54.422896202460066,50
265.0,89.3,90.28647370899554,85.74994905443357,88.01190934688393,52.27456436211162,54.53652465456197,50
272.0,89.7,90.58687155987093,86.01772356134042,88.30565430755648,52.28121725231445,54.56914799853051,50
280.0,90.0,90.87047471530327,86.31859691087529,88.59838259357011,52.272092121733166,54.55187780442799,50
290.0,90.4,91.0904270631115,86.6063507764206,88.841022739065,52.24940432404651,54.48407628669091,50
300.0,90.8,91.30998473393193,86.90217889076996,89.1154997411915,52.19448499274043,54.40780584316197,50
307.0,91.2,91.5316041143565,87.21178619152978,89.4067345178332,52.1248695965233,54.319817922826715,50
315.0,91.60000000000001,91.70437779500418,87.42768629360432,89.64578712821204,52.05859066679214,54.27669150139985,50
325.0,91.99999999999999,91.88102013714312,87.6078243064615,89.84977022060369,52.03124991653944,54.27319583068163,50
335.0,92.2,91.90897572338253,87.62570893878159,89.90566085601735,52.00331486736518,54.28326678460094,50
345.0,92.3,91.86955024760691,87.49630677110866,89.84945792815937,52.02009231944754,54.373243476498246,50
355.0,92.3,91.74297058773597,87.24354462094949,89.6611447532918,52.081825834444174,54.499425966786475,50
365.0,92.1,91.47090954247389,86.9059252489971,89.35028274084247,52.12062680163142,54.5649842934768,50
375.0,91.8,91.13886473823688,86.6044672503099,89.01341076924386,52.125453968993014,54.53439748792698,50
387.0,91.4,90.75592202291885,86.36191932888607,88.69709993764282,52.058822085276034,54.39400269403278,50
400.0,91.1,90.42011390659879,86.18511159245585,88.44557818658382,51.97453572001497,54.23500231414293,50
412.0,90.8,90.02504701195144,85.98326604119002,88.18906518858044,51.835981823371,54.04178097076142,50
425.0,90.59999999999998,89.58310230960117,85.65050907695388,87.87225423981285,51.71084806978833,53.93259323264729,50
437.0,90.50000000000001,89.07861742154041,85.18872014765711,87.48251251342077,51.59610490811964,53.88989727388331,50
450.0,90.2,88.54476254151288,84.60589355587624,87.05282170360968,51.4919408379032,53.938868985636645,50
462.0,89.8,88.12293125958418,83.98832313397808,86.63842653185621,51.484504727727966,54.13460812560609,50
475.0,89.40000000000002,87.96661276285279,83.49406742662917,86.40155497836228,51.565057784490506,54.47254533622362,50
487.0,89.2,88.116937471351,83.25718233696776,86.37879594132365,51.73814153002735,54.859755134383235,50
500.0,89.2,88.50896721827873,83.35031321255471,86.6263553390997,51.882611879179024,55.15865400572402,50
515.0,89.40000000000002,89.03703464860789,83.68726910600795,87.03412597133986,52.002908677268024,55.34976554259994,50
530.0,89.9,89.5634544930051,84.04550606391183,87.47446209450452,52.08899239850058,55.517948429093266,50
545.0,90.3,89.92402281150036,84.24568341582149,87.73452875928136,52.189494052219004,55.678339395678876,50
560.0,90.59999999999998,90.18245572708416,84.30792057914958,87.90212426267901,52.28033146440515,55.87453514793458,50
580.0,90.7,90.20631279667408,84.18638148343385,87.84763958935883,52.35867320731525,56.019931313240235,50
600.0,90.50000000000001,90.16754700641442,84.03245939431564,87.73659048295211,52.430956523462314,56.135087612098786,50
615.0,90.3,90.13816174607149,83.97451508808643,87.68146034167621,52.456701404395275,56.163646657985055,50
630.0,90.0,90.21762666704974,84.03798826421597,87.71163834738596,52.505988319663786,56.179638402833774,50
650.0,89.9,90.49524671466538,84.23058946209574,87.84410721937572,52.65113949528967,56.26465725256965,50
670.0,90.1,90.89389883774497,84.45593670072236,88.06982843902313,52.824070398721844,56.43796213702261,50
690.0,90.4,91.2601393051291,84.61472242368201,88.2706417404007,52.989497564728396,56.64541688144709,50
710.0,91.0,91.53968984934691,84.6377622056281,88.39676870718193,53.14292114216498,56.90192764371881,50
730.0,91.60000000000001,91.58305602395568,84.50334871346087,88.36017467027669,53.222881353678986,57.07970731049481,50
750.0,91.90000000000002,91.40822849110994,84.20600923057327,88.14091507374476,53.26731341736517,57.202219260536666,50
775.0,92.2,91.15226834694793,83.82725902521035,87.82588286469898,53.32638548224895,57.32500932173758,50
800.0,92.2,90.81197017258924,83.42428367848014,87.47370966694605,53.33826050564319,57.387686494109104,50
825.0,91.99999999999999,90.44294621032583,83.04154777424155,87.08214675159121,53.36079945873462,57.40139843608428,50
850.0,91.8,90.18528251851906,82.8342063987546,86.83748312287698,53.347799395642085,57.35107611976446,50
875.0,91.60000000000001,90.05200177357244,82.77194900553444,86.70034587695487,53.35165589661757,57.280052768038004,50
900.0,91.2,89.93485946757261,82.82947699371937,86.65112473211062,53.28373473546199,57.10538247385324,50
925.0,90.7,89.91646670598742,82.98153644612294,86.70307658971787,53.21339011626955,56.93493025986447,50
950.0,90.0,89.93590353555525,83.10480793311261,86.7793132539531,53.15659028160215,56.831095602442645,50
975.0,89.40000000000002,90.05813539537405,83.15629251195365,86.886872917383,53.17126247799105,56.9018428834204,50
1000.0,89.0,90.12089732179952,83.04901812874506,86.9119209729248,53.208976348874714,57.07187919305446,50
1030.0,89.10000000000001,89.96671946969325,82.76359434153187,86.79902294532704,53.16769652436621,57.203125128161375,50
1060.0,89.7,89.67896232143495,82.43402181315012,86.63331988988058,53.04564243155437,57.24494050828483,50
1090.0,90.4,89.47979473469347,82.13926402788813,86.46796387120779,53.011830863485685,57.34053070680534,50
1120.0,91.1,89.53773061370461,82.02092966761337,86.4405836694821,53.097146944222516,57.51680094609124,50
1150.0,91.7,89.83921267325968,81.9851895564366,86.5419144192929,53.29729825396679,57.854023116823086,50
1180.0,91.99999999999999,90.24272623727676,81.98954719485998,86.6649064643485,53.57781977292825,58.253179042416775,50
1220.0,92.1,90.62906367300677,82.09382290330926,86.84861398912668,53.78044968388009,58.53524076969751,50
1250.0,91.8,90.76018650394863,82.10670257156343,86.86571508067074,53.89447142327789,58.6534839323852,50
1280.0,91.1,90.6558436083604,81.98088407962878,86.66466256505161,53.991181043308785,58.67495952873162,50
1320.0,90.3,90.3255905391,81.67189701196428,86.27202024327752,54.05357029582248,58.65369352713573,50
1360.0,89.8,89.86020136966147,81.14632798813125,85.71749502178086,54.142706347880605,58.71387338153022,50
1400.0,89.6,89.30602069950737,80.43101894766066,85.05160074919536,54.25441995031201,58.87500175184671,50
1450.0,89.7,88.8251407780211,79.67921928478623,84.39356905470693,54.431571723314164,59.145921493234866,50
1500.0,89.9,88.38648327360649,78.97873979948979,83.82250939239272,54.56397388121377,59.4077434741167,50
1550.0,89.8,88.01791928282034,78.39406607176394,83.34086972478745,54.67704955803289,59.6238532110564,50
1600.0,89.49999999999999,87.6769269072338,77.92497974600613,82.93751611608995,54.739410791143854,59.751947161227676,50
1650.0,89.10000000000001,87.46370372014093,77.65786434516761,82.67898529591609,54.784718424224835,59.80583937497332,50
1700.0,88.9,87.45938004538317,77.59924308611373,82.60363667286047,54.855743372522696,59.86013695926944,50
1750.0,89.0,87.66885880435275,77.74129869829983,82.75202311922064,54.916835685132114,59.92756010605292,50
1800.0,89.40000000000002,87.91297661166887,77.93684697584776,82.95533371967457,54.9576428919943,59.97612963582111,50
1850.0,90.0,88.23549695701438,78.19595476572657,83.23619223539708,54.99930472161729,60.03954219128781,50
1900.0,90.50000000000001,88.43052583022906,78.39367225911148,83.38720440628776,55.04332142394129,60.036853571117575,50
1950.0,90.7,88.38099423563229,78.45520504283373,83.29264661074704,55.088347624885245,59.92578919279856,50
2000.0,90.59999999999998,88.19974247549303,78.52591327465666,83.07610163595531,55.123640839537714,59.673829200836366,50
2060.0,90.2,87.9775407218913,78.63844838939703,82.86350117140738,55.11403955048392,59.339092332494275,50
2120.0,89.7,87.7281776225802,78.72022713674527,82.59487923736789,55.13329838521231,59.00795048583494,50
2180.0,89.6,87.72483962902162,78.94674689036842,82.60759801651851,55.11724161250311,58.7780927386532,50
2240.0,89.7,87.84229142124681,79.15761146925135,82.77297212063151,55.069319300615305,58.68467995199546,50
2300.0,89.8,87.94352379675567,79.23271571765676,82.92174291997263,55.02178087678304,58.71080807909891,50
2360.0,89.8,88.00007755963425,79.27977220343477,83.06342125955885,54.9366563000754,58.720305356199475,50
2400.0,89.49999999999999,87.93892045312498,79.24325072698343,83.10164586539351,54.83727458773147,58.695669726141546,50
2500.0,89.2,87.9089416645585,79.25533938257915,83.1213192157749,54.787622448783594,58.653602281979346,50
2580.0,89.2,88.10899282232023,79.47021786202613,83.32860220992039,54.78039061239984,58.6387749602941,50
2650.0,89.3,88.40608407250924,79.76359329217635,83.61604226901026,54.79004180349898,58.64249078033289,50
2720.0,89.49999999999999,88.72922333619229,79.97789017254378,83.88331059316154,54.84591274303075,58.75133316364851,50
2800.0,89.6,88.93602128476913,80.04647672992819,84.00903175075314,54.92698953401599,58.88954455484094,50
2900.0,89.8,88.98635295836355,79.96841656819409,83.97749185567521,55.00886110268834,59.01793639016947,50
3000.0,90.0,89.08782962111293,79.96979233925406,84.00163777522617,55.08619184588676,59.118037281858875,50
3070.0,90.4,89.32887864281481,80.17286498953042,84.22953580052611,55.099342842288706,59.15601365328439,50
3150.0,90.59999999999998,89.57880679773443,80.43237332531774,84.51039968319407,55.06840711454036,59.14643347241669,50
3250.0,90.8,89.83662614385813,80.74890711811871,84.83032649682038,55.00629964703775,59.08771902573942,50
3350.0,90.89999999999999,89.93766323081418,80.96516862659352,85.03608838098947,54.90157484982471,58.97249460422066,50
3450.0,91.0,89.99797794339658,81.2014432977431,85.24878656885447,54.74919137454211,58.79653464565348,50
3550.0,91.2,90.0644194135992,81.43214488258708,85.43562230747531,54.62879710612388,58.632274531012115,50
3650.0,91.4,90.24469296640183,81.68212418994742,85.69237478471356,54.552318181688264,58.56256877645441,50
3750.0,91.5,90.36218971434485,81.83238244179145,85.84135302506517,54.520836689279676,58.5298072725534,50
3870.0,91.4,90.33318385651002,81.75361120858871,85.76316456488873,54.57001929162129,58.57957264792131,50
4000.0,91.1,90.11891190662719,81.45680382440331,85.47157412750776,54.647337779119425,58.66210808222388,50
4120.0,90.59999999999998,89.6756908500406,80.92325708926982,84.94182369825837,54.73386715178222,58.75243376077077,50
4250.0,90.2,89.23494121377084,80.28546149845545,84.35968007427498,54.87526113949586,58.94947971531539,50
4370.0,89.9,88.7814319465827,79.63405576437212,83.79923662118797,54.98219532539473,59.14737618221058,50
4500.0,89.7,88.55493752908578,79.18807259882293,83.38125495575893,55.17368257332684,59.36686493026285,50
