Freq "Estimated In-Room Response"
20.5078 55.99719855379426
21.9727 57.314750453702985
23.4375 57.530060972420856
24.9023 58.7932577031868
26.3672 60.33017001545143
27.832 61.079713593380816
29.2969 61.784201979972366
30.7617 62.559093291020886
32.2266 63.25275285911793
33.6914 64.00030606190195
35.1562 64.78034247862588
36.6211 65.44465638099855
38.0859 66.15795928062967
39.5508 66.87307749534163
41.0156 67.50947106423705
42.4805 68.11010571335967
43.9453 68.74099319760747
45.4102 69.35329989775829
46.875 69.97195581803682
48.3398 70.51498282803553
51.2695 71.5122230430775
52.7344 72.0587544870109
54.1992 72.59749727241581
55.6641 73.10172600407076
58.5938 74.10489924922702
60.0586 74.55528898005367
62.9883 75.53917916716888
64.4531 76.0151871055006
67.3828 76.9221222997033
68.8477 77.40245459389311
71.7773 78.3305333722606
74.707 79.23717320331203
77.6367 80.1295708915542
79.1016 80.58351593713822
82.0312 81.46674485947298
84.9609 82.32618380461803
87.8906 83.07074001050897
90.8203 83.66927249113023
95.2148 84.79319650289206
98.1445 85.56558575134974
101.074 86.2786874530907
105.469 87.3097721475735
108.398 87.9857821060448
112.793 88.91976056287217
117.188 89.68533168438232
120.117 90.11805973877027
124.512 90.70151210941691
128.906 91.10976937825686
133.301 91.32435405467119
139.16 91.41833950743437
143.555 91.37669268730737
147.949 91.27975994238892
153.809 91.11975678264186
159.668 90.79408502280063
165.527 90.16491618958126
171.387 90.13850425619138
177.246 90.15499425260418
183.105 89.80143656504497
188.965 89.58474497244848
196.289 89.38744069935048
203.613 89.02919661833322
210.938 88.78376291907095
218.262 88.61625528673143
225.586 88.4469999535407
232.91 88.28707471995422
241.699 88.00265349145701
250.488 87.87312481920256
259.277 87.60126578939786
268.066 87.44898355694244
276.855 87.45345238663808
287.109 87.57005862055404
297.363 87.25265720494416
307.617 87.27261036851263
319.336 86.97304078973053
329.59 86.83292008081976
341.309 86.78962328853443
353.027 86.62491032447728
366.211 86.47544683784874
379.395 86.50100353284616
392.578 86.56813578274365
405.762 86.40476954537466
420.41 86.18113180192265
435.059 86.08799295859643
451.172 86.2364895848757
465.82 86.04771429940587
483.398 86.14087504396899
499.512 86.21119231641583
517.09 86.27326993665754
536.133 86.24465663578867
555.176 86.20137350892266
574.219 86.14033099027412
594.727 86.09906237089449
615.234 86.07685710775182
637.207 86.00941105347734
659.18 85.93836782188556
682.617 86.0069422842438
707.52 85.80665836935891
732.422 85.59079403943265
757.324 85.39379053453506
785.156 85.10467071981279
811.523 85.47938989867977
840.82 85.83850984971893
870.117 85.65320215622944
900.879 85.41142920569443
933.105 85.14425467963183
965.332 84.91717506637207
1000.49 84.76882729223063
1035.64 84.53191325703524
1072.27 84.30342207345599
1108.89 84.02212054575325
1148.44 83.87357760477722
1189.45 83.53835735060137
1230.47 83.37767967262302
1274.41 83.21856214060846
1319.82 82.8782887385435
1366.7 82.76220075567142
1413.57 82.64821046800155
1463.38 82.51672425684883
1516.11 82.71846279375407
1568.85 82.84859922553223
1624.51 83.03035777637052
1681.64 82.85603071307888
1741.7 82.97801686308392
1803.22 82.68710987325949
1866.21 82.75573417813393
1932.13 82.63820249559485
1999.51 82.89480950050338
2069.82 82.91748305482804
2143.07 82.87529307744502
2219.24 82.99060174631116
2296.88 82.93687666142849
2378.91 82.84848874144306
2462.4 82.69833082411449
2548.83 82.68910578991513
2639.65 82.62490178534487
2731.93 82.67464189245776
2828.61 82.82307208510501
2928.22 82.89569482445974
3030.76 83.09770872390689
3137.7 83.39386626755292
3249.02 83.75471047273378
3363.28 84.18053507917703
3481.93 84.49985465316377
3604.98 84.71304324930753
3732.42 84.839901254026
3864.26 84.91596793571523
4000.49 84.88422696275849
4141.11 84.87373926955658
4287.6 84.85474881330053
4438.48 84.82213227376006
4595.21 84.86971959424639
4756.35 84.8752350725145
4924.8 84.94172474801245
5097.66 85.01009168917035
5277.83 85.00387000830752
5463.87 84.99795943717642
5657.23 85.01023172344536
5856.45 85.04059150171341
6062.99 85.2951512799198
6276.86 85.60603193979993
6498.05 85.89085298896524
6726.56 86.05970631048262
6963.87 85.97148049481109
7209.96 85.82040229055379
7464.84 85.78532898408493
7727.05 85.79611356314498
7999.51 85.7475973447068
8282.23 85.7261438765882
8573.73 85.67961739262545
8876.95 85.66620473758853
9188.96 85.62282762100791
9514.16 85.55561851759289
9849.61 85.37835331190234
10196.8 84.99078348724217
10555.7 84.40969353116456
10927.7 84.02558816650641
11313.0 83.96975722567863
11712.9 84.1784559303516
12126.0 84.2021823948738
12553.7 84.73199571353719
12996.1 85.20261382708513
13454.6 85.29288780181393
13929.2 84.63627339148096
14419.9 83.27626148232181
14928.2 81.76781601411038
15455.6 83.07645616002013
16000.5 83.59411723866975
16564.5 82.7401513133275
17148.9 81.19211765659617
17752.4 79.11340220366368
18379.4 77.12083097284052
19026.9 75.42050394895816
19697.8 74.34119046418162
19999.5 74.19739741959553
