Freq,On Axis,Listening Window,Sound Power,Early Reflections,Early Reflections DI,Sound Power DI,DI offset
20.0,15.258537410003015,15.161356099448028,15.022405366352814,15.233831920999222,19.927524178448806,20.138950733095214,20
20.2909,16.110284549634002,16.01489303862462,15.874748029900502,16.09019211566681,19.92470092295781,20.14014500872412,20
20.586,17.190449726180105,17.100393884878912,16.957175387428066,17.177609071373922,19.92278481350499,20.143218497450846,20
20.8855,18.43851811993551,18.356023723010537,18.209133916267234,18.43518804083837,19.920835682172168,20.146889806743303,20
21.1893,19.675219309320823,19.601207545123145,19.449870365441853,19.681663775923766,19.91954376919938,20.151337179681292,20
21.4975,20.76613364019542,20.70319936552889,20.547270108325023,20.78537431846587,19.91782504706302,20.155929257203866,20
21.8102,21.693856655153212,21.643074285302873,21.482517797056005,21.726469435149113,19.91660485015376,20.16055648824687,20
22.1274,22.478911875003092,22.441851155482823,22.277351564619295,22.527129553752474,19.91472160173035,20.164499590863528,20
22.4492,23.184829520374933,23.161735995187456,22.993600738259914,23.248498378822177,19.91323761636528,20.168135256927542,20
22.7758,23.897050771803464,23.889389233439232,23.71874368528819,23.977887076159618,19.911502157279614,20.170645548151043,20
23.1071,24.702508318083318,24.709034559187245,24.536975879473943,24.799488146501233,19.909546412686012,20.172058679713302,20
23.4432,25.636117891290013,25.65701752034849,25.4854274974075,25.750254225420463,19.906763294928027,20.17159002294099,20
23.7841,26.659782089348568,26.69344245187449,26.52369718200589,26.789498657567663,19.903943794306826,20.1697452698686,20
24.1301,27.68641445213271,27.732119253202114,27.565585552079114,27.831118467179408,19.901000786022706,20.166533701123,20
24.4811,28.65894970812846,28.714892280449362,28.553221347896425,28.81736423674613,19.897528043703232,20.161670932552937,20
24.8372,29.557387283300443,29.621835201571514,29.467239090058314,29.72836844489089,19.893466756680624,20.1545961115132,20
25.1984,30.3992436089479,30.468958617529466,30.32209886446057,30.579375544872107,19.88958307265736,20.146859753068895,20
25.5649,31.22007782691125,31.29367206727676,31.156144074188575,31.408232656718184,19.885439410558575,20.137527993088185,20
25.9368,32.0575000287823,32.1329805811946,32.005777925307456,32.251823994747014,19.881156586447588,20.127202655887146,20
26.3141,32.938110638274196,33.01183128582255,32.89547885692505,33.134916009859154,19.8769152759634,20.1163524288975,20
26.6968,33.8605167947249,33.93131883828974,33.825907679999574,34.058118509544926,19.873200328744815,20.105411158290167,20
27.0851,34.81526917639357,34.88108418330586,34.78664176452429,35.01157792941305,19.86950625389281,20.09444241878157,20
27.4791,35.78538688291533,35.84508976927128,35.761215717612714,35.978878232748855,19.866211536522428,20.08387405165857,20
27.8788,36.760812425729455,36.81306746683708,36.739029981501204,36.94968351606187,19.863383950775216,20.07403748533588,20
28.2843,37.73141906715128,37.77633196533438,37.71227504865789,37.91646281853315,19.85986914680123,20.064056916676492,20
28.6957,38.689020137323325,38.726925300887075,38.671070696607416,38.869598021593504,19.85732727929357,20.05585460427966,20
29.1131,39.62698091444628,39.65800916867053,39.61018185098348,39.803408568736614,19.854600599933917,20.04782731768705,20
29.5365,40.539141874118684,40.56586561039015,40.52550324285522,40.714276872039335,19.851588738350813,20.040362367534925,20
29.9661,41.430353402940625,41.45467138840522,41.420862830830316,41.60596843687236,19.848702951532857,20.0338085575749,20
30.402,42.307491797036334,42.33129936370642,42.30475976319886,42.48688774222546,19.84441162148096,20.02653960050756,20
30.8442,43.187215925497924,43.21243212482332,43.19375480181773,43.3727015452219,19.839730579601422,20.01867732300559,20
31.2929,44.072009210047696,44.101414800125355,44.090986159511914,44.26725593614353,19.834158863981827,20.01042864061344,20
31.748,44.96051216005267,44.996453696860186,44.99513213678924,45.168354913604816,19.82809878325537,20.00132156007095,20
32.2098,45.845894267516,45.889160946833954,45.89868547728088,46.06826340899329,19.820897537840665,19.990475469553076,20
32.6783,46.72224725600557,46.77471378795097,46.79542892398618,46.960915280891555,19.813798507059417,19.979284863964793,20
33.1536,47.58369673228546,47.64531931408962,47.67884535532103,47.83951760561081,19.80580170847881,19.96647395876859,20
33.6359,48.42880927285903,48.49873756213694,48.54561724877429,48.70040847353265,19.79832908860429,19.953120313362646,20
34.1251,49.254085548467955,49.331568949631404,49.39181695531582,49.53984220411009,19.791726745521316,19.939751994315586,20
34.6215,50.06457693728818,50.1488612463059,50.22166136935243,50.36255185362708,19.786309392678817,19.927199876953466,20
35.125,50.865283259540504,50.95379682519024,51.03769218634244,51.17069705669421,19.78309976849603,19.9161046388478,20
35.6359,51.65810718463774,51.74867752214004,51.84197597082479,51.966999491984495,19.781678030155547,19.90670155131525,20
36.1543,52.441555483309145,52.53211616024471,52.63165973606502,52.74898379624818,19.78313236399653,19.900456424179694,20
36.6802,53.20962453340567,53.29774766559953,53.400025330889505,53.510205357501874,19.787542308097656,19.897722334710025,20
37.2137,53.955729833393946,54.04039102559199,54.141778944516545,54.24562070737794,19.79477031821405,19.89861208107544,20
37.755,54.68535529927286,54.765620297449814,54.86272357803395,54.96159755948884,19.804022737960977,19.902896719415864,20
38.3041,55.40042825882891,55.47517725108523,55.56493558102213,55.65992210270629,19.815255148378938,19.9102416700631,20
38.8613,56.09994664243678,56.17068600752626,56.250721028038285,56.343004107220835,19.82768190030542,19.919964979487972,20
39.4265,56.77183720310509,56.83929755024624,56.908587123639066,56.999774484301724,19.83952306594452,19.930710426607178,20
40.0,57.41762453340567,57.48302564010319,57.54232687160692,57.63289079524367,19.850134844859525,19.940698768496276,20
40.5818,58.046288482717074,58.11112134680636,58.161703047265206,58.25222185735839,19.858899489447964,19.94941829954115,20
41.1721,58.66391558426835,58.73030575041746,58.77573669170104,58.86597310064964,19.864332649767817,19.954569058716416,20
41.771,59.25949604800044,59.32806534205031,59.372168137980026,59.461635659483036,19.866429682567272,19.955897204070283,20
42.3785,59.80612828411316,59.87688695724765,59.925043217411485,60.01257146673906,19.864315490508588,19.951843739836164,20
42.9949,60.30230266049543,60.37640122105147,60.43322848724175,60.517872587715544,19.858528633335922,19.943172733809718,20
43.6203,60.77456410892316,60.85061084266067,60.920528201100524,61.00064477940978,19.84996606325089,19.930082641560148,20
44.2548,61.25638728330047,61.333384999421895,61.41977334496538,61.494175456862365,19.83920954255953,19.913611654456517,20
44.8985,61.75126525240243,61.82737755133533,61.9331458257754,62.00050181231319,19.826875739022142,19.894231725559933,20
45.5515,62.240203084839635,62.31288521137843,62.438467803748026,62.49783782771479,19.81504738366364,19.874417407630403,20
46.2141,62.70867064810258,62.77686865537527,62.92178230593717,62.972667350246326,19.80420130512894,19.855086349438096,20
46.8863,63.16416624452246,63.225404204215636,63.386944345247656,63.429487596214486,19.79591660800115,19.83845985896798,20
47.5683,63.61667962794303,63.67071281728866,63.84505801900099,63.87949606553627,19.791216751752387,19.825654798287673,20
48.2602,64.06520308483964,64.11164382588034,64.29391532533552,64.32130492503704,19.790338900843295,19.817728500544817,20
48.9621,64.49922288642401,64.5378984306622,64.72346595431361,64.7445622034738,19.79333622718839,19.814432476348586,20
49.6743,64.91223313256907,64.9450719563176,65.12872479773091,65.14517629852784,19.79989565778976,19.816347158586694,20
50.3968,65.30322288642402,65.33193628301339,65.51022836797459,65.5230854252686,19.808850857744787,19.8217079150388,20
51.1299,65.6736982783413,65.7006823248866,65.87083365536115,65.88152655378937,19.81915577109723,19.829848669525447,20
51.8736,66.01965337914388,66.04711025458545,66.20761246245092,66.21714903973131,19.829961214854137,19.839497792134523,20
52.6281,66.34160709810878,66.37293658143238,66.52564176614365,66.53460236434205,19.838334217090335,19.847294815288734,20
53.3936,66.64607195538677,66.68220055085742,66.82974185619763,66.83832235647508,19.84387819438234,19.852458694659788,20
54.1702,66.93305077180344,66.97601563933785,67.12308308829755,67.13067676162984,19.845338877708002,19.852932551040297,20
54.9581,67.20505077180346,67.25661647022011,67.40876780411608,67.41444768450363,19.84216878571648,19.847848666104028,20
55.7575,67.46407782691124,67.52534988546847,67.68834238634574,67.69046047545152,19.834889410016956,19.837007499122734,20
56.5685,67.713157610043,67.78504625333434,67.96316899759589,67.95997942997366,19.825066823360686,19.821877255738457,20
57.3914,67.94679360176536,68.02850697731284,68.22462901674228,68.2144403192614,19.814066658051445,19.80387796057056,20
58.2261,68.15699391456049,68.24784866598534,68.46223927961562,68.44400246421488,19.80384620177047,19.785609386369728,20
59.073,68.33370040873166,68.4310838393377,68.66166084063188,68.63452888075199,19.796554958585716,19.76942299870582,20
59.9323,68.47879307715877,68.57941041473907,68.82081020950298,68.785089393879,19.794321020860068,19.758600205236093,20
60.804,68.60517373034072,68.7037005930322,68.94870937439978,68.90573167775364,19.79796891527856,19.754991218632412,20
61.6884,68.71689398917744,68.80774063389937,69.04908890112057,69.00095508144562,19.806785552453746,19.7586517327788,20
62.5857,68.80709682298362,68.88522144810347,69.11729408419998,69.06598817332193,19.81923327478154,19.767927363903482,20
63.496,68.87800287823072,68.93889358858623,69.15969481073134,69.10666708746001,19.832226501126215,19.779198777854887,20
64.4196,68.93966189850258,68.98124427856474,69.19277332642142,69.1381760755158,19.843068203048944,19.788470952143328,20
65.3566,69.00341445213269,69.02867553583434,69.2361019020113,69.17918872286725,19.849486812967086,19.79257363382304,20
66.3073,69.07754810732278,69.09159958292074,69.30315171899034,69.24189733850972,19.84970224441102,19.7884478639304,20
67.2717,69.15945693198651,69.1716743082618,69.39419716135137,69.3264202710718,19.845254037190003,19.777477146910428,20
68.2502,69.24023313256905,69.25914053810564,69.49799905428166,69.42255530798528,19.836585230120363,19.761141483823977,20
69.2429,69.32406631411314,69.35777176945302,69.61315535364062,69.53054532376733,19.827226445685696,19.744616415812402,20
70.2501,69.40851039040695,69.45942865909527,69.72791101166699,69.64039194929754,19.81903670979773,19.731517647428277,20
71.2719,69.48200932546294,69.54723174115315,69.82178358193202,69.73333127825649,19.81390046289667,19.72544815922113,20
72.3086,69.54158084901736,69.60993317450773,69.88484025312215,69.7988737524017,19.811059422106027,19.72509292138558,20
73.3603,69.57438728330048,69.63377088644162,69.903614320546,69.82255374129609,19.811217145145534,19.730156565895626,20
74.4274,69.59450641098394,69.630947652984,69.89754031049394,69.82074331768608,19.810204335297925,19.733407342490068,20
75.5099,69.61563014140489,69.62359232440332,69.8913213785289,69.81521203260505,19.808380291798272,19.73227094587442,20
76.6083,69.62928428785929,69.61423608278295,69.89033906204638,69.80909625489053,19.80513982789242,19.723897020736572,20
77.7226,69.66634272924117,69.6447933668656,69.93375252903265,69.84210189546702,19.802691471398575,19.711040837832954,20
78.8531,69.73963041729431,69.73458062683002,70.03643247082485,69.931853100356,19.80272752647403,19.698148156005175,20
80.0,69.83664509002743,69.8695592840619,70.17885652916792,70.06294049770793,19.80661878635398,19.69070275489399,20
81.1636,69.93800414465184,70.02153580618238,70.32809898795924,70.20613380208518,19.81540200409721,19.693436818223148,20
82.3442,70.01800287823073,70.14950952791025,70.44491317261921,70.32384518058566,19.82566434732459,19.704596355291045,20
83.5419,70.0800018420678,70.24240212162447,70.52155545620235,70.40696405187064,19.83543806975382,19.720846665422116,20
84.757,70.11957486236768,70.28907898485994,70.55426293202841,70.44806540919139,19.841013575668555,19.734816052831533,20
85.9899,70.14573834197931,70.30040666299885,70.55836517848616,70.45815045547202,19.84225620752683,19.742041484512697,20
87.2406,70.16488063497788,70.29443876042244,70.55435655354947,70.45541994347175,19.839018816950684,19.74008220687297,20
88.5096,70.20541445213269,70.31098198086029,70.57834815034559,70.47592718605995,19.835054794800342,19.7326338305147,20
89.797,70.26188063497787,70.35276778899387,70.62881417049144,70.5211586859696,19.831609103024277,19.723953618502435,20
91.1031,70.3123872833005,70.39748261626397,70.67790965788055,70.56655755072794,19.830925065536036,19.719572958383424,20
92.4282,70.33396421339704,70.41703533861246,70.69553588066793,70.58373756824189,19.833297770370578,19.72149945794453,20
93.7726,70.32005607934803,70.39886757316472,70.67139669784825,70.56175476903448,19.837112804130243,19.72747087531647,20
95.1366,70.27407219604797,70.34376278236742,70.60958641111634,70.5022204502454,19.841542332122017,19.73417637125108,20
96.5204,70.24945693198649,70.31048214030969,70.572670924135,70.46523546714096,19.84524667316873,19.73781121617469,20
97.9243,70.24732339004933,70.30491902300403,70.56725248812586,70.45729999810868,19.84761902489535,19.737666534878173,20
99.3486,70.25977080716044,70.32334704896186,70.58803742335544,70.47487876171381,19.848468287248053,19.73530962560642,20
100.794,70.26936103533801,70.34503087193706,70.61223453944666,70.4975806289896,19.84745024294746,19.732796332490395,20
102.26,70.27259680271827,70.36084272005873,70.62907532926138,70.5158485709309,19.844994149127828,19.731767390797344,20
103.747,70.26934156927305,70.3643862515125,70.63267067158904,70.5222726094692,19.8421136420433,19.73171557992346,20
105.256,70.27040165870383,70.36304774896746,70.63188418901426,70.5232503595041,19.839797389463357,19.731163559953202,20
106.787,70.28271848205632,70.3656027167381,70.63591012030926,70.52670543564146,19.838897281096635,19.729692596428833,20
108.34,70.28651679472489,70.35896874619637,70.63056162604957,70.51896030461735,19.840008441579016,19.728407120146798,20
109.916,70.25294970812845,70.3189646184399,70.59144929049403,70.47739297051612,19.841571647923786,19.72751532794588,20
111.515,70.18854810732279,70.25549013457116,70.52643547260546,70.4114317145455,19.84405842002566,19.729054661965705,20
113.137,70.14522760503715,70.22228599979336,70.49046042948342,70.37600990267799,19.846276097115364,19.731825570309937,20
114.783,70.11385144032391,70.20394114216472,70.46986549341896,70.35595420125935,19.847986940905372,19.73407564874576,20
116.452,70.08183175576451,70.18007943453739,70.44563335003124,70.3317096633893,19.848369771148086,19.734446084506146,20
118.146,70.05326467241142,70.15152419304252,70.41830935525763,70.30428921991167,19.847234973130853,19.733214837784885,20
119.865,70.03422760503713,70.12320487128365,70.39013959319544,70.27668522780338,19.846519643480264,19.733065278088205,20
121.608,70.01222760503714,70.09189392115289,70.35679334067247,70.24398221403897,19.847911707113923,19.73510058048042,20
123.377,69.99868256559125,70.07487994410607,70.33582034594741,70.2221472382498,19.85273270585627,19.73905959815866,20
125.171,69.9916304172943,70.06971660381822,70.32868969157212,70.2121257336355,19.85759087018272,19.7410269122461,20
126.992,69.9816304172943,70.06308177809855,70.32440189622571,70.20375173036783,19.859330047730722,19.73867988187284,20
128.839,69.96324602363458,70.04434820508173,70.31121347332063,70.18792311752088,19.85642508756085,19.733134731761098,20
130.713,69.92738139872782,70.00760034906455,70.27800021656687,70.15502992395484,19.852570425109704,19.72960013249768,20
132.615,69.87742214884278,69.95668392273828,70.22517681167861,70.10433291604711,19.852351006691165,19.73150711105967,20
134.543,69.83685144032393,69.91691561835253,70.1800670137544,70.06081061278132,19.85610500557121,19.736848604598137,20
136.5,69.81336136891684,69.89074462462432,70.1526500484639,70.03347469845495,19.857269926169366,19.73809457616042,20
138.486,69.78503895867085,69.8575875614163,70.12442007739466,70.00443093073926,19.853156630677034,19.733167484021635,20
140.5,69.7357812913759,69.80439531295487,70.07835170920478,69.95764433523591,19.846750977718955,19.726043603750085,20
142.544,69.69580569393227,69.76221126449008,70.03853285416078,69.91750514510791,19.844706119382167,19.7236784103293,20
144.617,69.68059435555364,69.74374886408077,70.01618036064649,69.89502269201176,19.848726172069007,19.727568503434284,20
146.721,69.64289149994534,69.70314623335133,69.96996253478144,69.84847273183136,19.85467350151997,19.73318369856989,20
148.855,69.63044286914248,69.69439116666494,69.95881241867113,69.83752558809266,19.856865578572283,19.735578747993813,20
151.02,69.6506169170582,69.72000046532217,69.9849538892178,69.86443135203191,19.855569113290258,19.735046576104367,20
153.217,69.64210560753826,69.70759942071422,69.97233482725557,69.85264820085,19.85495121986422,19.735264593458652,20
155.445,69.63291187500309,69.6863288191716,69.94967878006902,69.83040858559195,19.855920233579653,19.736650039102585,20
157.706,69.61587135505155,69.66875039554995,69.93134754364668,69.81267115671949,19.85607923883046,19.73740285190327,20
160.0,69.42710560753825,69.49983877385144,69.76435642146708,69.64683132665792,19.85300744719352,19.735482352384352,20
162.327,69.27026917639355,69.36225861069235,69.6271473803801,69.51180540278375,19.8504532079086,19.735111230312256,20
164.688,69.26503895867086,69.35137928255473,69.61308581960748,69.49894498578216,19.85243429677257,19.738293462947254,20
167.084,69.33624602363457,69.40259269816595,69.65823799305723,69.54355404233837,19.859038655827575,19.74435470510872,20
169.514,69.41322760503715,69.47621207055901,69.7273825796622,69.61269251363703,19.863519556921986,19.74882949089681,20
171.98,69.26683175576451,69.33783227300137,69.58786639839344,69.4740257079704,19.86380656503097,19.749965874607923,20
174.481,69.08981230137545,69.16148610709998,69.41512147281725,69.3008292390091,19.86065686809087,19.746364634282727,20
177.019,69.03068256559125,69.09372568033811,69.35146338975314,69.23572710135146,19.857998578986653,19.742262290584975,20
179.594,69.02156410892316,69.07567550868225,69.33307130704031,69.21750569889412,19.858169809788137,19.74260420164194,20
182.206,68.99547155235992,69.04416130892969,69.2970090066133,69.18267410112689,19.861487207802796,19.747152302316394,20
184.856,69.03705607934802,69.08923446497737,69.34097226116685,69.22620053712077,19.86303392785659,19.748262203810512,20
187.545,69.06089149994531,69.13276540184538,69.3853124802379,69.27080526438627,19.861960137459107,19.747452921607476,20
190.273,69.08610560753826,69.16628432828367,69.41597495591131,69.30491502337047,19.861369304913197,19.750309372372357,20
193.041,69.1323813987278,69.19546910414616,69.43967105970755,69.33104635370391,19.864422750442245,19.755798044438606,20
195.849,69.14061349490953,69.18872785405384,69.43299563513517,69.32327662859444,19.865451225459395,19.755732218918666,20
198.697,69.18448640294184,69.24139441474327,69.48808412096271,69.37825900127855,19.86313541346472,19.753310293780558,20
201.587,69.16492138822531,69.2275115998248,69.47163310826598,69.36442092815533,19.863090671669468,19.755878491558818,20
204.52,69.02748640294185,69.08011505051635,69.3202561449022,69.21467278866737,19.865442261848983,19.759858905614152,20
207.494,68.90853233592281,68.95883413503022,69.1978927607469,69.09298030347071,19.865853831559505,19.76094137428332,20
210.512,68.86941445213269,68.92144156587932,69.15832089671031,69.055951088048,19.865490477831315,19.763120669169012,20
213.574,68.88690757359372,68.93358021260332,69.16747929335705,69.06664575715838,19.866934455444934,19.76610091924627,20
