Freq,On Axis,Listening Window,Sound Power,Early Reflections,Early Reflections DI,Sound Power DI,DI offset
20.0,15.238216655286053,15.141035344731065,15.002084611635851,15.21351116628226,19.927524178448806,20.138950733095214,20
20.2909,16.08996379491704,15.994572283907658,15.85442727518354,16.069871360949847,19.92470092295781,20.14014500872412,20
20.586,17.170128971463143,17.08007313016195,16.936854632711103,17.15728831665696,19.92278481350499,20.143218497450846,20
20.8855,18.418197365218546,18.335702968293575,18.18881316155027,18.414867286121407,19.920835682172168,20.146889806743303,20
21.1893,19.65489855460386,19.580886790406183,19.42954961072489,19.661343021206804,19.91954376919938,20.151337179681292,20
21.4975,20.745812885478458,20.682878610811926,20.52694935360806,20.765053563748907,19.91782504706302,20.155929257203866,20
21.8102,21.67353590043625,21.62275353058591,21.462197042339042,21.70614868043215,19.91660485015376,20.16055648824687,20
22.1274,22.45859112028613,22.42153040076586,22.257030809902332,22.50680879903551,19.91472160173035,20.164499590863528,20
22.4492,23.16450876565797,23.141415240470494,22.97327998354295,23.228177624105214,19.91323761636528,20.168135256927542,20
22.7758,23.8767300170865,23.86906847872227,23.698422930571226,23.957566321442656,19.911502157279614,20.170645548151043,20
23.1071,24.682187563366355,24.688713804470282,24.51665512475698,24.77916739178427,19.909546412686012,20.172058679713302,20
23.4432,25.61579713657305,25.636696765631527,25.465106742690537,25.7299334707035,19.906763294928027,20.17159002294099,20
23.7841,26.639461334631605,26.673121697157526,26.503376427288927,26.7691779028507,19.903943794306826,20.1697452698686,20
24.1301,27.666093697415747,27.71179849848515,27.54526479736215,27.810797712462445,19.901000786022706,20.166533701123,20
24.4811,28.638628953411498,28.6945715257324,28.532900593179463,28.797043482029167,19.897528043703232,20.161670932552937,20
24.8372,29.53706652858348,29.60151444685455,29.44691833534135,29.708047690173927,19.893466756680624,20.1545961115132,20
25.1984,30.378922854230936,30.448637862812504,30.30177810974361,30.559054790155145,19.88958307265736,20.146859753068895,20
25.5649,31.199757072194288,31.273351312559797,31.135823319471612,31.38791190200122,19.885439410558575,20.137527993088185,20
25.9368,32.03717927406534,32.11265982647764,31.985457170590493,32.23150324003005,19.881156586447588,20.127202655887146,20
26.3141,32.917789883557234,32.99151053110559,32.87515810220809,33.11459525514219,19.8769152759634,20.1163524288975,20
26.6968,33.84019604000794,33.91099808357278,33.80558692528261,34.03779775482796,19.873200328744815,20.105411158290167,20
27.0851,34.79494842167661,34.860763428588896,34.76632100980733,34.99125717469609,19.86950625389281,20.09444241878157,20
27.4791,35.76506612819837,35.82476901455432,35.74089496289575,35.95855747803189,19.866211536522428,20.08387405165857,20
27.8788,36.74049167101249,36.79274671212012,36.71870922678424,36.929362761344905,19.863383950775216,20.07403748533588,20
28.2843,37.711098312434316,37.756011210617416,37.691954293940924,37.896142063816185,19.85986914680123,20.064056916676492,20
28.6957,38.66869938260636,38.70660454617011,38.65074994189045,38.84927726687654,19.85732727929357,20.05585460427966,20
29.1131,39.606660159729316,39.63768841395357,39.58986109626652,39.78308781401965,19.854600599933917,20.04782731768705,20
29.5365,40.51882111940172,40.545544855673185,40.50518248813826,40.69395611732237,19.851588738350813,20.040362367534925,20
29.9661,41.41003264822366,41.434350633688254,41.400542076113354,41.5856476821554,19.848702951532857,20.0338085575749,20
30.402,42.28717104231937,42.31097860898946,42.2844390084819,42.4665669875085,19.84441162148096,20.02653960050756,20
30.8442,43.16689517078096,43.19211137010636,43.17343404710077,43.35238079050494,19.839730579601422,20.01867732300559,20
31.2929,44.05168845533073,44.08109404540839,44.07066540479495,44.246935181426565,19.834158863981827,20.01042864061344,20
31.748,44.94019140533571,44.976132942143224,44.974811382072275,45.14803415888785,19.82809878325537,20.00132156007095,20
32.2098,45.82557351279904,45.86884019211699,45.878364722563916,46.047942654276326,19.820897537840665,19.990475469553076,20
32.6783,46.70192650128861,46.75439303323401,46.77510816926922,46.94059452617459,19.813798507059417,19.979284863964793,20
33.1536,47.5633759775685,47.624998559372656,47.65852460060407,47.819196850893846,19.80580170847881,19.96647395876859,20
33.6359,48.408488518142065,48.478416807419975,48.52529649405733,48.680087718815685,19.79832908860429,19.953120313362646,20
34.1251,49.23376479375099,49.31124819491444,49.371496200598855,49.519521449393125,19.791726745521316,19.939751994315586,20
34.6215,50.04425618257122,50.128540491588936,50.20134061463547,50.34223109891012,19.786309392678817,19.927199876953466,20
35.125,50.84496250482354,50.933476070473276,51.01737143162548,51.150376301977246,19.78309976849603,19.9161046388478,20
35.6359,51.63778642992078,51.72835676742308,51.82165521610783,51.94667873726753,19.781678030155547,19.90670155131525,20
36.1543,52.42123472859218,52.51179540552775,52.611338981348055,52.72866304153122,19.78313236399653,19.900456424179694,20
36.6802,53.18930377868871,53.27742691088257,53.37970457617254,53.48988460278491,19.787542308097656,19.897722334710025,20
37.2137,53.93540907867698,54.020070270875024,54.12145818979958,54.225299952660976,19.79477031821405,19.89861208107544,20
37.755,54.665034544555894,54.74529954273285,54.84240282331699,54.941276804771874,19.804022737960977,19.902896719415864,20
38.3041,55.38010750411195,55.454856496368265,55.544614826305164,55.63960134798933,19.815255148378938,19.9102416700631,20
38.8613,56.079625887719814,56.150365252809294,56.23040027332132,56.32268335250387,19.82768190030542,19.919964979487972,20
39.4265,56.75151644838813,56.81897679552928,56.8882663689221,56.97945372958476,19.83952306594452,19.930710426607178,20
40.0,57.39730377868871,57.46270488538623,57.522006116889955,57.612570040526705,19.850134844859525,19.940698768496276,20
40.5818,58.02596772800011,58.090800592089394,58.14138229254824,58.23190110264143,19.858899489447964,19.94941829954115,20
41.1721,58.64359482955139,58.709984995700495,58.75541593698408,58.84565234593268,19.864332649767817,19.954569058716416,20
41.771,59.23917529328348,59.307744587333346,59.35184738326306,59.441314904766074,19.866429682567272,19.955897204070283,20
42.3785,59.785807529396195,59.856566202530686,59.90472246269452,59.9922507120221,19.864315490508588,19.951843739836164,20
42.9949,60.281981905778466,60.356080466334504,60.412907732524786,60.49755183299858,19.858528633335922,19.943172733809718,20
43.6203,60.754243354206196,60.83029008794371,60.90020744638356,60.98032402469282,19.84996606325089,19.930082641560148,20
44.2548,61.23606652858351,61.31306424470493,61.399452590248416,61.4738547021454,19.83920954255953,19.913611654456517,20
44.8985,61.73094449768547,61.80705679661837,61.912825071058435,61.980181057596226,19.826875739022142,19.894231725559933,20
45.5515,62.21988233012267,62.29256445666147,62.41814704903106,62.47751707299783,19.81504738366364,19.874417407630403,20
46.2141,62.68834989338562,62.756547900658305,62.90146155122021,62.95234659552936,19.80420130512894,19.855086349438096,20
46.8863,63.1438454898055,63.20508344949867,63.36662359053069,63.40916684149752,19.79591660800115,19.83845985896798,20
47.5683,63.596358873226066,63.6503920625717,63.824737264284025,63.85917531081931,19.791216751752387,19.825654798287673,20
48.2602,64.04488233012268,64.09132307116337,64.27359457061856,64.30098417032008,19.790338900843295,19.817728500544817,20
48.9621,64.47890213170704,64.51757767594523,64.70314519959665,64.72424144875684,19.79333622718839,19.814432476348586,20
49.6743,64.89191237785211,64.92475120160064,65.10840404301395,65.12485554381088,19.79989565778976,19.816347158586694,20
50.3968,65.28290213170706,65.31161552829643,65.48990761325763,65.50276467055164,19.808850857744787,19.8217079150388,20
51.1299,65.65337752362434,65.68036157016964,65.85051290064419,65.86120579907241,19.81915577109723,19.829848669525447,20
51.8736,65.99933262442691,66.02678949986849,66.18729170773396,66.19682828501435,19.829961214854137,19.839497792134523,20
52.6281,66.32128634339182,66.35261582671542,66.50532101142669,66.51428160962509,19.838334217090335,19.847294815288734,20
53.3936,66.62575120066981,66.66187979614045,66.80942110148067,66.81800160175811,19.84387819438234,19.852458694659788,20
54.1702,66.91273001708647,66.95569488462088,67.10276233358059,67.11035600691288,19.845338877708002,19.852932551040297,20
54.9581,67.1847300170865,67.23629571550315,67.38844704939912,67.39412692978667,19.84216878571648,19.847848666104028,20
55.7575,67.44375707219427,67.50502913075151,67.66802163162878,67.67013972073455,19.834889410016956,19.837007499122734,20
56.5685,67.69283685532604,67.76472549861738,67.94284824287892,67.9396586752567,19.825066823360686,19.821877255738457,20
57.3914,67.9264728470484,68.00818622259588,68.20430826202532,68.19411956454444,19.814066658051445,19.80387796057056,20
58.2261,68.13667315984353,68.22752791126838,68.44191852489865,68.42368170949791,19.80384620177047,19.785609386369728,20
59.073,68.3133796540147,68.41076308462074,68.64134008591492,68.61420812603502,19.796554958585716,19.76942299870582,20
59.9323,68.4584723224418,68.55908966002211,68.80048945478602,68.76476863916204,19.794321020860068,19.758600205236093,20
60.804,68.58485297562376,68.68337983831523,68.92838861968282,68.88541092303667,19.79796891527856,19.754991218632412,20
61.6884,68.69657323446047,68.78741987918241,69.0287681464036,68.98063432672866,19.806785552453746,19.7586517327788,20
62.5857,68.78677606826666,68.8649006933865,69.09697332948302,69.04566741860496,19.81923327478154,19.767927363903482,20
63.496,68.85768212351375,68.91857283386926,69.13937405601438,69.08634633274305,19.832226501126215,19.779198777854887,20
64.4196,68.91934114378562,68.96092352384778,69.17245257170445,69.11785532079884,19.843068203048944,19.788470952143328,20
65.3566,68.98309369741573,69.00835478111738,69.21578114729434,69.15886796815029,19.849486812967086,19.79257363382304,20
66.3073,69.05722735260582,69.07127882820377,69.28283096427337,69.22157658379275,19.84970224441102,19.7884478639304,20
67.2717,69.13913617726955,69.15135355354484,69.37387640663441,69.30609951635483,19.845254037190003,19.777477146910428,20
68.2502,69.21991237785208,69.23881978338868,69.4776782995647,69.40223455326831,19.836585230120363,19.761141483823977,20
69.2429,69.30374555939618,69.33745101473606,69.59283459892366,69.51022456905037,19.827226445685696,19.744616415812402,20
70.2501,69.38818963568998,69.4391079043783,69.70759025695003,69.62007119458058,19.81903670979773,19.731517647428277,20
71.2719,69.46168857074598,69.52691098643619,69.80146282721506,69.71301052353952,19.81390046289667,19.72544815922113,20
72.3086,69.5212600943004,69.58961241979077,69.86451949840519,69.77855299768474,19.811059422106027,19.72509292138558,20
73.3603,69.55406652858352,69.61345013172466,69.88329356582904,69.80223298657913,19.811217145145534,19.730156565895626,20
74.4274,69.57418565626698,69.61062689826704,69.87721955577697,69.80042256296912,19.810204335297925,19.733407342490068,20
75.5099,69.59530938668793,69.60327156968636,69.87100062381194,69.79489127788808,19.808380291798272,19.73227094587442,20
76.6083,69.60896353314233,69.59391532806599,69.87001830732942,69.78877550017357,19.80513982789242,19.723897020736572,20
77.7226,69.6460219745242,69.62447261214864,69.91343177431568,69.82178114075006,19.802691471398575,19.711040837832954,20
78.8531,69.71930966257734,69.71425987211306,70.01611171610789,69.91153234563903,19.80272752647403,19.698148156005175,20
80.0,69.81632433531047,69.84923852934494,70.15853577445095,70.04261974299096,19.80661878635398,19.69070275489399,20
81.1636,69.91768338993488,70.00121505146542,70.30777823324227,70.18581304736821,19.81540200409721,19.693436818223148,20
82.3442,69.99768212351377,70.12918877319329,70.42459241790225,70.3035244258687,19.82566434732459,19.704596355291045,20
83.5419,70.05968108735084,70.2220813669075,70.50123470148539,70.38664329715368,19.83543806975382,19.720846665422116,20
84.757,70.09925410765072,70.26875823014298,70.53394217731145,70.42774465447442,19.841013575668555,19.734816052831533,20
85.9899,70.12541758726235,70.28008590828189,70.5380444237692,70.43782970075506,19.84225620752683,19.742041484512697,20
87.2406,70.14455988026091,70.27411800570547,70.5340357988325,70.43509918875479,19.839018816950684,19.74008220687297,20
88.5096,70.18509369741572,70.29066122614333,70.55802739562863,70.45560643134299,19.835054794800342,19.7326338305147,20
89.797,70.24155988026091,70.33244703427691,70.60849341577448,70.50083793125263,19.831609103024277,19.723953618502435,20
91.1031,70.29206652858353,70.37716186154701,70.65758890316359,70.54623679601097,19.830925065536036,19.719572958383424,20
92.4282,70.31364345868008,70.3967145838955,70.67521512595097,70.56341681352492,19.833297770370578,19.72149945794453,20
93.7726,70.29973532463107,70.37854681844776,70.65107594313129,70.54143401431752,19.837112804130243,19.72747087531647,20
95.1366,70.253751441331,70.32344202765046,70.58926565639938,70.48189969552844,19.841542332122017,19.73417637125108,20
96.5204,70.22913617726952,70.29016138559273,70.55235016941803,70.444914712424,19.84524667316873,19.73781121617469,20
97.9243,70.22700263533237,70.28459826828707,70.5469317334089,70.43697924339172,19.84761902489535,19.737666534878173,20
99.3486,70.23945005244347,70.3030262942449,70.56771666863848,70.45455800699685,19.848468287248053,19.73530962560642,20
100.794,70.24904028062105,70.32471011722009,70.5919137847297,70.47725987427263,19.84745024294746,19.732796332490395,20
102.26,70.2522760480013,70.34052196534176,70.60875457454442,70.49552781621394,19.844994149127828,19.731767390797344,20
103.747,70.24902081455609,70.34406549679554,70.61234991687208,70.50195185475224,19.8421136420433,19.73171557992346,20
105.256,70.25008090398687,70.3427269942505,70.6115634342973,70.50292960478714,19.839797389463357,19.731163559953202,20
106.787,70.26239772733936,70.34528196202113,70.6155893655923,70.5063846809245,19.838897281096635,19.729692596428833,20
108.34,70.26619604000793,70.3386479914794,70.6102408713326,70.49863954990039,19.840008441579016,19.728407120146798,20
109.916,70.23262895341149,70.29864386372294,70.57112853577706,70.45707221579916,19.841571647923786,19.72751532794588,20
111.515,70.16822735260583,70.2351693798542,70.5061147178885,70.39111095982854,19.84405842002566,19.729054661965705,20
113.137,70.12490685032019,70.2019652450764,70.47013967476646,70.35568914796103,19.846276097115364,19.731825570309937,20
114.783,70.09353068560695,70.18362038744776,70.449544738702,70.33563344654239,19.847986940905372,19.73407564874576,20
116.452,70.06151100104755,70.15975867982043,70.42531259531428,70.31138890867234,19.848369771148086,19.734446084506146,20
118.146,70.03294391769445,70.13120343832556,70.39798860054067,70.2839684651947,19.847234973130853,19.733214837784885,20
119.865,70.01390685032017,70.10288411656668,70.36981883847848,70.25636447308642,19.846519643480264,19.733065278088205,20
121.608,69.99190685032018,70.07157316643593,70.3364725859555,70.223661459322,19.847911707113923,19.73510058048042,20
123.377,69.97836181087429,70.05455918938911,70.31549959123045,70.20182648353284,19.85273270585627,19.73905959815866,20
125.171,69.97130966257734,70.04939584910126,70.30836893685516,70.19180497891854,19.85759087018272,19.7410269122461,20
126.992,69.96130966257734,70.04276102338159,70.30408114150875,70.18343097565086,19.859330047730722,19.73867988187284,20
128.839,69.94292526891762,70.02402745036477,70.29089271860367,70.16760236280392,19.85642508756085,19.733134731761098,20
130.713,69.90706064401085,69.98727959434758,70.2576794618499,70.13470916923788,19.852570425109704,19.72960013249768,20
132.615,69.85710139412582,69.93636316802132,70.20485605696165,70.08401216133015,19.852351006691165,19.73150711105967,20
134.543,69.81653068560696,69.89659486363557,70.15974625903743,70.04048985806436,19.85610500557121,19.736848604598137,20
136.5,69.79304061419988,69.87042386990736,70.13232929374693,70.01315394373799,19.857269926169366,19.73809457616042,20
138.486,69.76471820395389,69.83726680669933,70.1040993226777,69.9841101760223,19.853156630677034,19.733167484021635,20
140.5,69.71546053665894,69.7840745582379,70.05803095448782,69.93732358051895,19.846750977718955,19.726043603750085,20
142.544,69.67548493921531,69.74189050977311,70.01821209944382,69.89718439039095,19.844706119382167,19.7236784103293,20
144.617,69.66027360083667,69.72342810936381,69.99585960592952,69.8747019372948,19.848726172069007,19.727568503434284,20
146.721,69.62257074522837,69.68282547863437,69.94964178006448,69.8281519771144,19.85467350151997,19.73318369856989,20
148.855,69.61012211442552,69.67407041194798,69.93849166395417,69.8172048333757,19.856865578572283,19.735578747993813,20
151.02,69.63029616234124,69.69967971060521,69.96463313450084,69.84411059731495,19.855569113290258,19.735046576104367,20
153.217,69.62178485282129,69.68727866599725,69.9520140725386,69.83232744613304,19.85495121986422,19.735264593458652,20
155.445,69.61259112028613,69.66600806445464,69.92935802535206,69.81008783087499,19.855920233579653,19.736650039102585,20
157.706,69.59555060033459,69.64842964083299,69.91102678892972,69.79235040200253,19.85607923883046,19.73740285190327,20
160.0,69.40678485282129,69.47951801913447,69.74403566675012,69.62651057194095,19.85300744719352,19.735482352384352,20
162.327,69.24994842167659,69.34193785597539,69.60682662566313,69.49148464806679,19.8504532079086,19.735111230312256,20
164.688,69.2447182039539,69.33105852783777,69.59276506489051,69.4786242310652,19.85243429677257,19.738293462947254,20
167.084,69.31592526891761,69.38227194344898,69.63791723834026,69.52323328762141,19.859038655827575,19.74435470510872,20
169.514,69.39290685032019,69.45589131584205,69.70706182494524,69.59237175892007,19.863519556921986,19.74882949089681,20
171.98,69.24651100104755,69.3175115182844,69.56754564367648,69.45370495325344,19.86380656503097,19.749965874607923,20
174.481,69.06949154665848,69.14116535238301,69.39480071810029,69.28050848429214,19.86065686809087,19.746364634282727,20
177.019,69.01036181087429,69.07340492562115,69.33114263503617,69.2154063466345,19.857998578986653,19.742262290584975,20
179.594,69.0012433542062,69.05535475396529,69.31275055232335,69.19718494417715,19.858169809788137,19.74260420164194,20
182.206,68.97515079764295,69.02384055421273,69.27668825189633,69.16235334640993,19.861487207802796,19.747152302316394,20
184.856,69.01673532463106,69.0689137102604,69.32065150644989,69.20587978240381,19.86303392785659,19.748262203810512,20
187.545,69.04057074522835,69.11244464712841,69.36499172552094,69.2504845096693,19.861960137459107,19.747452921607476,20
190.273,69.0657848528213,69.1459635735667,69.39565420119435,69.2845942686535,19.861369304913197,19.750309372372357,20
193.041,69.11206064401084,69.1751483494292,69.41935030499059,69.31072559898695,19.864422750442245,19.755798044438606,20
195.849,69.12029274019257,69.16840709933687,69.41267488041821,69.30295587387748,19.865451225459395,19.755732218918666,20
198.697,69.16416564822488,69.2210736600263,69.46776336624575,69.35793824656159,19.86313541346472,19.753310293780558,20
201.587,69.14460063350835,69.20719084510783,69.45131235354901,69.34410017343836,19.863090671669468,19.755878491558818,20
204.52,69.00716564822488,69.05979429579939,69.29993539018524,69.19435203395041,19.865442261848983,19.759858905614152,20
207.494,68.88821158120585,68.93851338031325,69.17757200602993,69.07265954875375,19.865853831559505,19.76094137428332,20
210.512,68.84909369741573,68.90112081116236,69.13800014199334,69.03563033333104,19.865490477831315,19.763120669169012,20
213.574,68.86658681887675,68.91325945788635,69.14715853864008,69.04632500244142,19.866934455444934,19.76610091924627,20
