Freq "Sound Power"
20.0 15.022405366352814
20.2909 15.874748029900502
20.586 16.957175387428066
20.8855 18.209133916267234
21.1893 19.449870365441853
21.4975 20.547270108325023
21.8102 21.482517797056005
22.1274 22.277351564619295
22.4492 22.993600738259914
22.7758 23.71874368528819
23.1071 24.536975879473943
23.4432 25.4854274974075
23.7841 26.52369718200589
24.1301 27.565585552079114
24.4811 28.553221347896425
24.8372 29.467239090058314
25.1984 30.32209886446057
25.5649 31.156144074188575
25.9368 32.005777925307456
26.3141 32.89547885692505
26.6968 33.825907679999574
27.0851 34.78664176452429
27.4791 35.761215717612714
27.8788 36.739029981501204
28.2843 37.71227504865789
28.6957 38.671070696607416
29.1131 39.61018185098348
29.5365 40.52550324285522
29.9661 41.420862830830316
30.402 42.30475976319886
30.8442 43.19375480181773
31.2929 44.090986159511914
31.748 44.99513213678924
32.2098 45.89868547728088
32.6783 46.79542892398618
33.1536 47.67884535532103
33.6359 48.54561724877429
34.1251 49.39181695531582
34.6215 50.22166136935243
35.125 51.03769218634244
35.6359 51.84197597082479
36.1543 52.63165973606502
36.6802 53.400025330889505
37.2137 54.141778944516545
37.755 54.86272357803395
38.3041 55.56493558102213
38.8613 56.250721028038285
39.4265 56.908587123639066
40.0 57.54232687160692
40.5818 58.161703047265206
41.1721 58.77573669170104
41.771 59.372168137980026
42.3785 59.925043217411485
42.9949 60.43322848724175
43.6203 60.920528201100524
44.2548 61.41977334496538
44.8985 61.9331458257754
45.5515 62.438467803748026
46.2141 62.92178230593717
46.8863 63.386944345247656
47.5683 63.84505801900099
48.2602 64.29391532533552
48.9621 64.72346595431361
49.6743 65.12872479773091
50.3968 65.51022836797459
51.1299 65.87083365536115
51.8736 66.20761246245092
52.6281 66.52564176614365
53.3936 66.82974185619763
54.1702 67.12308308829755
54.9581 67.40876780411608
55.7575 67.68834238634574
56.5685 67.96316899759589
57.3914 68.22462901674228
58.2261 68.46223927961562
59.073 68.66166084063188
59.9323 68.82081020950298
60.804 68.94870937439978
61.6884 69.04908890112057
62.5857 69.11729408419998
63.496 69.15969481073134
64.4196 69.19277332642142
65.3566 69.2361019020113
66.3073 69.30315171899034
67.2717 69.39419716135137
68.2502 69.49799905428166
69.2429 69.61315535364062
70.2501 69.72791101166699
71.2719 69.82178358193202
72.3086 69.88484025312215
73.3603 69.903614320546
74.4274 69.89754031049394
75.5099 69.8913213785289
76.6083 69.89033906204638
77.7226 69.93375252903265
78.8531 70.03643247082485
80.0 70.17885652916792
81.1636 70.32809898795924
82.3442 70.44491317261921
83.5419 70.52155545620235
84.757 70.55426293202841
85.9899 70.55836517848616
87.2406 70.55435655354947
88.5096 70.57834815034559
89.797 70.62881417049144
91.1031 70.67790965788055
92.4282 70.69553588066793
93.7726 70.67139669784825
95.1366 70.60958641111634
96.5204 70.572670924135
97.9243 70.56725248812586
99.3486 70.58803742335544
100.794 70.61223453944666
102.26 70.62907532926138
103.747 70.63267067158904
105.256 70.63188418901426
106.787 70.63591012030926
108.34 70.63056162604957
109.916 70.59144929049403
111.515 70.52643547260546
113.137 70.49046042948342
114.783 70.46986549341896
116.452 70.44563335003124
118.146 70.41830935525763
119.865 70.39013959319544
121.608 70.35679334067247
123.377 70.33582034594741
125.171 70.32868969157212
126.992 70.32440189622571
128.839 70.31121347332063
130.713 70.27800021656687
132.615 70.22517681167861
134.543 70.1800670137544
136.5 70.1526500484639
138.486 70.12442007739466
140.5 70.07835170920478
142.544 70.03853285416078
144.617 70.01618036064649
146.721 69.96996253478144
148.855 69.95881241867113
151.02 69.9849538892178
153.217 69.97233482725557
155.445 69.94967878006902
157.706 69.93134754364668
160.0 69.76435642146708
162.327 69.6271473803801
164.688 69.61308581960748
167.084 69.65823799305723
169.514 69.7273825796622
171.98 69.58786639839344
174.481 69.41512147281725
177.019 69.35146338975314
179.594 69.33307130704031
182.206 69.2970090066133
184.856 69.34097226116685
187.545 69.3853124802379
190.273 69.41597495591131
193.041 69.43967105970755
195.849 69.43299563513517
198.697 69.48808412096271
201.587 69.47163310826598
204.52 69.3202561449022
207.494 69.1978927607469
210.512 69.15832089671031
213.574 69.16747929335705
216.681 69.0648671711861
219.833 69.07124877942438
223.03 69.08670278935867
226.274 69.16399421462489
229.565 69.24830899936042
232.905 69.19688200896908
236.292 69.10390818455335
239.729 69.06775778920951
243.216 69.11868137189934
246.754 69.18648231266064
250.343 69.11492874541861
253.984 69.02185867156761
257.678 69.00767681002526
261.426 69.02755444229511
265.229 69.03085375808578
269.087 68.99957349790292
273.001 68.8557770358853
276.972 68.8346806480886
281.0 68.896807211758
285.088 68.90856000019083
289.234 68.95303430958057
293.441 69.01097851041808
297.709 68.98344426045277
302.04 68.89445329118067
306.433 68.67568582949986
310.89 68.59452871678018
315.412 68.57017232305913
320.0 68.51899770028393
324.655 68.44029235040901
329.377 68.28070052133486
334.168 68.15313365319619
339.028 68.08707332738435
343.959 68.45896214254597
348.962 68.4150302269466
354.038 68.18516988775778
359.188 68.09207798771251
364.412 67.9857967606285
369.713 67.81693218747597
375.09 67.66399957173023
380.546 67.64155776047014
386.081 67.61732928999655
391.697 67.42989444488788
397.394 67.44011627492245
403.175 67.31337719070497
409.039 67.22605345406373
414.989 67.2797518139165
421.025 67.39633596883964
427.149 67.31302382848452
433.362 67.26534178725882
439.665 67.35444047743599
446.06 67.49638623335079
452.548 67.48578779707464
459.131 67.53913612364614
465.809 67.53092426822599
472.584 67.5221586909106
479.458 67.56892000364883
486.432 67.54563937807796
493.507 67.51130878446686
500.686 67.48078254301547
507.968 67.40089372692489
515.357 67.3029702049898
522.853 67.19788860519584
530.458 67.07443452157713
538.174 66.9513712539745
546.002 66.82738977605507
553.943 66.70318444581386
562.001 66.57874900161183
570.175 66.46631514889565
578.469 66.362732703521
586.883 66.27527088624491
595.419 66.20225544950878
604.08 66.14708793612904
612.866 66.10988802352017
621.78 66.08709711060618
630.824 66.07596543802958
640.0 66.0742409891678
649.309 66.07321737410072
658.753 66.07018800194302
668.335 66.06296682092825
678.056 66.04640088898746
687.919 66.01695093527744
697.925 65.97586540075228
708.077 65.92195749845088
718.376 65.86291866434699
728.825 65.7971536859394
739.426 65.73453608583674
750.181 65.68472448795254
761.093 65.65692901843933
772.163 65.65718271024932
783.394 65.6925332612814
794.789 65.76747897534511
806.349 65.87676099704399
818.078 66.01902357225845
829.977 66.18506052267722
842.05 66.35963526459422
854.298 66.53278898334051
866.724 66.69343972745372
879.33 66.83001512109473
892.12 66.93232184349306
905.097 66.99624258684634
918.262 67.02000512058444
931.618 67.00025403907291
945.169 66.94765341981486
958.917 66.86351905053334
972.864 66.764359710408
987.015 66.66065383046688
1001.37 66.56139929760425
1015.94 66.48802646459352
1030.71 66.44798313863959
1045.71 66.44586122634078
1060.92 66.47719469890964
1076.35 66.53150200006884
1092.0 66.59692681592334
1107.89 66.65865117571455
1124.0 66.70203796574837
1140.35 66.71968758394505
1156.94 66.70966177453647
1173.77 66.66953990462302
1190.84 66.6123104365242
1208.16 66.54879108902378
1225.73 66.49453806840631
1243.56 66.4633273948403
1261.65 66.46157257928147
1280.0 66.49009957044515
1298.62 66.53529425115656
1317.51 66.57989744869057
1336.67 66.5987071020284
1356.11 66.56735033343725
1375.84 66.46175693366038
1395.85 66.25989115383136
1416.15 65.95409044178166
1436.75 65.5379685433759
1457.65 65.02783892822931
1478.85 64.44747317746479
1500.36 63.844465262092754
1522.19 63.302500674324705
1544.33 62.8953567224907
1566.79 62.6886871946804
1589.58 62.68178469282847
1612.7 62.81134791945745
1636.16 62.98595980680827
1659.95 63.11471368910449
1684.1 63.13706101081537
1708.6 63.01497863321315
1733.45 62.74479778818751
1758.66 62.35303276057056
1784.24 61.89962343262533
1810.19 61.48875993686191
1836.52 61.2395404656951
1863.24 61.209157024879175
1890.34 61.35904066625558
1917.83 61.56305243998591
1945.73 61.68875062551601
1974.03 61.644928969935705
2002.74 61.39719543326672
2031.87 60.99443802778421
2061.43 60.55907755853434
2091.41 60.277089807779305
2121.83 60.26750772218216
2152.69 60.47435797496691
2184.01 60.719307747577886
2215.77 60.83427587065631
2248.0 60.76249220461342
2280.7 60.58003874170623
2313.87 60.46554274838945
2347.53 60.58871761084896
2381.68 60.94454349629622
2416.32 61.35544129510764
2451.46 61.6233232385882
2487.12 61.65414207590224
2523.3 61.47284189165369
2560.0 61.2108492497571
2597.24 61.02928349035089
2635.01 61.019897976710084
2673.34 61.13154056629864
2712.23 61.239755166915145
2751.68 61.246811655854714
2791.7 61.13311356439084
2832.31 60.965047499013025
2873.5 60.86347077304801
2915.3 60.9256290592068
2957.7 61.129987966882325
3000.72 61.31863895412425
3044.37 61.33484290165012
3088.65 61.157358821233046
3133.58 60.95547392386325
3179.16 60.96465674715165
3225.4 61.18165421715378
3272.31 61.35394638513661
3319.91 61.28349323739366
3368.2 61.056285292906566
3417.19 60.95782039871759
3466.89 61.10839323632115
3517.32 61.297424060163365
3568.48 61.320126065571415
3620.39 61.248226340939226
3673.05 61.30353027152283
3726.47 61.50469078926082
3780.67 61.657051136207
3835.67 61.65696435708206
3891.46 61.62459268508222
3948.06 61.6886896130746
4005.49 61.78864030174985
4063.75 61.807395593629494
4122.86 61.77740302705084
4182.82 61.80396957794207
4243.66 61.822179323880064
4305.39 61.74458254262545
4368.01 61.692377571178184
4431.55 61.76623701668731
4496.01 61.76250799395298
4561.4 61.62852131982035
4627.75 61.71265830943574
4695.06 62.0181104309397
4763.35 62.12346739381243
4832.64 62.069594539142514
4902.93 62.22523593282352
4974.24 62.47974523654821
5046.6 62.51496354265258
5120.0 62.412265917930796
5194.47 62.50256953790938
5270.03 62.6732377678789
5346.68 62.474846356335135
5424.45 62.212922733752634
5503.35 62.403070780958174
5583.4 62.37765281255142
5664.61 62.06957544640467
5747.01 62.31435475206965
5830.6 62.534726252277494
5915.41 62.182566014428375
6001.45 61.9651708667689
6088.74 62.020746207724
6177.3 61.75939091890399
6267.15 61.75705485125199
6358.31 61.9524205877681
6450.8 61.635084177019976
6544.62 61.77679369501254
6639.82 61.81054817756154
6736.4 61.66560352284577
6834.38 61.899630572113736
6933.79 61.82293726257397
7034.64 61.93101960236257
7136.96 61.993881936253544
7240.77 61.96175818129089
7346.09 61.944523845568085
7452.94 61.94568110170111
7561.35 61.922683318728474
7671.33 61.991499078101924
7782.91 62.10595135151499
7896.12 62.169762692228915
8010.97 62.26199870374526
8127.49 62.290227340397095
8245.71 62.4412034443276
8365.65 62.58901600806115
8487.33 62.753053170654255
8610.78 62.9692389874387
8736.03 62.92099296654918
8863.09 63.07094561164499
8992.01 62.825946544387094
9122.8 63.10090701537516
9255.5 62.9681914100899
9390.12 63.385701040156746
9526.7 63.264967093701785
9665.27 63.57468973663558
9805.86 63.42001214941048
9948.49 63.70339749255115
10093.2 63.740983740069
10240.0 64.16958762442047
10388.9 64.22701301639121
10540.1 64.31137719107761
10693.4 64.38392212549928
10848.9 64.4150728316559
11006.7 64.68002283674912
11166.8 64.92743372762567
11329.2 65.2701627530849
11494.0 65.30551682742214
11661.2 65.47188728884049
11830.8 65.42215591039067
12002.9 65.35754414100845
12177.5 65.39056784925475
12354.6 65.12656393934503
12534.3 64.90343715754982
12716.6 64.76177652675189
12901.6 64.53825892923075
13089.2 64.45644376779667
13279.6 64.40579194482423
13472.8 64.26175383439256
13668.8 64.13658989167794
13867.6 64.05885400445052
14069.3 63.942649660181715
14273.9 63.75145204581486
14481.5 63.48434891446651
14692.2 63.34505198347516
14905.9 63.474567541320965
15122.7 63.48850683149098
15342.7 63.317418531390814
15565.8 63.24571039601153
15792.2 63.122398991569355
16021.9 62.901395500330125
16255.0 62.77556496664842
16491.4 62.645364217944234
16731.3 62.59915468119888
16974.7 62.49563175827652
17221.6 62.20545778551964
17472.1 61.952264735497025
17726.2 61.648081845537405
17984.0 61.40026023661248
18245.6 61.23428886723866
18511.0 61.055182185332654
18780.2 60.90797707814059
19053.4 60.59129700280283
19330.5 60.36223803185763
19611.7 60.211055119363905
19897.0 59.889404471990545
