Freq "Sound Power DI"
20.0 20.138950733095186
20.2909 20.14014500872412
20.586 20.143218497450846
20.8855 20.14688980674333
21.1893 20.151337179681263
21.4975 20.155929257203866
21.8102 20.160556488246897
22.1274 20.1644995908635
22.4492 20.168135256927542
22.7758 20.170645548150986
23.1071 20.172058679713274
23.4432 20.17159002294099
23.7841 20.169745269868628
24.1301 20.16653370112303
24.4811 20.161670932552937
24.8372 20.15459611151317
25.1984 20.146859753068867
25.5649 20.137527993088156
25.9368 20.127202655887174
26.3141 20.11635242889747
26.6968 20.105411158290167
27.0851 20.09444241878154
27.4791 20.083874051658597
27.8788 20.07403748533585
28.2843 20.064056916676492
28.6957 20.055854604279688
29.1131 20.04782731768708
29.5365 20.040362367534954
29.9661 20.0338085575749
30.402 20.02653960050756
30.8442 20.01867732300559
31.2929 20.010428640613412
31.748 20.00132156007095
32.2098 19.990475469553104
32.6783 19.979284863964793
33.1536 19.96647395876859
33.6359 19.953120313362632
34.1251 19.93975199431557
34.6215 19.927199876953466
35.125 19.91610463884777
35.6359 19.90670155131525
36.1543 19.90045642417971
36.6802 19.89772233471004
37.2137 19.898612081075456
37.755 19.902896719415864
38.3041 19.910241670063087
38.8613 19.919964979487972
39.4265 19.93071042660719
40.0 19.940698768496304
40.5818 19.94941829954115
41.1721 19.954569058716416
41.771 19.95589720407027
42.3785 19.951843739836193
42.9949 19.943172733809718
43.6203 19.93008264156019
44.2548 19.91361165445653
44.8985 19.894231725559933
45.5515 19.874417407630403
46.2141 19.85508634943811
46.8863 19.838459858968008
47.5683 19.82565479828766
48.2602 19.817728500544817
48.9621 19.814432476348586
49.6743 19.81634715858671
50.3968 19.8217079150388
51.1299 19.829848669525447
51.8736 19.83949779213455
52.6281 19.847294815288734
53.3936 19.852458694659788
54.1702 19.852932551040283
54.9581 19.84784866610407
55.7575 19.837007499122734
56.5685 19.821877255738457
57.3914 19.803877960570546
58.2261 19.785609386369728
59.073 19.769422998705835
59.9323 19.75860020523608
60.804 19.754991218632398
61.6884 19.758651732778787
62.5857 19.767927363903496
63.496 19.779198777854887
64.4196 19.788470952143314
65.3566 19.79257363382304
66.3073 19.7884478639304
67.2717 19.7774771469104
68.2502 19.761141483823963
69.2429 19.744616415812416
70.2501 19.731517647428248
71.2719 19.72544815922113
72.3086 19.725092921385595
73.3603 19.73015656589564
74.4274 19.733407342490054
75.5099 19.732270945874404
76.6083 19.723897020736572
77.7226 19.711040837832954
78.8531 19.698148156005175
80.0 19.690702754893977
81.1636 19.693436818223134
82.3442 19.704596355291045
83.5419 19.72084666542213
84.757 19.734816052831547
85.9899 19.74204148451274
87.2406 19.74008220687297
88.5096 19.7326338305147
89.797 19.72395361850242
91.1031 19.71957295838341
92.4282 19.721499457944546
93.7726 19.727470875316456
95.1366 19.73417637125108
96.5204 19.737811216174677
97.9243 19.73766653487816
99.3486 19.735309625606405
100.794 19.73279633249038
102.26 19.731767390797344
103.747 19.73171557992346
105.256 19.73116355995319
106.787 19.729692596428848
108.34 19.728407120146798
109.916 19.72751532794588
111.515 19.729054661965705
113.137 19.731825570309937
114.783 19.73407564874576
116.452 19.734446084506146
118.146 19.7332148377849
119.865 19.73306527808822
121.608 19.73510058048042
123.377 19.73905959815866
125.171 19.7410269122461
126.992 19.73867988187284
128.839 19.733134731761083
130.713 19.72960013249768
132.615 19.73150711105967
134.543 19.736848604598137
136.5 19.73809457616042
138.486 19.733167484021635
140.5 19.726043603750085
142.544 19.723678410329313
144.617 19.7275685034343
146.721 19.73318369856989
148.855 19.7355787479938
151.02 19.735046576104367
153.217 19.735264593458638
155.445 19.736650039102585
157.706 19.737402851903283
160.0 19.735482352384338
162.327 19.73511123031227
164.688 19.73829346294727
167.084 19.74435470510872
169.514 19.74882949089681
171.98 19.74996587460791
174.481 19.74636463428274
177.019 19.742262290584975
179.594 19.742604201641953
182.206 19.747152302316394
184.856 19.748262203810512
187.545 19.747452921607476
190.273 19.750309372372357
193.041 19.755798044438606
195.849 19.755732218918695
198.697 19.753310293780572
201.587 19.755878491558803
204.52 19.759858905614166
207.494 19.76094137428332
210.512 19.763120669169
213.574 19.76610091924627
216.681 19.768692200410896
219.833 19.771603556829362
223.03 19.772335176092326
226.274 19.776300197620785
229.565 19.788271610809772
232.905 19.792377128142675
236.292 19.796441822034637
239.729 19.806468844166247
243.216 19.807635347802204
246.754 19.814126463340642
250.343 19.8314050053568
253.984 19.8393072721625
257.678 19.849700682387905
261.426 19.864584372429405
265.229 19.87704752802418
269.087 19.899110307823122
273.001 19.925912828087675
276.972 19.946390354062146
281.0 19.969762048127265
285.088 19.99816152389117
289.234 20.02731892895264
293.441 20.06427529331927
297.709 20.101917857313765
302.04 20.144778189008434
306.433 20.20361383327993
310.89 20.262419823748914
315.412 20.313938044088005
320.0 20.37951007139162
324.655 20.449780655024696
329.377 20.526423416346034
334.168 20.616503658000155
339.028 20.697220127303922
343.959 20.78713907948091
348.962 20.886534587784126
354.038 20.979372398976167
359.188 21.077251121285087
364.412 21.17601438447653
369.713 21.264785057807757
375.09 21.35428326816337
380.546 21.43094001257286
386.081 21.49979102051293
391.697 21.566592061330468
397.394 21.622574319437163
403.175 21.667337763912144
409.039 21.70475022694788
414.989 21.740326868525884
421.025 21.76424600886675
427.149 21.78076289192441
433.362 21.78900844071461
439.665 21.798943952198414
446.06 21.79911548096551
452.548 21.80548751213759
459.131 21.803811477890946
465.809 21.804674289605785
472.584 21.799813159720202
479.458 21.799361091417808
486.432 21.79983783404664
493.507 21.802973737835572
500.686 21.80863628015912
507.968 21.815750393523174
515.357 21.828322218665093
522.853 21.842474877526797
530.458 21.864277252042683
538.174 21.890521729888576
546.002 21.914475427516052
553.943 21.944590375423772
562.001 21.979833096191697
570.175 22.015391265809484
578.469 22.05310160718078
586.883 22.084299180043587
595.419 22.11892145098828
604.08 22.14743303081775
612.866 22.169898657675063
621.78 22.184328428605014
630.824 22.190305630403174
640.0 22.18725061918576
649.309 22.17622234341897
658.753 22.154359824691014
668.335 22.12574529250459
678.056 22.084611169420384
687.919 22.03683927493715
697.925 21.98020076757804
708.077 21.916559008329074
718.376 21.84519237968921
728.825 21.77592014833087
739.426 21.707101100327264
750.181 21.646142441502505
761.093 21.6049316896694
772.163 21.591335933515467
783.394 21.612537664079824
794.789 21.67599236141008
806.349 21.779318391478228
818.078 21.922148200690984
829.977 22.094668097642895
842.05 22.28529501905618
854.298 22.495055893186787
866.724 22.712653743961013
879.33 22.931850581815254
892.12 23.156890654929185
905.097 23.378287007880942
918.262 23.597840443771446
931.618 23.8165291997922
945.169 24.024678575020616
958.917 24.22604286107601
972.864 24.40274004769988
987.015 24.5545434136194
1001.37 24.665912896697407
1015.94 24.732334921353385
1030.71 24.74599731382534
1045.71 24.703429408004155
1060.92 24.60653150176178
1076.35 24.470484652344652
1092.0 24.300331456532973
1107.89 24.111621006268138
1124.0 23.91377039907141
1140.35 23.71759677735413
1156.94 23.533876705160807
1173.77 23.376443500553947
1190.84 23.259807373351492
1208.16 23.193651498285803
1225.73 23.194351793436425
1243.56 23.26444301720059
1261.65 23.39994844095888
1280.0 23.58409526608807
1298.62 23.799267577105084
1317.51 24.026446686941824
1336.67 24.24590819021695
1356.11 24.44839680056215
1375.84 24.63824486112685
1395.85 24.80893723932624
1416.15 24.96065385661933
1436.75 25.086848076867398
1457.65 25.1834956349293
1478.85 25.238696460869136
1500.36 25.243523484438526
1522.19 25.192593193991115
1544.33 25.1117312484744
1566.79 25.048740950450494
1589.58 25.058242800093737
1612.7 25.164419145764157
1636.16 25.339593004736216
1659.95 25.551319127865526
1684.1 25.755073731219852
1708.6 25.933954650734947
1733.45 26.070199728698285
1758.66 26.15080953959412
1784.24 26.17503717262312
1810.19 26.154033614988435
1836.52 26.124381595647677
1863.24 26.1303448189813
1890.34 26.180504151852546
1917.83 26.261822701038838
1945.73 26.334193898516034
1974.03 26.379127315315728
2002.74 26.384027880575672
2031.87 26.34115556346228
2061.43 26.26469457181554
2091.41 26.17944244598334
2121.83 26.130852181024665
2152.69 26.140421920028928
2184.01 26.195316735454753
2215.77 26.28702957757345
2248.0 26.418956992032733
2280.7 26.605393234703726
2313.87 26.840899731703573
2347.53 27.078665264509468
2381.68 27.261780988312196
2416.32 27.380328880657103
2451.46 27.454735371166365
2487.12 27.496040709996294
2523.3 27.498879056186198
2560.0 27.450263890454295
2597.24 27.378731757643507
2635.01 27.34387314148725
2673.34 27.373159243645603
2712.23 27.425191828756184
2751.68 27.43185445571234
2791.7 27.344262304812915
2832.31 27.166435186212837
2873.5 26.974471953225816
2915.3 26.846750212001012
2957.7 26.78062966689103
3000.72 26.718944301335583
3044.37 26.623385303098487
3088.65 26.51045141061431
3133.58 26.414408630214695
3179.16 26.34322808961457
3225.4 26.270859989553458
3272.31 26.17261565633433
3319.91 26.06025300660177
3368.2 25.946964600355997
3417.19 25.8521213623158
3466.89 25.78439251745654
3517.32 25.727864905845422
3568.48 25.668066996746205
3620.39 25.600539434175843
3673.05 25.539424098054283
3726.47 25.504806050090735
3780.67 25.490747663205
3835.67 25.486059282879566
3891.46 25.47438283016578
3948.06 25.45470707675355
4005.49 25.45248279830426
4063.75 25.493660934509847
4122.86 25.57157755043643
4182.82 25.61249840233033
4243.66 25.60600959540136
4305.39 25.630055234220734
4368.01 25.70544063392228
4431.55 25.73710235781998
4496.01 25.702281720333673
4561.4 25.65540961040449
4627.75 25.617916897816926
4695.06 25.60865001818634
4763.35 25.640001290184557
4832.64 25.642584281617374
4902.93 25.575510406607975
4974.24 25.53496867143562
5046.6 25.54340263544313
5120.0 25.557758400408176
5194.47 25.54008580006696
5270.03 25.499277438741373
5346.68 25.50597436927366
5424.45 25.52558654772706
5503.35 25.49321032185486
5583.4 25.512654271395547
5664.61 25.559186997853033
5747.01 25.53886216722283
5830.6 25.452626886740163
5915.41 25.18418009568728
6001.45 24.872307586479934
6088.74 24.835055763200117
6177.3 24.93843216585219
6267.15 25.07198226183705
6358.31 25.22821122499569
6450.8 25.417599472328476
6544.62 25.51395637114021
6639.82 25.649802289730147
6736.4 25.783432348146277
6834.38 25.86751592949895
6933.79 25.992651658700026
7034.64 25.92098410172831
7136.96 25.868113145743052
7240.77 25.835074935706487
7346.09 25.74888929908309
7452.94 25.65372428022954
7561.35 25.579992476564527
7671.33 25.50141472348298
7782.91 25.360402944047024
7896.12 25.15036989346312
8010.97 25.009542633246298
8127.49 24.848617319811666
8245.71 24.799219719819988
8365.65 24.786670088349638
8487.33 24.856516614477883
8610.78 24.91863287483379
8736.03 24.916956638698608
8863.09 24.873905880905014
8992.01 24.733518386647333
9122.8 24.53766448303209
9255.5 24.26637295899478
9390.12 24.131954728483052
9526.7 23.97556014102466
9665.27 23.862485688347974
9805.86 23.687777544495887
9948.49 23.52111368761331
10093.2 23.461743119084403
10240.0 23.4482934863141
10388.9 23.67564516213598
10540.1 23.854347299768634
10693.4 24.044273992444133
10848.9 24.29825297811614
11006.7 24.65954466477693
11166.8 25.118649027144286
11329.2 25.66748199314401
11494.0 26.232240403790115
11661.2 26.807363377724258
11830.8 27.350738415443075
12002.9 27.789170455552664
12177.5 28.132661497882467
12354.6 28.33410850863808
12534.3 28.46262008394271
12716.6 28.57961620696358
12901.6 28.682408879932154
13089.2 28.760498914676532
13279.6 28.828647059671965
13472.8 28.924294338922422
13668.8 29.04354847870802
13867.6 29.154399584911317
14069.3 29.241588933260232
14273.9 29.329232761246118
14481.5 29.408395224787142
14692.2 29.483277229904587
14905.9 29.547153627452104
15122.7 29.574239277324267
15342.7 29.59427367458386
15565.8 29.599214366148715
15792.2 29.56370660716125
16021.9 29.51340184085592
16255.0 29.427062628556754
16491.4 29.34277657974252
16731.3 29.2860637313876
16974.7 29.23384643054395
17221.6 29.236763682081232
17472.1 29.281681588912832
17726.2 29.292997500990325
17984.0 29.265590521235723
18245.6 29.2361038959519
18511.0 29.235286890259005
18780.2 29.22205895951889
19053.4 29.190454915302283
19330.5 29.117615135939886
19611.7 28.99522153218946
19897.0 28.905369929410966
