Freq,Floor Bounce,Ceiling Bounce,Front Wall Bounce,Side Wall Bounce,Rear Wall Bounce,Total Early Reflection
20.5078,55.58483236400727,43.570179773719445,51.25881802253437,51.236085478413514,50.290160810647194,51.80712001949621
21.9727,60.90922075243512,55.40538670683452,58.384196495719806,58.3239060727897,58.18602838937588,58.582670305134286
23.4375,62.723934064840336,58.814857590976885,60.80785551617353,60.635004128618704,60.26330061814062,60.83355220346098
24.9023,63.15721182933379,59.9959129629554,61.55910856086635,61.36222174133448,60.94104946793536,61.52908584955438
26.3672,63.17394530863109,60.464680759002164,61.74810026907758,61.59037417509907,61.166510062742674,61.72350751286319
27.832,63.8913722628391,61.20422408766558,62.45757446994551,62.42178129410337,62.19945688599702,62.521870917032004
29.2969,65.91844641331292,63.2529478481662,64.55493314862085,64.53165593862508,64.3935027092183,64.61357631526852
30.7617,67.80985916963293,65.36229655709207,66.61876114655206,66.4908860656266,66.16091208979384,66.56216528296261
32.2266,69.01407075953189,66.76359554295823,67.95831677458571,67.76972877401184,67.31661173150773,67.83036306495954
33.6914,69.66418069985713,67.60793468419112,68.70452921281279,68.53568374973926,68.13533934526406,68.58402532583776
35.1563,70.4147136492912,68.49976292220506,69.51611215208871,69.39432422064229,69.08267945664396,69.42711421279962
36.6211,71.58161430082446,69.72681434143256,70.71714517090736,70.61412648040313,70.32004519464995,70.63429704987232
38.0859,72.94634650599471,71.1303013175147,72.11421856346423,72.02145582953374,71.75680527785215,72.03385759397389
39.5508,74.0392763474401,72.27709800646451,73.24838084867102,73.11989411417076,72.80998654691433,73.13769333988014
41.0156,75.21405876420954,73.48039820952626,74.46446666910265,74.28760748453404,73.87215623018113,74.30365080067796
42.4805,75.99510312391517,74.28613898786142,75.27229427796176,75.08426191207296,74.63771711865998,75.09467488102032
43.9453,76.85385481602874,75.28049260976204,76.18993757244918,76.01849708127992,75.6241405855319,76.02654730702503
45.4102,77.62454605147505,76.0977284265858,76.98510276964817,76.81774189103281,76.43782232315321,76.82373118201312
46.875,78.45464080376134,76.9750749715435,77.8407837666491,77.6789752478165,77.30634196527272,77.68041446554851
48.3398,79.28662655040333,77.83401927207218,78.69271571499752,78.52270415377012,78.11703648485833,78.5195945503045
51.2695,80.92163211729992,79.50850085922612,80.35567888229644,80.18153863815513,79.7828005865106,80.17755933561874
52.7344,81.70621092978485,80.32072981408847,81.15955508383745,80.97788092762059,80.56827410183735,80.97343050845357
54.1992,82.38917458054712,81.04566791957527,81.86086842474752,81.6849335825047,81.30483107809621,81.68207586673583
55.6641,83.00802120477309,81.68520119580222,82.49307257425629,82.31327957265862,81.93293037197877,82.31088262036953
58.5938,84.15617727039387,82.85313936018501,83.65906885679564,83.46956675262123,83.08302581638114,83.46817529707936
60.0586,84.63436785638251,83.33046507946558,84.14067377852908,83.94778614065899,83.55466253804576,83.9457366852257
62.9883,85.51414134137468,84.25184872670714,85.04410532639858,84.84985372814785,84.45627674879609,84.8461552571004
64.4531,85.95553159451701,84.70460049976909,85.49183332710402,85.29839411397506,84.91822060087362,85.29604819389098
67.3828,86.68454877310414,85.44423064653382,86.23437394170534,86.03277194682393,85.65674735302234,86.03256604804017
68.8477,86.94439699028105,85.71152527425542,86.50396251615766,86.29183597777387,85.90084861521822,86.29271907342127
71.7773,87.34924566964334,86.1506012679094,86.93471687364745,86.69991102673504,86.25953826436141,86.7012882426687
74.707,87.79056793725064,86.63645810855286,87.39801561412266,87.15673595134754,86.69601134591798,87.15735131012917
77.6367,88.06891831766384,86.95222464970257,87.68610611770413,87.46252592646016,87.0806826913713,87.46916157953062
79.1016,88.17453705510185,87.03972581981867,87.78960519196319,87.56037368482922,87.18567268996642,87.56945591167124
82.0313,88.35442556873754,87.21969347897358,87.98902394658683,87.71717405990846,87.25160059672281,87.72823682168257
84.9609,88.40259841177759,87.27768946655895,88.04528192086978,87.7648109945827,87.20103921401306,87.76225321942651
87.8906,88.48543301323693,87.39150672601653,88.1196160786335,87.90153762340117,87.51219983432738,87.90053676959475
90.8203,88.08136708865001,86.98022472964456,87.6972074333172,87.55111632475433,87.58057141709315,87.59235007391075
95.2148,88.85860642161295,87.78038598509337,88.55823664543976,88.18627015055947,87.44854296399174,88.19617203613018
98.1445,88.39948437795998,87.2982177052962,88.06681581511438,87.77322691121543,87.37690179271043,87.80285934025918
101.074,88.25324573983033,87.16867999686147,87.94659402436666,87.59501724240667,87.07748191607655,87.63145605904026
105.469,88.58214693704072,87.49800474797055,88.27472991639799,87.93110873575297,87.48084710551733,87.97489402391699
108.398,88.2438524275062,87.14181511542361,87.9421263682625,87.57867484627108,87.12443269591793,87.62858972540188
112.793,88.71454832503612,87.65360442460833,88.44987524315371,88.0263202375222,87.47407549757202,88.08884989958338
117.188,88.48727361791478,87.42563056007961,88.22647251922703,87.7728188621027,87.14976124001731,87.84042505164929
120.117,88.80013598982845,87.7905407464883,88.55792873028777,88.12202473905411,87.55968133819978,88.19064803136361
124.512,88.37453339143633,87.31794311482848,88.1299683249148,87.67578461164508,87.0809068192032,87.74275627618688
128.906,88.3868684993927,87.27866454938547,88.12809191099285,87.63213860065946,86.87354521889702,87.69451907686656
133.301,88.40664042550256,87.31226805640081,88.139357644221,87.67345493378812,87.04513176708767,87.74465983404338
139.16,88.16586719830849,87.07224113303441,87.91411310772286,87.41843823522524,86.92536420758076,87.52546797464205
143.555,88.147313127035,86.99682880119762,87.8993239955361,87.33946018063928,86.74260887569292,87.45750275712045
147.949,88.09996657266568,86.9137420018529,87.85556005239586,87.25184750145252,86.60166834620969,87.38094052840228
153.809,88.12801408613676,86.91924552966165,87.90711710776057,87.2241175210866,86.39030057543948,87.36024173020387
159.668,88.2369986226995,87.07753877566839,88.03115603524523,87.347908068125,86.41310463779675,87.47083150421147
165.527,88.16553625283305,87.02580341537598,87.97156931448254,87.28562944970716,86.47387412460874,87.4284255474981
171.387,88.02327743246138,86.88298985645619,87.84323579817497,87.12533996948916,86.29042073672326,87.27915686903197
177.246,87.8665120212647,86.74286736073574,87.69835892719581,86.94578176479259,86.11844173825804,87.12133938148568
183.105,87.68429954023665,86.48384712432811,87.51746853437831,86.6792205404754,85.8078561459079,86.88905838034336
188.965,87.77485626299307,86.63517551557922,87.65799452851023,86.75355987081684,85.65273959204607,86.96201791376656
196.289,87.77302581259312,86.70299912459413,87.67727085335653,86.79322312005668,85.68543256042152,86.99114471471931
203.613,87.6085188396336,86.49821618951447,87.53566313917531,86.53201183773443,85.3011847203341,86.77419500122653
210.938,87.63003549457271,86.44024929718569,87.53461311255778,86.52584812091243,85.09472283096628,86.73832568276983
218.262,87.498901871971,86.39430398045118,87.41992601167911,86.42411173566771,85.09742457051854,86.65122775255921
225.586,87.42434885307263,86.273602922023,87.37789913860895,86.22831632315902,85.02257552245213,86.55301489636804
232.91,87.70331707635282,86.46555052000106,87.64303558786325,86.41242296044999,84.59807707932967,86.70182785248197
241.699,87.75939826639828,86.37890968824324,87.61491743990344,86.46106950558169,84.59868708078452,86.70206314463609
250.488,87.90938463103586,86.32619406726775,87.73580671921593,86.50958975796689,84.50557775267137,86.75902774108272
259.277,88.03550010242992,86.51413334259271,87.87330054722449,86.72066348359085,84.66143148176471,86.91889032086033
268.066,87.72657415519126,86.0902101265252,87.52004232851395,86.31498613921808,84.36422549560046,86.56113684106785
276.855,87.74785361589991,86.44267124013399,87.81161507902713,86.48288321892541,84.33898868518145,86.73366406605378
287.109,87.75093787745429,86.4845284425095,87.79406572499198,86.43220104482619,84.22428498311798,86.71522522834844
297.363,87.77399640029923,86.33821864007027,87.7470021803534,86.21761427159771,83.86331256766952,86.60207514831441
307.617,87.99772287051914,86.54559443317932,87.94558574828288,86.71674514426785,83.93964224377999,86.85273964265394
319.336,87.84578293327544,86.28687948367221,87.83746989323816,86.4335848662499,83.57296277320216,86.64564592714176
329.59,88.13079770917398,86.49633201586093,88.01692157004317,86.79699157434376,83.6752597165713,86.88662900259719
341.309,87.33914371332465,85.63285661555962,87.19123663050529,85.88528570722364,83.72452674172985,86.13833096546306
353.027,87.48099867445121,85.59035590416671,87.57333677362288,85.7457260463878,83.03396477631742,86.17134050317674
366.211,87.63503294327067,85.85489395051121,87.72328755621014,86.07518171436469,82.66757948876821,86.32865743829817
379.395,88.00184021494803,86.29553608232969,88.0847712220795,86.66913265169886,82.97119453271516,86.74565377048589
392.578,87.4398270559833,85.93756359476106,87.5067859140494,86.1327606631807,82.9389636393773,86.268443167049
405.762,87.33140583885942,85.33928623583081,87.43414820367381,85.21173964793653,82.78438509813532,85.92980439963601
420.41,88.14125738916718,85.75662235411966,88.10027065959896,86.11661015878514,82.16739187013695,86.52745371028772
435.059,87.71543732546294,85.59768504733705,87.71423434713616,86.04262972719155,82.49375287950716,86.28227106972392
451.172,87.93163283165806,85.27268884290098,87.88901684669734,86.23235604069569,82.03387384375111,86.33988732422054
465.82,87.70957418168688,85.4825764328652,87.76392296189874,86.3078103318206,81.52056246465459,86.25391131431248
483.398,87.36870794961378,85.0855772205096,87.37689240612876,86.04889310042952,81.61581711817328,85.93823456491167
499.512,87.51198454858476,84.83420849323784,87.57655465073636,85.97843876256002,81.48384768721102,85.97143275834313
517.09,87.97347665403674,85.30890532573325,88.01392422623908,86.6309289316537,81.62895955176958,86.44538040109751
536.133,87.20183344734244,84.36143353530015,87.55425447063875,85.82827662001971,81.30021510778259,85.76342095187081
555.176,87.63814924530205,84.91243782862423,87.96843041638833,86.34044097506194,80.63201510606902,86.15540901050912
574.219,87.92308959872312,84.8932391542343,88.1639084121767,86.62512761385341,81.12443588387886,86.38079460789486
594.727,87.3458077931341,84.76041729382304,87.49384946485488,86.056875038121,81.48963338123829,85.90574120389113
615.234,87.52931206176645,84.7501594410345,87.97201189584567,85.86579863879527,80.50929294363068,85.99891499272275
637.207,87.61852577358962,84.13165290479273,87.92902400561057,86.01874415166188,81.40590504554356,86.01104478892097
659.18,87.91412267517302,84.54287713419558,88.42672167865531,85.89631170394716,80.33554625412395,86.22439145586415
682.617,87.3288566944942,84.3423671591791,88.07333292981949,85.74680324829212,80.85945502722103,85.91409765308111
707.52,87.6382146394045,84.47568158943251,88.27187042672011,85.45400871336714,80.75096862252413,86.0259403259182
732.422,88.11474824306639,84.61766901100242,88.79117980530481,85.61417059623267,80.64487754101695,86.38437454439688
757.324,88.0568417229625,84.49840837071011,88.89347596260338,85.43095257214253,80.89280037608394,86.37114653253097
785.156,88.69587388853321,84.99250305707861,89.40708600423118,85.8078489208275,80.3215195149926,86.84349008691498
811.523,88.32981612031188,84.168082414454,89.2044528395218,85.59980683340973,80.01100742591335,86.50846231159335
840.82,87.90909082822293,83.76154694350178,88.93322190000548,85.39934824732532,78.78270267156296,86.14919283118562
870.117,87.72093664961793,83.80283472970925,88.82826489054293,85.54175178176507,79.08378836909459,86.09483619528748
900.879,87.69309221049215,83.22050808813496,88.77306798261586,85.13652115521911,79.24252693259116,85.93736850889572
933.105,87.71157828779417,82.82395278259042,88.77729690390464,85.25583821196037,78.58971342431371,85.89799112759171
965.332,87.8489783647563,83.09681019558299,88.66254886123943,85.22688800455272,77.86162796768988,85.8942839847393
1000.49,87.90408523689355,83.81232012797832,88.3803264601921,84.82469766214076,77.2986818604472,85.8066237168867
1035.64,87.33042060220023,83.6624339365338,87.97526272328712,84.53997213786377,75.97335323924554,85.37717299655355
1072.27,86.82283199739747,82.97896346676656,87.37830434660245,83.93558735601547,75.86424166268989,84.80752266788554
1108.89,86.45573165080933,82.92097120924367,86.43630863222333,83.09009572764325,75.14499996464603,84.19845937179758
1148.44,86.15522332467621,83.15507146315383,86.5275791658927,82.80935317830367,74.70808833479727,84.11426416639107
1189.45,86.21663998304172,83.27126554175476,86.74931659353851,82.61376716488633,74.77552877533033,84.20454321499587
1230.47,86.43397845806467,83.82955456819491,86.81240705086822,82.53163742818876,74.2520609956114,84.3686622721867
1274.41,86.2158004148393,84.42602015659564,86.81032921555324,82.67001990234519,73.947808026221,84.42474469742831
1319.82,85.54103410417555,84.68874481474373,86.18861350039832,81.70275152769767,73.78016254821353,83.94521802379644
1366.7,85.02925919613688,84.36399586770843,85.64530266582626,81.23838349558626,73.42513168833949,83.47681290834392
1413.57,83.99156849840894,83.906928859727,85.45078196181014,80.91970236486988,73.23032251877667,82.97543831231386
1463.38,82.85117305296741,84.31759583265193,85.41844661272852,80.83961516032679,72.65658267201923,82.79222967301966
1516.11,80.50238790276197,83.29071861497728,86.24341082619372,82.03952723845735,73.9602218398801,82.70207616747768
1568.85,79.995080430748,80.2637337467026,87.44820788352827,83.28937303841097,75.43325533440682,83.05367055945074
1624.51,81.1059953499661,79.41539132072067,87.62300104392277,83.37303483665846,75.3507498224567,83.20814397468646
1681.64,82.22605871003358,79.28305579969877,86.85354985324184,82.74446366796705,74.54281484695977,82.80075556749381
1741.7,81.4110415954336,79.81462906070757,86.8815620185465,82.53259300964996,73.73425388869543,82.67035842909982
1803.22,81.2407176448895,80.89382009940294,87.3156122552678,83.21378344737957,75.11581093196664,83.16790464318596
1866.21,82.19578250821296,79.65727103371465,86.86175478708404,83.12395749610653,74.90285290041567,82.92220809491683
1932.13,82.54911966779389,79.54111409981113,86.02909100966131,81.8453090264816,74.83090624719978,82.32470038936019
1999.51,82.71955128339155,78.44764050826727,86.03335753137766,81.28425419717021,73.89889449135809,82.13316238581308
2069.82,81.58421965332275,77.79935191067716,87.23100069999191,82.7604678678256,73.54136236671962,82.76119123464598
2143.07,81.29510977229299,72.636184660157,86.9949023995051,81.56128647002676,73.9423671597373,82.157654725035
2219.24,81.1823251844669,74.37923540448458,86.07362397603315,81.2375033827701,75.13744058188172,81.63890551687294
2296.88,78.22564735508419,73.24709499959515,86.94362301928666,82.85365258213253,74.16629254120015,82.04835248985611
2378.91,80.33405222111658,72.26961708027446,87.43382410462995,83.09882877943097,72.68561729590931,82.5593552668702
2462.4,78.45140830755578,69.79438225773326,86.55022134094372,82.76071857316505,72.26283946659143,81.68551442083557
2548.83,78.3590149035005,73.38721072384882,86.08176846976119,82.41433647448008,72.14400431220939,81.37833858399782
2639.65,78.13067715959458,73.4937533121393,86.43998252243551,82.6297317927354,72.11060156688595,81.62808723870627
2731.93,78.12292306485394,76.1944709886106,86.07413575338224,82.30843537853289,71.49486189879904,81.4349293426335
2828.61,77.57186904290859,77.35829824530452,85.47961042565086,81.9228264436945,71.05228459073747,81.02565743096105
2928.22,77.23420304921463,78.1060535148204,85.26372981223923,81.79382586220885,70.86195302891494,80.91254433177335
3030.76,77.42736060285011,79.85017555703936,84.85942343619857,81.32952360204919,70.81611675796051,80.83466691998962
3137.7,77.603979572706,81.31311517328159,85.43936245615828,81.52774144829446,70.79492197173268,81.44239310834442
3249.02,78.02678314617282,82.693438753824,85.2642779047326,81.43553976463424,70.59055274836558,81.67973542851595
3363.28,78.74001922168627,82.59901402912774,85.04783165287,81.35383056195911,70.69648036777258,81.61244632539815
3481.93,79.57251945799929,81.75061317029687,84.78908441345875,81.06590678123194,70.25946036492203,81.33501124391182
3604.98,80.24897446201318,81.01095889281429,84.9685906503476,81.17180134584206,70.17978638472837,81.38274345106561
3732.42,80.64487356272554,79.583535087848,85.15380706197608,81.34535465426755,70.82095252322296,81.35377449481265
3864.26,80.76224343457065,79.42435279819159,85.88493806336163,81.758623851556,70.60246413796736,81.7948234073739
4000.49,81.12661512814518,79.48580913608507,86.26320509256843,82.21201551172751,71.20640575372131,82.15400858057794
4141.11,81.80140137200257,80.54542794321748,86.48595459282485,82.52556487231638,71.30555893073056,82.56435179479001
4287.6,81.91079591780121,80.15725291804134,85.66397195300934,82.10567648934023,70.95203489420571,82.05347465423608
4438.48,82.63144150030688,80.91440842020486,85.39917915474072,82.34105852739063,70.60751889516548,82.23411955328379
4595.21,82.61487078207469,81.10696580101633,85.22084362277606,82.46712561089642,71.04591846617356,82.2196695125388
4756.35,82.67238814265444,81.21107255484046,85.02476854007017,83.16585490674844,70.99288856368193,82.33041447659578
4924.8,84.45566082575817,81.48245420079246,85.0940893767348,83.36044539720149,71.83502199690854,82.89974073661574
5097.66,84.77394076991351,81.67641051228503,84.4043145440973,83.67445912911383,71.90554903280179,82.88495604465248
5277.83,84.72954963987135,81.78307924512653,85.06725251741219,83.75530573334572,71.95721189876603,83.10560337521562
5463.87,84.74917020841214,82.36119901107604,84.78667971144846,83.79787320003511,72.20038242298935,83.13086114029164
5657.23,84.83387201533114,82.82170118002952,84.88298063222973,83.73730306246652,71.19315234391986,83.23577169902163
5856.45,84.88573842912682,83.41048973505278,85.10918985930634,83.20418027716119,71.28484303170184,83.32104708569972
6062.99,84.50352220006808,83.5453102213026,84.94852401865914,83.19028289499596,71.07395562003025,83.1892139788881
6276.86,84.74035816262305,83.55394357486821,84.64101880767058,83.08588245954743,71.14028570093757,83.14793889051731
6498.05,84.4841701811232,83.64127676020857,84.8480572872663,83.20070697196864,71.32679052283959,83.18054795469759
6726.56,84.43814559754088,83.37563745888374,85.29231715848294,83.55627459238094,71.48736635715207,83.322471075556
6963.87,84.71341687630091,83.20029474014537,85.36485325027921,83.77178624090243,71.26125166161745,83.42667279801849
7209.96,84.30616489251929,83.20970312779865,85.34506993078898,83.7333815273249,71.10513470069802,83.30592761333287
7464.84,84.3098704836508,83.21622748241866,84.74840227640702,83.2879449666315,70.91253428524078,83.02524833297171
7727.05,84.40766898260246,83.33997701229282,84.225504705821,83.13051980911898,70.5823400100582,82.89280101156483
7999.51,84.65085662282308,83.43612669153586,84.38432376610973,83.1909492534619,70.22237557753638,83.0356512363063
8282.23,84.8149405908355,83.25378541818462,85.07181738755538,83.1328456803958,70.05709109711069,83.23015097914133
8573.73,85.40450205856193,83.43670675041892,85.44737139433424,83.09693998387499,69.8588890251233,83.54868561794018
8876.95,85.52750095390644,83.50426493803316,85.44261172230327,82.8634157127627,69.90569316614399,83.55815008470455
9188.96,85.70233469894714,83.34624155765084,85.38633815608938,82.45473395335256,69.66376510299531,83.4974622898713
9514.16,85.35703066545949,83.57156558228218,85.28613851489497,82.13904149629082,68.68339321844796,83.34336970141824
