Freq "Floor Bounce"
20.5078 55.2075444852194
21.9727 60.53193287364725
23.4375 62.34664618605247
24.9023 62.77992395054592
26.3672 62.79665742984322
27.832 63.51408438405123
29.2969 65.54115853452505
30.7617 67.43257129084506
32.2266 68.63678288074402
33.6914 69.28689282106926
35.1563 70.03742577050333
36.6211 71.20432642203659
38.0859 72.56905862720684
39.5508 73.66198846865223
41.0156 74.83677088542167
42.4805 75.6178152451273
43.9453 76.47656693724088
45.4102 77.24725817268718
46.875 78.07735292497347
48.3398 78.90933867161546
51.2695 80.54434423851205
52.7344 81.32892305099698
54.1992 82.01188670175925
55.6641 82.63073332598522
58.5938 83.778889391606
60.0586 84.25707997759464
62.9883 85.13685346258681
64.4531 85.57824371572914
67.3828 86.30726089431627
68.8477 86.56710911149318
71.7773 86.97195779085547
74.707 87.41328005846277
77.6367 87.69163043887598
79.1016 87.79724917631398
82.0313 87.97713768994967
84.9609 88.02531053298972
87.8906 88.10814513444906
90.8203 87.70407920986214
95.2148 88.48131854282508
98.1445 88.02219649917211
101.074 87.87595786104247
105.469 88.20485905825285
108.398 87.86656454871833
112.793 88.33726044624825
117.188 88.10998573912691
120.117 88.42284811104058
124.512 87.99724551264846
128.906 88.00958062060484
133.301 88.02935254671469
139.16 87.78857931952062
143.555 87.77002524824714
147.949 87.72267869387781
153.809 87.75072620734889
159.668 87.85971074391163
165.527 87.78824837404518
171.387 87.64598955367352
177.246 87.48922414247683
183.105 87.30701166144878
188.965 87.3975683842052
196.289 87.39573793380525
203.613 87.23123096084574
210.938 87.25274761578484
218.262 87.12161399318313
225.586 87.04706097428476
232.91 87.32602919756495
241.699 87.38211038761041
250.488 87.532096752248
259.277 87.65821222364205
268.066 87.34928627640339
276.855 87.37056573711205
287.109 87.37364999866642
297.363 87.39670852151136
307.617 87.62043499173127
319.336 87.46849505448758
329.59 87.75350983038611
341.309 86.96185583453678
353.027 87.10371079566335
366.211 87.2577450644828
379.395 87.62455233616016
392.578 87.06253917719543
405.762 86.95411796007156
420.41 87.76396951037931
435.059 87.33814944667508
451.172 87.5543449528702
465.82 87.332286302899
483.398 86.99142007082591
499.512 87.1346966697969
517.09 87.59618877524888
536.133 86.82454556855457
555.176 87.26086136651418
574.219 87.54580171993526
594.727 86.96851991434623
615.234 87.15202418297858
637.207 87.24123789480176
659.18 87.53683479638515
682.617 86.95156881570634
707.52 87.26092676061663
732.422 87.73746036427852
757.324 87.67955384417463
785.156 88.31858600974535
811.523 87.952528241524
840.82 87.53180294943506
870.117 87.34364877083006
900.879 87.31580433170429
933.105 87.3342904090063
965.332 87.47169048596844
1000.49 87.52679735810568
1035.64 86.95313272341237
1072.27 86.4455441186096
1108.89 86.07844377202146
1148.44 85.77793544588835
1189.45 85.83935210425385
1230.47 86.0566905792768
1274.41 85.83851253605143
1319.82 85.16374622538768
1366.7 84.65197131734901
1413.57 83.61428061962107
1463.38 82.47388517417954
1516.11 80.1251000239741
1568.85 79.61779255196014
1624.51 80.72870747117823
1681.64 81.84877083124572
1741.7 81.03375371664573
1803.22 80.86342976610163
1866.21 81.81849462942509
1932.13 82.17183178900602
1999.51 82.34226340460368
2069.82 81.20693177453488
2143.07 80.91782189350512
2219.24 80.80503730567904
2296.88 77.84835947629632
2378.91 79.95676434232871
2462.4 78.07412042876791
2548.83 77.98172702471263
2639.65 77.75338928080672
2731.93 77.74563518606607
2828.61 77.19458116412072
2928.22 76.85691517042676
3030.76 77.05007272406225
3137.7 77.22669169391813
3249.02 77.64949526738495
3363.28 78.3627313428984
3481.93 79.19523157921142
3604.98 79.87168658322531
3732.42 80.26758568393767
3864.26 80.38495555578278
4000.49 80.74932724935731
4141.11 81.4241134932147
4287.6 81.53350803901334
4438.48 82.25415362151901
4595.21 82.23758290328682
4756.35 82.29510026386657
4924.8 84.0783729469703
5097.66 84.39665289112564
5277.83 84.35226176108348
5463.87 84.37188232962427
5657.23 84.45658413654327
5856.45 84.50845055033895
6062.99 84.12623432128021
6276.86 84.36307028383519
6498.05 84.10688230233534
6726.56 84.06085771875301
6963.87 84.33612899751304
7209.96 83.92887701373142
7464.84 83.93258260486293
7727.05 84.03038110381459
7999.51 84.27356874403522
8282.23 84.43765271204764
8573.73 85.02721417977406
8876.95 85.15021307511857
9188.96 85.32504682015927
9514.16 84.97974278667162
9849.61 84.70617797428334
10196.8 84.56476623726041
10555.7 84.23735779412492
10927.7 83.91526495282055
11313.0 83.7811052068713
11712.9 83.60209788813948
12126.0 83.14054185220022
12553.7 82.83760509584128
12996.1 82.74763286146656
13454.6 82.59389545880494
13929.2 82.68569750059719
14419.9 82.45741753245433
14928.2 82.20311334758598
15455.6 81.86434112868349
16000.5 81.77356023414077
16564.5 82.02382704364534
17148.9 82.20624972662782
17752.4 82.46255834142737
18379.4 82.71707303186795
19026.9 82.78335859394129
19697.8 83.09932822680756
19999.5 83.84481640804543
