Freq,On Axis,Listening Window,Sound Power,Early Reflections,Early Reflections DI,Sound Power DI,DI offset
20.5078,64.31692727272724,64.36313857862149,65.61517900739031,64.74410658297353,39.61903199564796,38.74795957123118,40
21.9727,68.44812727272725,68.46405985757622,69.27311094152289,68.60874196625119,39.85531789132503,39.19094891605333,40
23.4375,70.25092727272724,70.26808602025497,70.89016744574141,70.36171751062514,39.90636850962983,39.37791857451356,40
24.9023,72.56952727272724,72.5801647938467,72.96806223086615,72.58416842751657,39.99599636633013,39.61210256298055,40
26.3672,75.08102727272724,75.08200597869771,75.34807718367846,75.03946150550856,40.04254447318915,39.73392879501925,40
27.832,75.89042727272727,75.89143167338702,76.04756167050967,75.78417499940213,40.10725667398489,39.84387000287735,40
29.2969,78.31392727272724,78.3086341107198,78.45627637138212,78.23353138865698,40.07510272206281,39.85235773933768,40
30.7617,79.88922727272724,79.87769795155297,79.84393350697702,79.70455192322217,40.173146028330805,40.03376444457595,40
32.2266,80.95602727272724,80.94740065551383,80.97263399140255,80.82040225806533,40.1269983974485,39.974766664111286,40
33.6914,82.17492727272725,82.16042418017211,82.05605144490558,81.97554848889769,40.18487569127443,40.10437273526654,40
35.1562,82.96672727272724,82.95159769193378,82.82916207194386,82.76574920638791,40.185848485545876,40.12243561998993,40
36.6211,83.63702727272725,83.62048175519963,83.4868513232126,83.43703089675006,40.183450858449575,40.13363043198703,40
38.0859,84.04762727272725,84.02670406909093,83.79588991198351,83.79374393623347,40.23296013285746,40.23081415710742,40
39.5508,84.56382727272725,84.54229788200418,84.31202405545258,84.32094804454282,40.22134983746136,40.230273826551596,40
41.0156,84.76252727272724,84.73821365340201,84.45495147782052,84.48937358371184,40.248840069690175,40.2832621755815,40
42.4805,85.14102727272724,85.1149887747286,84.8039913017181,84.85622237949829,40.25876639523031,40.3109974730105,40
43.9453,85.33262727272725,85.30560078630519,84.97979310808688,85.0428572174273,40.262743568877895,40.32580767821831,40
45.4102,85.58092727272725,85.55119493383265,85.16914195244863,85.26262059615846,40.28857433767419,40.38205298138402,40
46.875,85.82022727272725,85.79132718846454,85.42218290559123,85.5104811948776,40.28084599358694,40.36914428287331,40
48.3398,86.06602727272724,86.03376593964006,85.63052683650182,85.73823226368597,40.29553367595409,40.40323910313825,40
51.2695,86.51382727272724,86.47834291473391,85.99784541575451,86.15059930870913,40.32774360602478,40.4804974989794,40
52.7344,86.54292727272724,86.50548158357824,85.99345084832908,86.1641499172644,40.34133166631385,40.51203073524917,40
54.1992,86.76972727272727,86.73152661669316,86.20413385589916,86.38432265806097,40.34720395863219,40.527392760794,40
55.6641,86.97932727272725,86.93995575027746,86.40874317617256,86.59125034796195,40.34870540231552,40.5312125741049,40
58.5938,87.45102727272725,87.41127573590286,86.89709370602256,87.07093770034778,40.34033803555508,40.5141820298803,40
60.0586,87.62922727272725,87.58733394059784,87.05905879636035,87.24181695415635,40.345516986441496,40.5282751442375,40
62.9883,88.03562727272724,87.98944465478831,87.39933850411404,87.61423825348851,40.375206401299806,40.59010615067427,40
64.4531,88.19312727272722,88.14536886310279,87.54444849743624,87.76495347156302,40.38041539153977,40.60092036566655,40
67.3828,88.54242727272725,88.48954877079125,87.82314989632704,88.07285365035139,40.416695120439854,40.66639887446421,40
68.8477,88.77202727272723,88.71743303901226,88.03200431728283,88.29030160277593,40.42713143623634,40.68542872172944,40
71.7773,89.26862727272724,89.20984729144226,88.44896310036124,88.75043348159232,40.459413809849934,40.76088419108102,40
74.707,89.68522727272725,89.62463443053034,88.83771684734246,89.15821583222271,40.46641859830763,40.78691758318787,40
77.6367,89.98382727272724,89.92195624111139,89.16713692006051,89.4712161633745,40.45074007773688,40.754819321050874,40
79.1016,90.13232727272725,90.06715339264053,89.27307170119705,89.59708893308806,40.470064459552475,40.79408169144348,40
82.0312,90.42892727272725,90.35855841384206,89.48418093466724,89.85128451222081,40.50727390162125,40.874377479174825,40
84.9609,90.64892727272725,90.57440624234081,89.61877781334974,90.0263409714825,40.54806527085832,40.955628428991076,40
87.8906,90.68952727272725,90.61492639531369,89.70431142781905,90.08266265539794,40.53226373991575,40.91061496749464,40
90.8203,90.75752727272724,90.6757062037583,89.75245984130714,90.13678676556358,40.53891943819471,40.92324636245115,40
95.2148,90.98332727272725,90.89683945992138,89.84841679219588,90.2931070925705,40.60373236735089,41.048422667725504,40
98.1445,90.88372727272724,90.79021104564698,89.66860813623798,90.15817478936887,40.63203625627811,41.121602909409006,40
101.074,90.90592727272724,90.8044793370031,89.6309891391019,90.14514463499896,40.659334702004145,41.1734901979012,40
105.469,91.07942727272724,90.96413578941385,89.4462583569329,90.1522366216225,40.81189916779134,41.517877432480944,40
108.398,91.39992727272724,91.27668377205663,89.57631204835351,90.38256028757844,40.894123484478186,41.700371723703114,40
112.793,91.63682727272725,91.51514693742496,89.8150917917931,90.62717237237253,40.88797456505243,41.700055145631865,40
117.188,91.48862727272724,91.36634890075338,89.579003400626,90.44379560090016,40.92255329985322,41.78734550012739,40
120.117,91.42412727272725,91.29908975944781,89.45858678472592,90.3555151937696,40.943574565678205,41.840502974721886,40
124.512,91.29102727272725,91.17055283486398,89.43587118796512,90.27552391632412,40.895028918539865,41.73468164689886,40
128.906,90.90142727272725,90.7749624096243,89.08389400493095,89.89180020970997,40.883162199914324,41.69106840469334,40
133.301,90.73022727272725,90.59408440237415,88.79160219198545,89.65971623815935,40.9343681642148,41.8024822103887,40
139.16,90.47312727272725,90.32794730827533,88.29671064987595,89.28664576212998,41.04130154614535,42.03123665839938,40
143.555,90.00942727272725,89.86750839049739,87.87044994163867,88.83695388907006,41.03055450142733,41.99705844885872,40
147.949,89.63492727272724,89.48849144027409,87.52101328189562,88.45821583946426,41.03027560080983,41.96747815837847,40
153.809,89.60192727272727,89.42735902722578,86.91412101347319,88.16516322384085,41.26219580338493,42.513238013752584,40
159.668,89.73342727272724,89.56567062104075,86.98091579658654,88.2802669419023,41.285403679138454,42.58475482445421,40
165.527,89.60182727272725,89.4402334864409,86.91711743392472,88.18331388629304,41.25691960014787,42.52311605251619,40
171.387,89.25992727272724,89.09471526544306,86.56407302251938,87.84841162522397,41.24630364021908,42.530642242923676,40
177.246,88.53572727272724,88.38122047464151,85.92367485739001,87.18827395995385,41.19294651468766,42.4575456172515,40
183.105,87.44592727272723,87.28245774994038,85.10923016685179,86.1849885919072,41.09746915803318,42.17322758308859,40
188.965,87.73192727272725,87.51301780648359,84.99790779055617,86.21423044615555,41.298787360328035,42.51511001592742,40
196.289,89.42472727272724,89.15928024894599,85.77054410518443,87.43815601449509,41.7211242344509,43.38873614376156,40
203.613,89.48862727272726,89.24943622154275,85.44749875165914,87.45115631834172,41.798279903201035,43.80193746988361,40
210.938,89.84562727272723,89.62610315991087,85.77169286866913,87.82641074403233,41.79969241587854,43.854410291241734,40
218.262,89.61812727272725,89.42508197514978,85.85928553086686,87.76086290984193,41.66421906530785,43.565796444282924,40
225.586,90.98152727272725,90.75086093345502,86.92680800934303,88.92464754084705,41.82621339260797,43.82405292411198,40
232.91,91.41592727272725,91.21734481683968,87.08425958188467,89.3377310334834,41.87961378335629,44.13308523495502,40
241.699,90.64292727272725,90.4667713817552,86.51823214893706,88.6813495471674,41.785421834587794,43.948539232818135,40
250.488,90.63892727272724,90.43681109565514,86.55966616541986,88.67718703211492,41.75962406354023,43.87714493023529,40
259.277,91.36192727272724,91.1470420342375,86.93479152416133,89.23910830711041,41.90793372712709,44.212250510076174,40
268.066,89.84252727272724,89.65973300723704,86.02157477616517,88.0117619981691,41.64797100906793,43.63815823107187,40
276.855,89.09652727272724,88.91025183376702,85.40757631125861,87.33755299662872,41.572698837138304,43.50267552250841,40
287.109,88.94742727272724,88.7216919617702,84.99090257931093,86.95475969562447,41.76693226614573,43.73078938245928,40
297.363,89.38342727272726,89.17465056294378,85.27183374453539,87.35961107615178,41.815039486792,43.9028168184084,40
307.617,89.06762727272725,88.86119136932565,84.67916217240558,87.00219776231937,41.85899360700628,44.18202919692007,40
319.336,89.61462727272723,89.36043317875668,84.94317774952266,87.3374828647201,42.02295031403658,44.41725542923402,40
329.59,89.19482727272725,89.0093039973369,84.73696577312512,87.02710417546145,41.982199821875454,44.27233822421178,40
341.309,88.96522727272725,88.72750335982991,84.71363215610538,86.81775088569087,41.90975247413904,44.013871203724534,40
353.027,89.23972727272727,88.9842198403112,84.72198463364651,86.97112027734886,42.01309956296234,44.262235206664684,40
366.211,88.67712727272723,88.36401142824332,84.69748268666802,86.76009723587157,41.60391419237175,43.66652874157529,40
379.395,90.05172727272725,89.7347603214745,85.2428756718189,87.64971103937302,42.08504928210148,44.4918846496556,40
392.578,88.99852727272724,88.71641219282594,84.51524022890484,86.72125407258031,41.995158120245634,44.2011719639211,40
405.762,89.41222727272725,88.95496081478485,84.35652187767536,86.82674392966607,42.12821688511879,44.59843893710949,40
420.41,89.66312727272725,89.20036643120156,83.96064398154796,86.59395888013592,42.606407551065644,45.2397224496536,40
435.059,88.47532727272724,88.01000272136794,83.30077271720215,85.3871390962322,42.622863625135736,44.70923000416579,40
451.172,88.87072727272725,88.51775972106645,83.85156273603684,86.32679651512747,42.190963205938985,44.666196985029615,40
465.82,89.01142727272725,88.47222334571599,83.84532756425581,86.21831219641695,42.25391114929904,44.62689578146018,40
483.398,89.02882727272726,88.5351100810528,83.3032838065448,85.57554289239842,42.95956718865439,45.23182627450801,40
499.512,88.42562727272724,87.97065108438758,83.74186767421905,86.31275677035678,41.6578943140308,44.22878341016853,40
517.09,89.74642727272725,89.22797928933483,84.52139640709764,87.2123070034441,42.01567228589073,44.706582882237186,40
536.133,88.86742727272724,88.37270317393508,83.64328652103828,86.5600508872294,41.812652286705685,44.7294166528968,40
555.176,88.08252727272725,87.70382260053475,83.31712184830708,86.21404277530094,41.48977982523381,44.38670075222767,40
574.219,88.11102727272726,87.82445165873911,83.77456133709943,86.75591248296111,41.068539175778,44.04989032163968,40
594.727,87.85712727272724,87.53481885750304,83.88550006347026,87.12434676771576,40.41047208978728,43.64931879403278,40
615.234,88.94412727272724,88.56599339125582,83.39413243730694,86.89355763657294,41.67243575468288,45.17186095394888,40
637.207,89.82412727272722,89.46574001123106,84.52427219605327,88.06428673731793,41.401453273913134,44.94146781517779,40
659.18,88.62922727272723,88.29242262946381,84.24208615002651,87.77085153166648,40.521571097797334,44.050336479437306,40
682.617,88.53972727272725,88.16464095611937,83.37877912483097,87.14989776837557,41.014743187743804,44.7858618312884,40
707.52,89.22992727272725,88.75014856908054,83.46014006085605,87.14466793218985,41.60548063689069,45.29000850822449,40
732.422,88.00962727272724,87.91239033390514,83.24531395419334,87.11990119957123,40.792489134333906,44.6670763797118,40
757.324,89.29752727272725,88.70729793153575,82.70877159361245,86.63429092878636,42.07300700274939,45.998526337923295,40
785.156,89.29572727272725,88.83165872417403,83.23500755801378,87.01055550091945,41.82110322325458,45.59665116616026,40
811.523,89.61622727272726,89.03372778579838,83.42662028888275,87.27559476947118,41.75813301632719,45.60710749691563,40
840.82,89.26642727272724,88.5982662457685,82.82688817820387,86.77588928381704,41.82237696195146,45.771378067564626,40
870.117,88.85132727272725,88.60026465643577,83.42338060870975,87.48583654231236,41.11442811412341,45.17688404772602,40
900.879,88.83512727272725,88.36331547024112,83.04739988088639,87.35592078057034,41.007394689670775,45.31591558935473,40
933.105,89.32422727272724,89.00676758638143,84.28663413193165,88.26109899370952,40.745668592671905,44.72013345444978,40
965.332,90.25142727272724,89.52715817765049,84.09612713853325,88.2182396882859,41.308918489364586,45.431031039117244,40
1000.49,89.73042727272724,89.36694837287605,84.67246074063343,88.27172162004733,41.09522675282872,44.69448763224263,40
1035.64,89.32892727272724,88.81082072153727,83.89714300260118,87.60315842811693,41.20766229342034,44.913677718936086,40
1072.27,88.05362727272724,88.19353724110195,83.77608614065397,87.04290706031438,41.15063018078757,44.41745110044798,40
1108.89,87.71502727272724,87.51970287187102,82.37098975924394,86.30100656222916,41.21869630964186,45.14871311262708,40
1148.44,87.91292727272725,87.49587886823147,81.60005575949528,85.34236130284006,42.15351756539141,45.895823108736195,40
1189.45,87.48512727272725,86.97245095336706,80.87707986182946,84.840283311083,42.13216764228406,46.0953710915376,40
1230.47,87.51412727272725,87.06182350680298,80.5218965130732,84.23800834050975,42.82381516629323,46.53992699372978,40
1274.41,86.39412727272725,86.30322129686135,79.99263096091839,83.65689359005245,42.646327706808904,46.31059033594296,40
1319.82,87.12432727272724,86.2823142603597,79.1492850244777,82.75370878397918,43.52860547638052,47.13302923588199,40
1366.7,87.28822727272724,86.53129030959893,79.00978957066954,82.70485977531766,43.82643053428127,47.52150073892939,40
1413.57,87.46092727272725,86.54561268279978,78.6437845071832,82.51576375146887,44.02984893133092,47.901828175616586,40
1463.38,86.03372727272725,85.48304054826335,78.1501886981275,81.61117019572262,43.871870352540725,47.33285185013585,40
1516.11,86.61912727272724,85.48461544285098,78.1570596601254,81.40635839131274,44.078257051538245,47.32755578272558,40
1568.85,86.84672727272726,85.70909283931414,78.09075324878971,81.44832607607344,44.260766763240696,47.61833959052443,40
1624.51,87.84852727272724,86.9194491685019,78.9507292395244,82.42562016387681,44.493829004625084,47.96871992897749,40
1681.64,89.60542727272724,88.59052225968418,80.33778069233298,84.15096508089178,44.4395571787924,48.252741567351194,40
1741.7,91.02742727272727,89.73016535083258,81.45820254694874,85.31933581527116,44.41082953556142,48.27196280388384,40
1803.22,91.72372727272725,90.3857132883887,82.18172349567085,86.10596999596999,44.279743292418715,48.20398979271785,40
1866.21,90.52712727272724,89.62808306245311,82.22820063827872,86.03467187917121,43.5934111832819,47.39988242417439,40
1932.13,90.38732727272725,89.27229693867818,82.07734884039228,86.01739021442583,43.25490672425235,47.194948098285906,40
1999.51,90.88192727272724,89.87626873723144,82.74796066648645,86.7075524851495,43.168716252081936,47.12830807074499,40
2069.82,91.49342727272725,90.60052486655937,83.22795994956324,87.23863236129924,43.36189250526013,47.372564916996126,40
2143.07,91.72682727272725,90.85341408208859,83.30371741602657,87.3540449117802,43.499369170308384,47.54969666606202,40
2219.24,90.89182727272724,90.02964357114398,82.81664525034702,87.03308577493634,42.99655779620764,47.212998320796956,40
2296.88,89.91732727272725,89.1101139859676,82.4871163386051,86.5877479786444,42.5223660073232,46.622997647362496,40
2378.91,89.84332727272725,89.04348064855995,82.25529406923312,86.2686367660709,42.77484388248905,46.78818657932683,40
2462.4,90.82692727272725,90.21740647282276,82.98734243122541,86.77304329048127,43.44436318234149,47.230064041597345,40
2548.83,90.41162727272724,90.14359757161165,83.08376739450097,86.84031406571651,43.30328350589514,47.05983017711068,40
2639.65,89.59162727272727,89.14067472719853,82.69251224307669,86.67473698977362,42.46593773742491,46.44816248412184,40
2731.93,88.92172727272724,88.5153188012537,82.30112447159273,86.31838480267741,42.196933998576284,46.21419432966097,40
2828.61,89.28222727272725,88.97082104120798,82.43439862967767,86.35566554323904,42.61515549796894,46.53642241153031,40
2928.22,89.88582727272724,89.6686943883413,82.87165033852962,86.74648988352769,42.92220450481361,46.797044049811674,40
3030.76,90.28152727272726,89.84724741091868,82.90181241205997,86.7896783137964,43.05756909712228,46.945434998858715,40
3137.7,90.32602727272723,89.72756925216049,82.59904390535932,86.61803352819153,43.10953572396896,47.12852534680117,40
3249.02,90.13422727272726,89.30751354177286,82.11356915599109,86.37926222434312,42.92825131742974,47.193944385781776,40
3363.28,90.08892727272725,89.2935071005395,81.78285004580343,86.08858563493247,43.20492146560703,47.51065705473607,40
3481.93,90.48332727272725,89.71726232689814,81.93248734343759,86.18483544676872,43.53242688012942,47.78477498346055,40
3604.98,90.90242727272725,89.98868568370072,82.27934663035768,86.51735704443101,43.471328639269714,47.709339053343044,40
3732.42,91.85172727272725,90.76312143419264,82.6821145704282,86.87533283896177,43.88778859523087,48.08100686376444,40
3864.26,91.03572727272724,90.16325097607906,82.44252383105922,86.74425883300464,43.41899214307442,47.720727145019836,40
4000.49,90.46592727272724,89.58082943092776,82.15122706757245,86.48878665580224,43.09204277512552,47.429602363355315,40
4141.11,91.22022727272724,90.18351076248565,82.33355999008215,86.54320301814741,43.640307744338244,47.8499507724035,40
4287.6,91.04792727272725,90.06152757796465,82.14476585548258,86.27118187760544,43.79034570035921,47.91676172248208,40
4438.48,91.22522727272725,90.20101062233611,82.11844345069211,86.27234692691286,43.92866369542325,48.082567171644,40
4595.21,90.40252727272724,89.63957658134728,81.64526429371219,85.71150516111487,43.92807142023241,47.9943122876351,40
4756.35,90.92592727272725,90.04305158569291,82.0153551517543,86.09978923649706,43.94326234919585,48.0276964339386,40
4924.8,90.76902727272724,90.08971682762174,81.93814185128414,86.00421021390449,44.08550661371726,48.1515749763376,40
5097.66,90.24892727272724,89.43752588024938,81.5612382932439,85.7137327590986,43.72379312115078,47.87628758700548,40
5277.83,90.59102727272725,89.50527143349551,81.51137018186101,85.79243062022466,43.712840813270844,47.9939012516345,40
5463.87,90.59062727272723,89.54283653580495,81.45797019136185,85.71886878073433,43.823967755070626,48.0848663444431,40
5657.23,90.68832727272725,89.80597411117768,81.55910074513012,85.81951358665737,43.98646052452031,48.24687336604755,40
5856.45,89.99822727272725,89.30434253841761,81.27319847125628,85.50620636022128,43.79813617819633,48.031144067161335,40
6062.99,90.95852727272725,90.15769593953512,81.9027809091025,86.1241571080846,44.033538831450514,48.25491503043261,40
6276.86,90.34632727272725,89.66843163084428,81.5537751295734,85.7410266350281,43.927404995816175,48.114656501270886,40
6498.05,90.79032727272724,89.93572386832493,81.7014868695905,85.93946935929382,43.996254509031104,48.23423699873443,40
6726.56,91.29022727272726,90.50278436889664,82.06671133380904,86.2789176667123,44.22386670218434,48.4360730350876,40
6963.87,90.87822727272724,90.24414451646994,81.77746243290522,86.01518518439207,44.22895933207788,48.46668208356472,40
7209.96,91.62982727272724,90.8211707996096,82.20815023103779,86.46024028658553,44.36093051302407,48.61302056857181,40
7464.84,91.55942727272725,90.95407660513762,82.27181608993406,86.55753017455447,44.39654643058314,48.68226051520355,40
7727.05,92.09072727272726,91.24121176363704,82.4972727335767,86.90273886830079,44.33847289533625,48.743939030060346,40
7999.51,92.31852727272725,91.55812600079585,82.69697613375143,87.12365939211769,44.434466608678164,48.86114986704442,40
