Freq "On Axis"
20.5078 64.31692727272724
21.9727 68.44812727272725
23.4375 70.25092727272724
24.9023 72.56952727272724
26.3672 75.08102727272724
27.832 75.89042727272727
29.2969 78.31392727272724
30.7617 79.88922727272724
32.2266 80.95602727272724
33.6914 82.17492727272725
35.1562 82.96672727272724
36.6211 83.63702727272725
38.0859 84.04762727272725
39.5508 84.56382727272725
41.0156 84.76252727272724
42.4805 85.14102727272724
43.9453 85.33262727272725
45.4102 85.58092727272725
46.875 85.82022727272725
48.3398 86.06602727272724
51.2695 86.51382727272724
52.7344 86.54292727272724
54.1992 86.76972727272727
55.6641 86.97932727272725
58.5938 87.45102727272725
60.0586 87.62922727272725
62.9883 88.03562727272724
64.4531 88.19312727272722
67.3828 88.54242727272725
68.8477 88.77202727272723
71.7773 89.26862727272724
74.707 89.68522727272725
77.6367 89.98382727272724
79.1016 90.13232727272725
82.0312 90.42892727272725
84.9609 90.64892727272725
87.8906 90.68952727272725
90.8203 90.75752727272724
95.2148 90.98332727272725
98.1445 90.88372727272724
101.074 90.90592727272724
105.469 91.07942727272724
108.398 91.39992727272724
112.793 91.63682727272725
117.188 91.48862727272724
120.117 91.42412727272725
124.512 91.29102727272725
128.906 90.90142727272725
133.301 90.73022727272725
139.16 90.47312727272725
143.555 90.00942727272725
147.949 89.63492727272724
153.809 89.60192727272727
159.668 89.73342727272724
165.527 89.60182727272725
171.387 89.25992727272724
177.246 88.53572727272724
183.105 87.44592727272723
188.965 87.73192727272725
196.289 89.42472727272724
203.613 89.48862727272726
210.938 89.84562727272723
218.262 89.61812727272725
225.586 90.98152727272725
232.91 91.41592727272725
241.699 90.64292727272725
250.488 90.63892727272724
259.277 91.36192727272724
268.066 89.84252727272724
276.855 89.09652727272724
287.109 88.94742727272724
297.363 89.38342727272726
307.617 89.06762727272725
319.336 89.61462727272723
329.59 89.19482727272725
341.309 88.96522727272725
353.027 89.23972727272727
366.211 88.67712727272723
379.395 90.05172727272725
392.578 88.99852727272724
405.762 89.41222727272725
420.41 89.66312727272725
435.059 88.47532727272724
451.172 88.87072727272725
465.82 89.01142727272725
483.398 89.02882727272726
499.512 88.42562727272724
517.09 89.74642727272725
536.133 88.86742727272724
555.176 88.08252727272725
574.219 88.11102727272726
594.727 87.85712727272724
615.234 88.94412727272724
637.207 89.82412727272722
659.18 88.62922727272723
682.617 88.53972727272725
707.52 89.22992727272725
732.422 88.00962727272724
757.324 89.29752727272725
785.156 89.29572727272725
811.523 89.61622727272726
840.82 89.26642727272724
870.117 88.85132727272725
900.879 88.83512727272725
933.105 89.32422727272724
965.332 90.25142727272724
1000.49 89.73042727272724
1035.64 89.32892727272724
1072.27 88.05362727272724
1108.89 87.71502727272724
1148.44 87.91292727272725
1189.45 87.48512727272725
1230.47 87.51412727272725
1274.41 86.39412727272725
1319.82 87.12432727272724
1366.7 87.28822727272724
1413.57 87.46092727272725
1463.38 86.03372727272725
1516.11 86.61912727272724
1568.85 86.84672727272726
1624.51 87.84852727272724
1681.64 89.60542727272724
1741.7 91.02742727272727
1803.22 91.72372727272725
1866.21 90.52712727272724
1932.13 90.38732727272725
1999.51 90.88192727272724
2069.82 91.49342727272725
2143.07 91.72682727272725
2219.24 90.89182727272724
2296.88 89.91732727272725
2378.91 89.84332727272725
2462.4 90.82692727272725
2548.83 90.41162727272724
2639.65 89.59162727272727
2731.93 88.92172727272724
2828.61 89.28222727272725
2928.22 89.88582727272724
3030.76 90.28152727272726
3137.7 90.32602727272723
3249.02 90.13422727272726
3363.28 90.08892727272725
3481.93 90.48332727272725
3604.98 90.90242727272725
3732.42 91.85172727272725
3864.26 91.03572727272724
4000.49 90.46592727272724
4141.11 91.22022727272724
4287.6 91.04792727272725
4438.48 91.22522727272725
4595.21 90.40252727272724
4756.35 90.92592727272725
4924.8 90.76902727272724
5097.66 90.24892727272724
5277.83 90.59102727272725
5463.87 90.59062727272723
5657.23 90.68832727272725
5856.45 89.99822727272725
6062.99 90.95852727272725
6276.86 90.34632727272725
6498.05 90.79032727272724
6726.56 91.29022727272726
6963.87 90.87822727272724
7209.96 91.62982727272724
7464.84 91.55942727272725
7727.05 92.09072727272726
7999.51 92.31852727272725
8282.23 92.22892727272725
8573.73 92.08822727272724
8876.95 91.32552727272724
9188.96 91.42182727272726
9514.16 91.31822727272724
9849.61 90.87972727272725
10196.8 90.77622727272725
10555.7 90.57012727272725
10927.7 90.79162727272723
11313.0 90.87222727272723
11712.9 90.66362727272724
12126.0 90.48632727272724
12553.7 90.01382727272724
12996.1 89.18142727272725
13454.6 89.37602727272724
13929.2 91.03992727272725
14419.9 90.78422727272725
14928.2 88.40172727272724
15455.6 87.50192727272724
16000.5 88.42342727272725
16564.5 89.84412727272726
17148.9 89.87582727272725
17752.4 88.77212727272725
18379.4 88.67632727272725
19026.9 88.54332727272724
19697.8 87.92792727272726
19999.5 88.02842727272724
