Freq "Early Reflections"
20.5078 78.09177834819648
21.9727 79.7667948593663
23.4375 81.74827175118828
24.9023 83.79228618745617
26.3672 85.27962553406549
27.832 87.00219687135676
29.2969 88.22399059041769
30.7617 89.58542026199605
32.2266 90.88213033955965
33.6914 92.10814172220758
35.1562 93.42642304414215
36.6211 94.4667019245973
38.0859 95.47784663202565
39.5508 96.06792339632561
41.0156 96.53717638242433
42.4805 96.73489776590363
43.9453 96.78771072867464
45.4102 96.74826471463659
46.875 96.67498597776812
48.3398 96.57942475821353
51.2695 96.4399577097292
52.7344 96.3969107106924
54.1992 96.38879905684597
55.6641 96.36914510853059
58.5938 96.41740386517175
60.0586 96.49442889128235
62.9883 96.59215291546825
64.4531 96.63992959352764
67.3828 96.79041471593496
68.8477 96.8091533454184
71.7773 96.82831715988048
74.707 96.92140214587747
77.6367 96.93777847719706
79.1016 96.97746796709204
82.0312 96.98867120564798
84.9609 97.0653785040223
87.8906 97.13839409322824
90.8203 97.17934401415103
95.2148 97.16496512303293
98.1445 97.1073959789086
101.074 97.12281494038812
105.469 97.14385196414521
108.398 96.99052166663351
112.793 96.70164430737668
117.188 96.74625875157315
120.117 96.70182998558604
124.512 96.62528483630702
128.906 96.4764333608949
133.301 96.49709443543306
139.16 96.4457515644769
143.555 96.28090278587189
147.949 96.005508697244
153.809 95.68274528211175
159.668 95.31439115339417
165.527 95.29060310452816
171.387 95.57450724388902
177.246 95.6819972664316
183.105 95.3928768683414
188.965 95.24839113984045
196.289 94.98244699958293
203.613 94.72388474137568
210.938 94.70807785806672
218.262 94.82078808868246
225.586 94.62610824219801
232.91 94.51375549417271
241.699 94.60533757700553
250.488 94.31755280346049
259.277 94.79716402729119
268.066 95.05898275319129
276.855 94.6069529997199
287.109 94.54500529382581
297.363 94.7371716251924
307.617 95.06723406497882
319.336 94.80008129038971
329.59 94.85477620975637
341.309 94.84581409530537
353.027 95.10047355462137
366.211 94.88147471104979
379.395 95.11153809197421
392.578 94.84968031023502
405.762 95.18694730769788
420.41 94.77771374703137
435.059 94.6315981602278
451.172 94.6006471386165
465.82 94.93681326126475
483.398 94.80684288150668
499.512 94.8238655836283
517.09 94.90950829475184
536.133 94.66738104844704
555.176 94.48872000026923
574.219 94.82885980368413
594.727 93.9014732368376
615.234 94.19373961730143
637.207 94.10515977798974
659.18 94.0536606498392
682.617 94.07453340864303
707.52 93.99707149160885
732.422 94.18046766247474
757.324 94.41503943135545
785.156 94.21472401081391
811.523 94.18513249952025
840.82 94.00859214814078
870.117 94.1110454781345
900.879 94.18612839066888
933.105 94.18955101655436
965.332 94.13199667304202
1000.49 94.31383527375654
1035.64 94.14899972086369
1072.27 94.48405433350253
1108.89 94.64319143839857
1148.44 94.61112971106002
1189.45 94.29233548863525
1230.47 94.18079909282301
1274.41 93.94396500210101
1319.82 94.23549736113361
1366.7 94.12262076454918
1413.57 93.94408970248125
1463.38 93.86179395898104
1516.11 93.48564737901306
1568.85 93.43867640814801
1624.51 93.40784773149517
1681.64 92.83172442057749
1741.7 92.310406278565
1803.22 92.68286070027796
1866.21 92.63686889537144
1932.13 91.9530287855583
1999.51 92.44104057831467
2069.82 92.87577864199021
2143.07 92.78898644394819
2219.24 93.07978405466082
2296.88 93.14641088428547
2378.91 92.9050433803759
2462.4 92.68433804763947
2548.83 93.04673231114262
2639.65 92.81328850182356
2731.93 92.75363651698927
2828.61 93.0090080246161
2928.22 93.14835365342624
3030.76 92.93482197711383
3137.7 93.43039685419481
3249.02 93.59533491341857
3363.28 93.92384685442433
3481.93 93.82030905692928
3604.98 93.55726409826495
3732.42 93.06454309929579
3864.26 93.06119962180772
4000.49 92.8731800732447
4141.11 92.95032377821667
4287.6 92.89597681167366
4438.48 92.95775195059736
4595.21 92.68132838920332
4756.35 92.7544602053952
4924.8 92.49471674928314
5097.66 92.40327072025777
5277.83 92.24667856717976
5463.87 92.43617705991484
5657.23 92.5067435138055
5856.45 92.36820855234168
6062.99 92.52041203932738
6276.86 92.60676825182081
6498.05 92.56506968714427
6726.56 92.76000916539307
6963.87 92.85775837093954
7209.96 92.99464242364687
7464.84 92.9610753343337
7727.05 92.89054937259304
7999.51 92.85809550574716
8282.23 92.79009172042392
8573.73 92.79351625301646
8876.95 92.88407854528016
9188.96 92.83049705147822
9514.16 92.52463566790321
9849.61 92.39568779972568
10196.8 92.27294590817276
10555.7 92.23112470954187
10927.7 92.01696137310445
11313.0 91.9246790527972
11712.9 91.84033819545489
12126.0 91.78496565322637
12553.7 91.6677892399046
12996.1 91.42984901496033
13454.6 91.27346137073432
13929.2 91.09665569489076
14419.9 90.95317953056146
14928.2 90.78806766472978
15455.6 90.75981172107525
16000.5 90.53988849852512
16564.5 89.80315438937049
17148.9 88.7371950609997
17752.4 88.48168733885372
18379.4 88.64507886534932
19026.9 88.62297609074265
19697.8 88.76295685065395
19999.5 88.88421823698478
