Freq,Floor Bounce,Ceiling Bounce,Front Wall Bounce,Side Wall Bounce,Rear Wall Bounce,Total Early Reflection
20.1416,56.74147574179169,52.330568301846526,54.525639303953156,54.67632362657538,54.889914062445044,54.853191823072265
20.5078,57.5605782893134,53.715929076832666,55.533942759894146,55.742194543515225,56.18642049756558,55.919217250647065
21.2402,58.877143157186524,54.23655874834937,56.73006941322315,56.77571026331144,56.78028965211469,56.921117866576864
21.9727,61.02277029401607,57.661042481710396,59.387256363747284,59.427535935192154,59.48435654984833,59.52510562943708
22.7051,61.67772218264592,58.37212021437061,60.02940076743731,60.11303729270965,60.30910372571519,60.22500496638112
23.8037,62.79470258790802,59.72160813247292,61.25641530710955,61.29632856339434,61.3867814517004,61.39913832143024
24.5361,63.83932369873962,60.924886065444056,62.40144906377519,62.41807824824913,62.434829262185346,62.50088783204937
25.2686,64.50583395894651,61.641528709688814,63.10043829708103,63.10137413212355,63.076397705581556,63.17917126027207
26.3672,65.8044521818742,63.176877756869985,64.50418308193703,64.52330742902747,64.56046718319269,64.59288169332432
27.0996,66.58024801205771,64.09248637417791,65.34056549028455,65.3719020729182,65.45816912094894,65.43955441616858
28.1982,67.58280010046478,65.2630655818707,66.42324489040219,66.45366295504583,66.53388709999906,66.51302105409427
29.2969,68.46562959136638,65.99233594722469,67.2464513244442,67.27663890519989,67.42121532631792,67.35056330565057
30.0293,69.50717733881402,67.12752566619747,68.38326242126973,68.33078725279972,68.21113236866655,68.37752413933947
31.1279,70.55284458180687,68.37803146536402,69.53185637954255,69.45860387576855,69.26272539594797,69.49250170292213
32.2266,71.4585707919836,69.38545622640491,70.4869905878226,70.41152649509425,70.21556628210233,70.44235623242008
33.3252,72.39720382294769,70.41237667275188,71.47526181998374,71.38900901092406,71.17015453763027,71.41570660536289
34.79,73.57610815535189,71.6644647056642,72.7012352881314,72.59872425981874,72.3371495159088,72.61974800868408
35.8887,74.34008313437671,72.46519211049069,73.49083326563955,73.37643109046985,73.0811866696962,73.39388199209107
36.9873,75.23298092982121,73.40073329539152,74.41444014246493,74.29228733786077,73.97714019135051,74.30511865925224
38.4521,75.84340141584615,74.06908169071026,75.0682239845189,74.90555848084654,74.49994764785828,74.91843051089084
39.917,76.83159421814374,75.11746586211238,76.08832319179378,75.92858487021273,75.5438128222252,75.94024194166911
41.3818,77.75533197138046,76.07799460527251,77.03674199507884,76.86755361731717,76.46965176451522,76.87861812620739
42.8467,78.65719197957726,77.01158328760623,77.96321960085024,77.78326268854812,77.35775005787656,77.79114846892152
44.3115,79.48615023255822,77.87880156534058,78.8151793743667,78.63109642886072,78.20112417923498,78.63768309127381
45.7764,80.26592632451246,78.68773130141507,79.61366792958184,79.4256193847745,78.99323451798962,79.43144009102299
47.2412,80.98902105831341,79.43415064963851,80.35344399983549,80.15851532621541,79.71364801797064,80.16342814187853
49.0723,81.84544519518577,80.31532867464033,81.22760514289133,81.0269358714874,80.57824215465982,81.03162189505925
50.9033,82.62507709405382,81.12615839037629,82.02659366496965,81.8210274659055,81.3644127158643,81.82467461262992
52.7344,83.33330684212922,81.85490548646452,82.74984164921365,82.53723059749463,82.07598972938432,82.54174664211256
54.5654,83.96330981260476,82.50338590689914,83.39285994642971,83.17607658594765,82.70630835979428,83.17946459852412
56.3965,84.56111734320086,83.12219731618315,84.0035989897019,83.78609314552052,83.3367341778438,83.79188763400603
58.2275,85.12336045866509,83.6946190497522,84.57912279188847,84.34511723881555,83.85825465838087,84.350726782554
60.4248,85.78272766441536,84.41524032498928,85.2680010698016,85.03728622506492,84.54971409672763,85.03917448221928
62.6221,86.29687111146625,84.94633340010265,85.792759240791,85.55838212661756,85.07172917570486,85.56129195833064
64.8193,86.75829184943976,85.42242648903262,86.2635759878335,86.0262572693208,85.54656211880683,86.03093163160203
67.0166,87.15798384728598,85.83061505889081,86.67122353844651,86.42755517117693,85.94383675327664,86.4336699242783
69.2139,87.51438618445705,86.20156100256183,87.03608255596646,86.79140277257791,86.32265750460752,86.79988921913383
71.7773,87.85894370595717,86.55203023342102,87.38834798233619,87.13489037221917,86.66574075582736,87.1466285890924
74.3408,88.1488993302504,86.84704959317548,87.68641503269404,87.42226515254468,86.94491831863031,87.43674273526558
76.9043,88.3849242826956,87.09072799358194,87.93118225019235,87.65666282123586,87.17031379432696,87.67373861270356
79.834,88.58262015442332,87.29447609358357,88.13693671483999,87.85119794842139,87.3556606740603,87.87137955334397
82.3975,88.70043558215254,87.41511257154407,88.26026024119726,87.96566067541072,87.46601381980864,87.98886959804271
85.3271,88.78555432088439,87.50102352818051,88.35047235181919,88.04657283451012,87.55037720443504,88.07424182516603
88.2568,88.85105684869824,87.56358643634822,88.42218060133213,88.10192762359328,87.596218046465,88.1350584492027
91.5527,88.99486921565189,87.7074840929679,88.56769931929499,88.24266600800254,87.7320597487487,88.27723338923762
94.8486,89.02491245534334,87.7296377246502,88.59835003560596,88.26443332374352,87.75243980587682,88.30267819665845
98.1445,88.97870435768255,87.67861524339793,88.55538549982626,88.20615242571483,87.67607520172258,88.24862907390025
101.44,88.87982787667565,87.57276578666124,88.45545277040735,88.1010197685871,87.57214082410498,88.14617808018046
105.103,88.76006724353475,87.44312006783228,88.33645751536004,87.97157120610845,87.46634212137876,88.0253863800938
108.765,88.66347359011358,87.30745524147257,88.2345573231939,87.84400283134322,87.32480541859219,87.90683571908305
112.793,88.5590647064272,87.14938981347946,88.12051467471274,87.70240072285004,87.1502532281014,87.77147990304178
116.455,88.4178731673529,86.96983468098387,87.97519057380477,87.52913886630122,86.95227490787465,87.60664023353645
120.85,88.34662547644993,86.84085031015117,87.91003138077372,87.4140000997191,86.73820051269388,87.49386488901243
124.878,88.34721599636036,86.89696350667317,87.94446732556493,87.42915858999983,86.72276388999695,87.51169248626269
129.272,88.29020819552805,86.8946979481444,87.9079871046137,87.39255388979127,86.66470747642812,87.47259606623828
134.033,88.1585417257738,86.76783424848236,87.7838777660426,87.24221738899975,86.47086643348037,87.32951968259013
138.794,88.02814618146165,86.60111367190365,87.64307771401404,87.08615503420263,86.31267902925825,87.18085810700317
143.555,87.87307350404956,86.37095266501596,87.47719409996617,86.87927620758407,86.06880087636688,86.98569818114099
148.682,87.94462855788528,86.50754134247377,87.60291013404995,86.96929395781272,86.08234603144174,87.0750771122769
153.809,87.94325221929958,86.61712060683395,87.63295567499048,87.02304601240566,86.26862032140548,87.14136142266105
159.302,87.67832083348448,86.2925201043855,87.35282547255352,86.69494616239942,85.94682536831543,86.84093592122066
164.795,87.459867515097,86.00657761083067,87.13519271786713,86.39461087487264,85.5628834751153,86.56840814466311
170.654,87.5304557044608,86.00397309381134,87.22095294574274,86.37181582841616,85.1765769801279,86.54206971071245
176.88,87.63610444574482,86.17608817591271,87.3464943680773,86.5156482831314,85.21967216545909,86.66249564578436
183.105,87.38855777677064,86.00023050030497,87.11188728840125,86.298764143482,85.16769042378998,86.4652630088733
189.331,87.18050026996406,85.71412559107704,86.86024753740354,86.04567545193473,85.06116441151192,86.23982275505246
196.289,87.00333381757139,85.44952695038637,86.67809515728968,85.79289982869376,84.85023291249517,86.02655554282747
202.881,86.72818777729658,85.16079653714485,86.40606725053678,85.48502525155114,84.42396232480185,85.72081536464192
210.205,86.62568093020668,84.9168931845082,86.3136281572067,85.2155431422051,84.01781589557345,85.52057778453721
217.529,86.91464992665807,85.367046397972,86.63156093311419,85.56143075789342,84.00705303421064,85.81480060927586
225.22,86.38170294232141,84.67212347379885,86.02020174526321,84.96134020437975,84.00846596681757,85.29681999498807
233.276,86.35471759882888,84.28516988706998,85.93861418629201,84.60641333683672,83.41423535655606,85.05439636849641
241.333,86.54732011665696,84.20950833385932,86.12068189204092,84.58444599086701,82.59025866472996,85.0336568376551
250.122,87.42210396698336,85.29731390615753,87.14200168312006,85.86288862947262,81.91069731151138,85.91025302295076
258.911,86.82772775646966,85.18864868338552,86.61927840566149,85.65437673834735,83.51339290017299,85.71312868371389
268.066,86.52063383403294,84.79634048704611,86.29790764457881,85.14706194842813,83.20580198470468,85.34851746368274
277.222,86.45534243088882,84.76026745470804,86.2859555728135,85.03441078821281,83.06645752137756,85.28378606334695
287.109,86.27100148652521,84.54374441223854,86.06548462864613,84.73198840320974,82.5929388486559,85.02854309223878
297.363,86.18093662772661,84.46577177909913,86.00334059971833,84.75107690836325,81.88166569386765,84.9021822033309
307.617,86.08190931488733,84.36394771089799,85.77364605828562,84.50715685322257,82.29907601034604,84.79665550095204
318.604,86.11590125124887,83.73898655908872,85.71566375486076,84.1703053555445,80.40742175742044,84.43844440347833
329.956,86.0982928772151,84.60108853342288,85.96269186048461,85.03681489469317,81.09491169608363,84.87983904916965
341.675,85.21129877984255,83.515490971857,84.9530639891842,83.98240803022527,81.70297894121703,84.04039601944851
353.394,84.43196390380841,82.8086962245207,84.3470204744769,82.95491155028962,81.48189904565695,83.33890639118648
365.845,85.06468227255493,82.48420345933266,85.08090503003763,82.6833288839605,80.8801940182811,83.53451309655381
379.028,86.01950749381683,83.32421048441803,86.08579658848778,83.75996890646051,80.7754149916267,84.40333107377546
392.212,86.57216374331016,84.66175122577864,86.55267715899893,84.93926796473797,80.3794091883437,85.10491701196382
406.128,86.2567271418897,84.38636248140625,86.31054007495263,84.69107766812994,80.61851410866002,84.86953507859748
420.41,86.4744375987825,84.65547161376942,86.52329786219032,85.63770342270982,80.30668916726668,85.20829225996765
435.425,85.64856593325578,84.2194189716778,85.64136420347286,84.80135208287628,81.5614657158506,84.60379266874806
450.806,84.93793320374341,83.13094330881857,85.10961828046604,83.7008835387945,81.13970573055975,83.82436402148227
466.553,86.29796707493718,83.64997248433929,86.23695307212017,84.28690759489861,79.94612566160077,84.61096130673876
483.032,86.12153101597166,83.94251664190148,86.1076976169062,84.7546331853437,79.9905265741675,84.66580793965382
499.878,85.92803877107603,83.92258056458692,85.88994137819249,84.6135178217559,80.19668666140755,84.53439397629485
517.456,86.0476728823932,81.93791206139167,85.82868977447971,84.46751706847134,80.13724973071142,84.23048876943126
535.767,85.92430364729059,82.41587051253113,85.87380060225581,84.5014141588248,80.79147549619697,84.32735477608139
554.81,86.58508309581411,82.47390266431893,86.44523167276031,84.01317820235766,80.16439796111737,84.56116717568601
574.219,86.53515356357602,83.6840286248443,86.83707435847411,85.15076692087945,79.89798102059268,85.02887548194755
594.727,86.05915805522132,83.20669630548751,86.33056352068036,84.56367541735983,80.17336478373166,84.57120057575405
615.601,86.41060781518992,83.2816319703618,86.7244649521384,83.7803947270752,79.98743279737211,84.65194982649892
637.207,87.45872083915606,84.04285117735525,87.75349262023991,85.15622388367738,80.4238795029557,85.67003980181521
659.912,88.81444069660559,84.96697606946664,89.28354793682134,86.41104258652781,81.4674149565267,86.99088337108195
682.983,88.50498177037626,85.13016520882431,88.90398490582565,85.6295918848376,80.73585233171126,86.61924555339074
707.153,87.43172627045676,84.36972753611582,87.77329851747922,84.8603749082542,79.47393400973283,85.6128285126622
732.056,88.00322524514533,84.55921100615997,88.19587421743114,85.14867102913897,80.92788692514296,86.08153464744366
757.69,88.54006805478241,85.19791376252475,89.06891536323377,85.37545050678474,80.15280781255494,86.62923322809782
784.424,88.17948274096368,84.96967680141616,88.83072991386756,85.83553034141751,79.7465825535982,86.46053710146838
812.256,87.04613419902942,84.67590499477468,88.15485399643184,84.72863640609329,79.694444440563,85.6683050252925
840.82,87.80690574618772,84.96821558277244,88.39704394438755,84.9809634835981,79.22425331953575,86.03639559189524
870.483,88.01808710370226,85.06680576219664,88.59309021345061,85.13046509300655,78.28224673738785,86.17253860042665
901.245,87.11140884757548,83.69127262089022,87.56558840860082,83.68684466960862,77.93571587809004,85.0918736986587
933.105,87.38601253659284,82.34393380218508,87.37307871361102,83.86027968425024,77.47795032107295,84.9544862841557
966.064,87.19400889152493,81.22983774028599,87.05032503279624,83.30584530372612,77.84229251147865,84.59023450196592
1000.12,86.3613070198982,81.70887302783565,86.49867349201315,82.68171309343766,76.94893131239522,84.02214478400899
1035.28,86.56102462085566,81.11181654021419,86.44352027453162,82.59118582959871,77.7737513488578,84.02978542877185
1071.9,86.78152893346773,77.71384258763679,86.42295309011772,82.33555196494916,75.8386389410423,83.74410697489002
1109.62,87.03613401532895,75.68704677472552,85.3696428418858,81.99486189899585,76.392331371783,83.37904538103118
1148.8,87.24953756857629,81.49999546424742,86.00703522426042,81.35078418532753,76.0704893245046,83.97167746078793
1189.09,85.99329909418138,83.35503749981159,85.05679030187406,81.16581573161787,73.89988538064931,83.38354826049407
1231.2,86.48978213132338,85.48548145703948,85.05852004346315,81.43127648285507,74.76601050677714,84.11209125296818
1274.41,84.85737411982569,86.75797728888404,85.25342661355435,81.178129424591,73.0681299870399,84.03701653810008
1319.46,84.2844924068254,87.75389668315711,85.87024690625667,81.87840137566458,73.48912669640036,84.55522267244652
1365.97,83.3959182053048,87.08569997260433,86.0065937356097,81.75367974251834,73.8551755453696,84.15808925029692
1414.31,83.41316952417355,86.69481359306023,86.97218651472822,82.70088749088733,74.74329917523032,84.47362657930056
1464.11,84.41519090733597,84.70053808932903,87.97037605319494,82.94408461831037,74.8089692929573,84.54981772937226
1515.75,86.22299151411495,82.5607819101838,88.5334848711182,83.1988521831464,74.78173105422809,84.9186260706814
1569.21,86.90556126705668,80.88470420769465,88.0767481717399,82.74950629997544,74.15370075297848,84.68221654621657
1624.51,86.49432474996472,82.8413434659601,87.3638828950063,82.05981240760968,74.90469799534004,84.39358659246705
1681.64,86.41896028598718,83.38648541448745,86.9404765648032,81.66013521198992,74.14109519523214,84.22719407258461
1740.97,86.08702831631238,83.83797637209004,86.35327694026303,81.75112426328427,73.88979688047014,83.99380179359177
1802.49,85.37665190225039,83.558409828369,87.57566620139116,82.61862796766259,74.16132248664498,84.32272459121577
1866.21,85.07158172543434,83.36358567458423,88.24910592092152,82.91525771167898,74.45466203849544,84.56426993894534
1931.76,84.56570639867955,82.55141106645694,87.7937105140462,82.70168047069183,73.5716528867814,84.07155700394087
1999.88,84.98114361780864,82.52770294636447,88.19731056971996,83.08028029991685,73.88879486859537,84.41487982150844
2070.56,85.76260119894624,82.12051353304024,88.63926064466263,83.62269157484619,73.60735411761308,84.84051251235404
2143.43,85.10938808451864,82.98711193509958,88.02468890474933,82.92353376258522,73.55531020128446,84.39806663706274
2219.24,84.17249971980871,82.85413554905182,87.84182111558896,83.01909116995644,72.91973417494744,84.09150088529756
2297.24,84.21910931623101,82.99984440140942,88.51356705105171,83.61101974595144,72.37259832126502,84.53564191185237
2378.54,83.98327882242582,82.8422412473971,88.18505383426452,83.2757418887387,72.33420919505289,84.25135444071127
2462.4,82.33289299452039,80.56378593009717,87.46423714623229,82.20727087546432,70.88697803332508,83.1014491528138
2549.19,81.96682778656968,80.55392373087626,87.62773641922321,81.94535037122753,70.36695152156192,83.08522976584113
2638.92,81.8445623635141,80.94342226078543,87.2764087071848,82.25015129821846,70.71523159578165,82.97094568918997
2731.93,80.69699539509001,81.79291211693294,86.03941574937353,81.81664004241883,71.17158103492308,82.22866401385579
2828.25,79.89639467293462,81.68823993057768,85.96418876327573,81.70328144397857,70.4694415748374,82.03661332041304
2928.22,78.54455483528517,81.91792997119948,86.26028863810319,81.92279636083428,70.02752266173793,82.12456137702848
3031.49,77.14506244595024,82.127421374794,86.38063552576416,82.08986020589687,69.69036080657675,82.15223835674458
3138.43,77.05368840810448,82.45828920749535,86.12954462565673,81.69979771965372,69.54526083761458,82.00818378253615
3249.02,78.15780425297808,82.00033061930385,86.66941778080604,81.71967565795916,69.44299316065899,82.28279022701297
3363.65,79.38651649769369,81.38346431158425,86.85735975534193,82.01115153382143,69.3430920376035,82.43943828982417
3482.3,80.48667003447731,81.10725703867693,87.4033430544677,81.72719585815979,69.41725006555686,82.78042933359569
3604.98,81.59990026470119,80.83869699514074,87.92006675671101,81.44638835603172,68.31844843800971,83.14543059764665
3732.06,83.1427004345998,81.49968051364885,88.49525967368982,81.27185794298295,68.11643542759262,83.78439337988185
3863.89,83.32724041618832,81.82473063201446,87.79876338489903,81.50606296946303,70.37376278321834,83.51061466369198
4000.12,83.6918673554844,81.6338353572274,86.66235978116514,82.58509673610685,71.64841516966264,83.17779597793334
4141.11,84.1163406279606,81.52281991077223,86.57700773270021,83.3756514135877,72.17900126036655,83.37958158614946
4287.23,84.93373412742834,81.53680737046149,86.15064520696312,83.68567859014918,72.09984044183372,83.48664093422747
4438.11,85.66603286001799,81.53205331298575,86.4705780757276,84.11625592395538,72.08218483916413,83.9049838487983
4594.85,86.28850272308689,81.90871770612164,86.28471170150384,84.33580938986307,71.51338312785607,84.12049067216142
4756.71,86.64608590689586,82.69794798462733,85.54229374343835,83.4411009550047,71.2158613205232,83.94612098797514
4924.44,86.90508248517311,83.42717516630312,85.2655251497122,83.67651442072868,70.53399256703118,84.12001215535174
5098.39,87.2577092422258,83.78712301570229,85.87187487047468,83.56927224066438,70.98307848143128,84.46396255132366
5278.2,87.54930334482344,84.3455558290075,86.64599979564075,83.94630221639784,71.28384769783513,84.9533621444033
5464.23,87.80265016370251,84.69801332967226,86.89180603921429,83.84842230729079,71.24510774905622,85.16578213912238
5656.86,87.8873067532352,84.9111639360786,86.91811646263116,83.62615776008353,71.59500786377464,85.21492478440602
5856.45,87.91781847844764,85.02265937408109,87.12939552891012,83.37127642979947,71.00119343489511,85.27187183563932
6062.99,87.72945566113658,84.81504198212099,87.47374889669058,83.6850566625438,70.67626500488076,85.31516993670678
6276.86,87.42188961860802,84.53542196026234,87.88400933640325,83.54657863195065,69.86835669542047,85.28088574656569
6498.05,86.96183583433942,84.50851359158275,87.52368014104864,83.32336317354631,69.3987949826947,84.96449769580035
6727.29,86.32161863503964,84.62553054590832,87.62904184406266,83.14905826241178,69.27456663641135,84.80888333018689
6964.23,85.60353734402715,84.64447337994785,87.4979596788878,82.65012729986101,69.36333949996254,84.50107955660775
7209.96,85.1535550901366,84.58763083784632,87.16468876900592,82.54439503678377,69.31085761473769,84.22897363726881
7464.11,85.4094929757558,84.16809360140618,87.38502842058354,82.32266490638001,68.29736351180559,84.26093505658619
