Freq "Ceiling Bounce"
20.1416 52.330568301846526
20.5078 53.71592907683264
21.2402 54.23655874834937
21.9727 57.661042481710396
22.7051 58.37212021437058
23.8037 59.72160813247292
24.5361 60.924886065444085
25.2686 61.641528709688814
26.3672 63.176877756869956
27.0996 64.09248637417788
28.1982 65.26306558187072
29.2969 65.99233594722467
30.0293 67.12752566619749
31.1279 68.37803146536403
32.2266 69.38545622640491
33.3252 70.41237667275186
34.79 71.6644647056642
35.8887 72.46519211049069
36.9873 73.40073329539153
38.4521 74.06908169071026
39.917 75.11746586211238
41.3818 76.0779946052725
42.8467 77.01158328760623
44.3115 77.8788015653406
45.7764 78.68773130141507
47.2412 79.43415064963851
49.0723 80.31532867464033
50.9033 81.12615839037629
52.7344 81.8549054864645
54.5654 82.50338590689915
56.3965 83.12219731618316
58.2275 83.69461904975219
60.4248 84.41524032498927
62.6221 84.94633340010263
64.8193 85.42242648903263
67.0166 85.8306150588908
69.2139 86.20156100256185
71.7773 86.55203023342101
74.3408 86.8470495931755
76.9043 87.09072799358195
79.834 87.29447609358358
82.3975 87.41511257154409
85.3271 87.5010235281805
88.2568 87.5635864363482
91.5527 87.7074840929679
94.8486 87.7296377246502
98.1445 87.67861524339793
101.44 87.57276578666124
105.103 87.44312006783227
108.765 87.30745524147257
112.793 87.14938981347946
116.455 86.96983468098388
120.85 86.84085031015118
124.878 86.89696350667319
129.272 86.89469794814441
134.033 86.76783424848237
138.794 86.60111367190363
143.555 86.37095266501596
148.682 86.50754134247377
153.809 86.61712060683394
159.302 86.29252010438552
164.795 86.00657761083069
170.654 86.00397309381135
176.88 86.1760881759127
183.105 86.00023050030495
189.331 85.71412559107702
196.289 85.44952695038636
202.881 85.16079653714486
210.205 84.9168931845082
217.529 85.367046397972
225.22 84.67212347379886
233.276 84.28516988706997
241.333 84.20950833385933
250.122 85.29731390615753
258.911 85.18864868338554
268.066 84.79634048704611
277.222 84.76026745470804
287.109 84.54374441223855
297.363 84.46577177909911
307.617 84.36394771089797
318.604 83.7389865590887
329.956 84.60108853342287
341.675 83.515490971857
353.394 82.80869622452069
365.845 82.48420345933268
379.028 83.32421048441803
392.212 84.66175122577864
406.128 84.38636248140625
420.41 84.65547161376941
435.425 84.2194189716778
450.806 83.13094330881857
466.553 83.6499724843393
483.032 83.94251664190149
499.878 83.92258056458691
517.456 81.93791206139167
535.767 82.41587051253113
554.81 82.47390266431893
574.219 83.6840286248443
594.727 83.20669630548753
615.601 83.28163197036179
637.207 84.04285117735525
659.912 84.96697606946664
682.983 85.13016520882431
707.153 84.3697275361158
732.056 84.55921100615997
757.69 85.19791376252473
784.424 84.96967680141616
812.256 84.6759049947747
840.82 84.96821558277246
870.483 85.06680576219665
901.245 83.69127262089022
933.105 82.34393380218508
966.064 81.229837740286
1000.12 81.70887302783564
1035.28 81.1118165402142
1071.9 77.71384258763678
1109.62 75.68704677472552
1148.8 81.49999546424742
1189.09 83.3550374998116
1231.2 85.48548145703948
1274.41 86.75797728888402
1319.46 87.75389668315712
1365.97 87.08569997260433
1414.31 86.69481359306023
1464.11 84.70053808932904
1515.75 82.56078191018382
1569.21 80.88470420769467
1624.51 82.84134346596008
1681.64 83.38648541448747
1740.97 83.83797637209003
1802.49 83.55840982836898
1866.21 83.36358567458421
1931.76 82.55141106645695
1999.88 82.52770294636447
2070.56 82.12051353304022
2143.43 82.98711193509958
2219.24 82.8541355490518
2297.24 82.9998444014094
2378.54 82.8422412473971
2462.4 80.56378593009715
2549.19 80.55392373087626
2638.92 80.94342226078541
2731.93 81.79291211693295
2828.25 81.68823993057767
2928.22 81.9179299711995
3031.49 82.127421374794
3138.43 82.45828920749535
3249.02 82.00033061930385
3363.65 81.38346431158426
3482.3 81.10725703867695
3604.98 80.83869699514072
3732.06 81.49968051364884
3863.89 81.82473063201446
4000.12 81.63383535722738
4141.11 81.52281991077224
4287.23 81.53680737046147
4438.11 81.53205331298575
4594.85 81.90871770612164
4756.71 82.69794798462735
4924.44 83.42717516630312
5098.39 83.78712301570228
5278.2 84.3455558290075
5464.23 84.69801332967225
5656.86 84.91116393607861
5856.45 85.02265937408107
6062.99 84.81504198212097
6276.86 84.53542196026234
6498.05 84.50851359158274
6727.29 84.62553054590832
6964.23 84.64447337994787
7209.96 84.58763083784632
7464.11 84.1680936014062
7727.42 83.38903260865025
7999.88 82.68789882530375
8282.23 82.2708894034412
8574.1 81.9569302291842
8876.59 81.13418195904814
9189.7 80.77023722169271
9513.79 81.1876103976841
9849.24 81.06775181075797
10196.4 80.45340832590226
10556.0 79.61697104773076
10928.5 78.58346647054357
11313.7 77.46554285123771
11712.5 76.60036874033844
12125.6 76.69905395772592
12553.3 76.76154556446495
12996.1 76.17544675733915
13454.2 75.26780516305188
13928.8 74.88044081857593
14419.9 73.7450527375177
14928.6 74.64040579519755
15454.8 75.38378351282222
16000.1 75.22445696289608
16564.1 76.37633793843955
17148.2 73.76787700267201
17753.2 69.88525231316639
18379.0 64.09989704321187
19027.2 64.43964242031738
19698.5 65.4601847619229
19999.9 65.7095984438286
