Freq "Rear Wall Bounce"
20.5078 63.5696319410452
21.9727 64.64307293077141
23.4375 65.81290476390498
25.6348 67.33263976495851
27.0996 68.23939856032726
29.2969 69.63759531516872
31.4941 70.89150799309988
33.6914 71.8236012419098
35.8887 72.87947417011368
38.8184 74.22606903135468
41.0156 75.2077399934887
43.9453 76.56722653172274
47.6074 77.99029083784093
50.5371 79.03455193764202
54.1992 80.33967767338957
58.5938 81.79122596128535
62.2559 82.67990076288471
66.6504 83.857726694833
71.7773 85.04336069948738
76.9043 86.13762381362265
82.7637 87.12820433048802
88.623 87.97300173898412
94.4824 88.48269165496913
101.807 88.8275857297667
109.131 89.02452183442787
116.455 89.09052363211963
125.244 88.91529139884884
134.033 88.70459111938055
143.555 88.52088279464276
153.809 88.32607352235115
164.795 88.65906710066295
176.514 88.52320051675775
189.697 88.21556275534795
202.881 87.94903273480152
217.529 87.43086795710845
232.91 86.59979762721562
249.756 85.41283699092622
268.066 84.928191307309
287.109 85.0378095933609
307.617 84.44655816121949
329.59 84.07052628764342
353.76 83.23503392568652
378.662 83.13334134465016
405.762 83.30497147069909
435.059 82.6912050335039
466.553 82.56940188319865
500.244 82.96260298522115
536.133 82.31478099577689
574.219 81.83698526636158
615.234 81.15666839063282
659.912 81.39996134374641
706.787 79.11941878729814
758.057 79.21783695457088
812.256 79.81484119959569
870.85 80.83739725277104
933.105 79.25753571882112
999.756 77.78148888428055
1071.53 78.11989490814918
1148.44 77.4327013411329
1231.2 79.75834978000015
1319.82 78.40240273479347
1414.31 80.0894778676617
1515.38 77.83317559202234
1624.51 76.87644738987186
1740.97 74.98216839817445
1866.21 72.94316047853934
2000.24 72.84475140108084
2143.8 74.27907851643242
2297.61 74.91269995670457
2462.4 74.04964287319345
2638.92 74.64006238086343
2828.61 74.94667821051621
3031.49 76.04524177007099
3249.02 77.14589567213962
3481.93 76.51758917159121
3732.42 73.66210129803682
3999.76 72.08599401923246
4286.87 73.0190599212844
4594.48 71.9836510259495
4924.8 72.13572031065493
5277.83 71.39793968983261
5656.49 69.62833975516898
6062.99 69.17074553585789
6498.05 65.99342820610696
6964.6 66.64531021309251
7464.11 68.44263721090279
8000.24 67.52800796190634
8574.46 64.18356196544886
9189.7 65.06251447087718
9848.88 65.97027291057526
10556.4 65.20979139368157
11313.7 65.17515948684544
12126.0 64.6608053777764
12996.1 63.68572555686936
13928.5 62.47171596289067
14928.2 61.43293650245522
15999.8 60.52953556977852
17148.2 60.03741158595798
18379.4 59.258828955916215
19698.5 60.16427825218844
19999.5 61.43888869844514
