Freq "Estimated In-Room Response"
20.5078 70.14694259740163
21.9727 71.80633025070951
23.4375 73.34332400502342
24.9023 75.78586125018835
26.3672 77.69534053118971
27.832 78.72055957988002
29.2969 79.67263939432026
30.7617 80.29521376921508
32.2266 80.55950323391924
33.6914 80.85947628231774
35.1562 81.07453955982255
36.6211 81.3026339764158
38.0859 81.57001656015295
39.5508 81.81985120290008
41.0156 82.06069811541487
42.4805 82.34781399515225
43.9453 82.64839577728284
45.4102 82.93364879920554
46.875 83.3044192360894
48.3398 83.60905567270787
51.2695 84.20591692860489
52.7344 84.50580621133844
54.1992 84.81341528276542
55.6641 85.11859435903634
58.5938 85.64583559941805
60.0586 85.91915831954176
62.9883 86.26240541547136
64.4531 86.45458199587475
67.3828 87.0642223513527
68.8477 87.24688430540814
71.7773 87.55614427420609
74.707 87.86901274574655
77.6367 88.09034669720268
79.1016 88.13678914999758
82.0312 88.18667237338471
84.9609 88.30767805837095
87.8906 88.36058401694795
90.8203 88.4566852641832
95.2148 88.45375382045455
98.1445 88.38894362804633
101.074 88.29243593351885
105.469 88.09420275378832
108.398 87.98646684393344
112.793 87.70433292101606
117.188 87.42547047596463
120.117 87.34678762069024
124.512 87.13952411706937
128.906 87.01601793224047
133.301 86.83257742190654
139.16 86.41890871280647
143.555 86.39239007495254
147.949 86.40897596889727
153.809 86.18967466186908
159.668 85.74183164974177
165.527 85.63300641333839
171.387 85.88819681225934
177.246 85.63366422343944
183.105 85.11164087365056
188.965 84.83846146610068
196.289 84.9446594283644
203.613 84.40837123447649
210.938 84.77508551981302
218.262 85.23304573781456
225.586 84.80313321957709
232.91 84.72060678227923
241.699 84.86994992307301
250.488 84.60184666681866
259.277 84.71931258361205
268.066 84.51593414599765
276.855 84.54397191138042
287.109 84.43822672900826
297.363 84.16668640602498
307.617 85.03794157987447
319.336 84.51358386449473
329.59 84.30639489169762
341.309 83.69868876018982
353.027 83.80099860236545
366.211 83.88392321511365
379.395 83.88351943579076
392.578 84.05304957004991
405.762 83.48286944159949
420.41 83.4433046882659
435.059 83.60802849365987
451.172 83.88001261836995
465.82 84.22839534216232
483.398 84.15776089526372
499.512 84.19903183200579
517.09 83.75981909123269
536.133 84.03799311973481
555.176 84.14183181112838
574.219 83.00490313749287
594.727 81.72117661428611
615.234 81.00197641134486
637.207 80.74965797163101
659.18 81.03157178998373
682.617 81.71486859883642
707.52 82.01663676314017
732.422 81.71623387669024
757.324 81.49121598450873
785.156 81.25377623453562
811.523 80.68635519297624
840.82 80.28840210602904
870.117 80.51736138482022
900.879 80.9502508005354
933.105 81.82374431310791
965.332 82.1718130729617
1000.49 82.39239772837236
1035.64 82.68643803062218
1072.27 82.1132181276742
1108.89 81.57814730211584
1148.44 81.46750346911722
1189.45 81.39545765729468
1230.47 81.43296445911321
1274.41 81.92721069869387
1319.82 81.96582353054316
1366.7 82.07206926974449
1413.57 82.0616041565512
1463.38 81.07377115039196
1516.11 80.93759042997443
1568.85 80.20653166777771
1624.51 80.33394859131545
1681.64 80.73702394397418
1741.7 80.92111871439177
1803.22 80.39941460622038
1866.21 80.47252582734839
1932.13 81.33748951127922
1999.51 81.90315160721693
2069.82 81.32534382393291
2143.07 81.2393566715842
2219.24 81.92952562076418
2296.88 82.58346951694679
2378.91 82.53440008575973
2462.4 82.53143339353058
2548.83 83.21703823958728
2639.65 83.08854343789656
2731.93 83.19141445104208
2828.61 83.44143101832454
2928.22 83.32168553370079
3030.76 83.22524949037044
3137.7 83.24928747622867
3249.02 83.54837650204298
3363.28 83.31158706654352
3481.93 83.0802507768318
3604.98 83.05161808983291
3732.42 82.78073996559982
3864.26 82.5397591968596
4000.49 82.25138741638854
4141.11 82.48623992295506
4287.6 82.55967215998302
4438.48 82.5449322946541
4595.21 82.68961449268411
4756.35 82.72981560245867
4924.8 82.49056427717841
5097.66 82.55721760204607
5277.83 82.35154072722646
5463.87 82.26460388563122
5657.23 82.43354453960563
5856.45 82.2676101426278
6062.99 82.64428703345644
6276.86 82.56820536420389
6498.05 82.7484833932363
6726.56 82.47137452880176
6963.87 82.33684858384933
7209.96 81.72460090852547
7464.84 81.61183135146709
7727.05 81.20701180779461
7999.51 81.15758153258444
8282.23 81.19823936597345
8573.73 81.20535861645016
8876.95 81.397393271788
9188.96 81.41516766377497
9514.16 81.41367638003376
9849.61 81.50576144175452
10196.8 81.67358502270332
10555.7 81.73863370354607
10927.7 81.77544950034789
11313.0 81.80362440409141
11712.9 81.80335068902137
12126.0 81.8178394527676
12553.7 81.8497333107362
12996.1 81.80533356622864
13454.6 81.76670317292565
13929.2 81.59331095091127
14419.9 81.61086440524527
14928.2 82.07273020578731
15455.6 83.33167217042255
16000.5 82.88998120229795
16564.5 80.65362025701953
17148.9 78.92838396073407
17752.4 78.44228904358535
18379.4 78.53392303297592
19026.9 78.84924676377076
19697.8 79.04785808653968
19999.5 79.12469262900623
