Freq,Floor Bounce,Ceiling Bounce,Front Wall Bounce,Side Wall Bounce,Rear Wall Bounce,Total Early Reflection
20.5078,55.456296662438675,55.75250024260369,55.543020282519066,55.59684584512736,55.66848296688717,55.604622076811026
21.9727,55.19100744925389,55.615683882023504,55.357102424550064,55.31679776428287,55.24758903256638,55.34813582753286
23.4375,57.191855165014445,57.58841749376096,57.37683768429538,57.258380083108236,56.95524827031009,57.279165647116045
24.9023,58.20468830023343,58.65418145308975,58.42796688044628,58.2785339966198,57.894356389744715,58.299186549114594
26.3672,59.22101648915144,59.749605919022045,59.46314041147831,59.34361612758313,59.0305563416742,59.36831135987269
27.832,60.21521864792622,60.775344675248604,60.47191644110352,60.35007349176935,60.033310110986704,60.376411053086414
29.2969,61.06588580371188,61.642363227089376,61.33939698828762,61.18773089579928,60.79996441642932,61.21614086925182
30.7617,61.980037173530334,62.58134947548179,62.25636329150237,62.118713355939434,61.777473501872905,62.15126453162969
32.2266,62.86661619177168,63.483583016594594,63.1511802764245,63.010786495108434,62.65811209747497,63.0429950663262
33.6914,63.55157969831855,64.15751121398996,63.833422920412204,63.69051181246385,63.33426396851924,63.72230705586526
35.1562,64.2344542344993,64.84337708605909,64.51803693545878,64.37493634138562,64.02219099016408,64.40743200090739
36.6211,64.97276319050154,65.59207584267236,65.26226853303113,65.11257326116315,64.74742192507458,65.14673350512494
38.0859,65.65246371627516,66.26644551296303,65.93805128701736,65.79595258185431,65.45626920582178,65.8305126818115
39.5508,66.28249663252335,66.9071400641971,66.57642815537474,66.42177549342436,66.05169986099371,66.45745837819827
41.0156,66.96201651659251,67.58903758621135,67.2582469239724,67.09952028756253,66.71667221292579,67.13498042989958
42.4805,67.52457572795579,68.16508124523128,67.82299755483562,67.67338386945552,67.31821841560858,67.71032926410903
43.9453,68.11207586588473,68.75714560115999,68.41437184605091,68.25931086674056,67.89899741161885,68.29809995133652
45.4102,68.67471682524263,69.31814226650316,68.97750226493254,68.81901646131868,68.45262120192596,68.85825025647699
46.875,69.24506927850842,69.89627307036245,69.55373536777921,69.38748490646455,69.00256021899852,69.42746000701872
48.3398,69.8073693128227,70.4721803939591,70.11914722376618,69.95852568362501,69.59147078718767,70.00000010737394
51.2695,70.86705085067346,71.53177764703594,71.18013454021529,71.016012838765,70.6484872408853,71.05901165064873
52.7344,71.30537589124572,71.98893124950841,71.6193166401318,71.47341202782081,71.16218663782045,71.519285742242
54.1992,71.8802334883786,72.56708558412312,72.20092040812288,72.04587061904941,71.73724069393056,72.09582124844327
55.6641,72.40818586119602,73.08086567129276,72.73238752067303,72.5505657603063,72.1619279793967,72.59788494091133
58.5938,73.37812173192242,74.04625693178714,73.70663380000809,73.50647021035839,73.06133221216457,73.55223983378734
60.0586,73.83919045779872,74.51270122448719,74.16258156736241,73.97767208507184,73.57778580880449,74.02540059080866
62.9883,74.71936023964587,75.39780613859477,75.04211574397847,74.86648194905628,74.50715026847386,74.91716520846838
64.4531,75.160179072602,75.83460484582731,75.48128637310117,75.30724629586847,74.96326931216363,75.35952536963062
67.3828,76.0152230750174,76.69519666933148,76.34405260749136,76.15465899250682,75.78300213413928,76.20946783981213
68.8477,76.44456202464404,77.11852672702875,76.77261124885676,76.57895964058305,76.19736681097585,76.63359512260412
71.7773,77.27915827016103,77.95045939551785,77.60641241854054,77.41220509449484,77.04052684195901,77.46871556597591
74.707,78.0648230750174,78.73392462897631,78.39177142379204,78.195744008054,77.8287633348177,78.25387242197507
77.6367,78.80710102815438,79.47689012674653,79.1352602410701,78.93613768964252,78.57897073697049,78.99762130027518
79.1016,79.17308944848115,79.84512233696326,79.50352127044059,79.30048319733835,78.94007782363575,79.36337028600711
82.0312,79.88864475244122,80.56145389591516,80.22122707353796,80.01319665056346,79.6556636824567,80.07898891249341
84.9609,80.58599711676459,81.26621881676861,80.92477684659445,80.70966263029156,80.34797429195622,80.77819189849744
87.8906,81.27437894156812,81.96381826555397,81.61902780610647,81.39840729670348,81.0416009106693,81.47087353985525
90.8203,81.93431221760117,82.5974494564337,82.27335433263526,82.04144049395597,81.66964943426332,82.11466920873583
95.2148,82.78111574558795,83.42808293655754,83.11449282244216,82.87857780370503,82.51898027583145,82.95524388771362
98.1445,83.28658992976428,83.94844967496931,83.62661084555208,83.38739681062125,83.03669735593519,83.4682929206494
101.074,83.7736484426582,84.46091646694799,84.12613156843656,83.88096916320254,83.53171686899887,83.96634114746584
105.469,84.4241369552841,85.11565214232938,84.78501914923591,84.5264335265572,84.17445214284204,84.61714003399729
108.398,84.78952151981393,85.47765805254782,85.15597989309008,84.88109800148204,84.51441030369584,84.97624620522703
112.793,85.30342988849388,85.97704132924234,85.6739293229064,85.37387163635235,84.95641121520354,85.47074945139147
117.188,85.65121133568283,86.33397865759548,86.02750964504297,85.72122824871501,85.30552198415491,85.82195856158508
120.117,85.90753683921196,86.58430256417815,86.29069605131092,85.96280215133021,85.51901512823287,86.067915502787
124.512,86.21927797524793,86.87909521793303,86.59004693347417,86.26727457483443,85.85805345428479,86.37664919939903
128.906,86.3129802096247,87.02042581030861,86.70638533381108,86.37552757842879,85.98213000012954,86.49405964335693
133.301,86.3511003149145,87.08826451377381,86.76264775988126,86.41757076367348,86.0108082561706,86.54180715375615
139.16,86.32904972753838,87.06596180685547,86.75090278257622,86.38239767834084,85.98508182826288,86.51867354447128
143.555,86.28262307188847,87.05992706628608,86.73518209254938,86.33883301503305,85.90566628183723,86.48268392099902
147.949,86.38410552365792,87.14846228139261,86.84108152855983,86.42936382606649,86.01509649616422,86.5814258886471
153.809,86.3949674627954,87.15268734904629,86.85432868326575,86.41958135348303,85.9572514570733,86.57530603816694
159.668,86.13089281934194,86.88861491507893,86.59409328559394,86.14850729264451,85.72746104626542,86.31666899171472
165.527,85.91865575215733,86.72727059732142,86.42423051798845,85.92182229723201,85.43348973177487,86.10827324171042
171.387,85.82512020864324,86.59669370818337,86.32092623995086,85.79391104605364,85.2480601387192,85.98187916467212
177.246,85.59827387871839,86.41237067022912,86.11311749055464,85.6004883041677,85.15370539552801,85.79794191373432
183.105,85.3703043851119,86.26416155222044,85.94012127797406,85.35939157052363,84.8435655141089,85.58385354563147
188.965,85.24653790161464,86.12373048578158,85.82471768238378,85.21850196754126,84.66293490483555,85.44521462623094
196.289,85.11095792109394,85.88993351532964,85.65787050864859,85.02963813900573,84.45220818237362,85.25731651079705
203.613,84.78445442698377,85.59173083093764,85.34358729754597,84.7100519888446,84.17789285979889,84.95006098457533
210.938,84.51287690846162,85.41317357624725,85.14748112066742,84.4240933814962,83.94261468657807,84.72013795111573
218.262,84.53466942297305,85.35133118014677,85.14294370640542,84.38743180011488,83.73136333226513,84.66727744138196
225.586,84.09961294000901,84.94679772768876,84.72586860677187,83.97583511162924,83.49140558809331,84.2797356579884
232.91,83.93355463759697,84.81081239967511,84.61154622272089,83.73647452721265,83.11371481667094,84.08414079952857
241.699,83.61238524320102,84.6356649460185,84.39501131844087,83.39012880391111,82.44447839165109,83.76386214949353
250.488,83.97431386654029,84.89123764947787,84.7626492605975,83.71736349462982,82.29853592551848,84.0231374759988
259.277,83.77638946240228,84.61652028641981,84.48077931246274,83.56739301043616,82.81542262261722,83.89972190896246
268.066,83.67382295430993,84.64266264830772,84.48292977969756,83.42661020715514,82.51894648054848,83.81556644972514
276.855,83.60096355491781,84.57063707595957,84.43144381760631,83.38798379752096,82.59284011733521,83.77620801289335
287.109,83.42235744949654,84.45144522456289,84.37821758225462,83.10881529216249,81.9620410452085,83.55778541140465
297.363,83.33459187710866,84.32924831737547,84.21444788689968,83.00490156194341,81.86241374427728,83.43873173747527
307.617,83.30391348366037,84.1148323921675,84.1523022201676,82.90269441314922,81.75930891043372,83.3329078367597
319.336,83.01425527522242,83.9484536031107,83.99634514014859,82.44211166009019,80.43504218606174,82.94639888250944
329.59,83.16394244666137,83.79958679658331,83.88811189016839,82.78091354003502,81.14838087172238,83.0614230445012
341.309,82.37019709469745,83.51056544238567,83.32559875293344,82.13383824973839,81.05455166205941,82.56718987475972
353.027,81.97598280139648,83.37042302748624,83.03451306081338,81.9287210214145,81.04571714940613,82.35103452642093
366.211,81.30012327866567,82.34026034892963,82.37462148225957,81.07075144886304,81.53058115260197,81.7567752386478
379.395,82.0132899041018,81.59560008244412,83.14974841455027,80.84916812845104,82.51962178986881,82.09583223885865
392.578,83.95088836048832,83.54747363489484,85.10799361417278,82.16631872000032,81.67870540804708,83.46646556803286
405.762,84.12434462543048,84.013967256996,85.22381447562736,82.62686845842883,80.11117153592836,83.5377253986015
420.41,84.14317100328138,83.75661440507561,84.94536430692075,82.66917200198932,79.63594965301704,83.36952359533755
435.059,83.4493586100586,83.31989040813546,84.45071971803077,82.23128597364652,79.57238983654032,82.88917093507665
451.172,82.83866450807078,82.82163927306017,83.82115173749933,81.63869084220013,79.08155297744324,82.31254608564258
465.82,83.4106239807146,83.25328362533894,84.50096195131664,82.11672306606235,78.73701123464711,82.7888783731663
483.398,84.30277576785848,83.83813015313642,85.27849518558553,82.85722333703536,79.06717781719179,83.51115402261614
499.512,85.2186835019773,84.36037448760139,86.12839388675887,83.5033225624829,79.89405436903414,84.27215303672989
517.09,85.2281530455188,83.45254113362358,85.51643772577492,83.5794128798282,78.19801685802761,83.81990041680008
536.133,85.14024660605845,83.62520773397158,85.61615650496756,83.64529204535073,79.36729186955418,83.94237715796676
555.176,85.27649185534673,84.00428583442022,85.86578456808272,83.52367193253112,79.19657333352215,84.09138237052609
574.219,85.3354254214415,84.1898859010242,86.08202579986158,83.77973106158586,79.12075948163351,84.24937459756315
594.727,85.96620926439012,84.42062041261354,86.56849877823053,84.23248404266916,78.69994478615841,84.66770293584142
615.234,85.94233031916578,83.90427673606106,86.45980083018604,84.20582092078958,79.14438844632498,84.55342613260967
637.207,85.40220062021042,83.17850569458002,85.522929613106,83.53894775342037,77.63244048974309,83.78531133958904
659.18,85.27537796957904,83.37499098561183,85.55686554462197,83.40536300449139,77.91798459269587,83.78361605408578
682.617,84.89022592313334,83.60691574083977,85.4729624856382,83.38053762475833,77.99861790953786,83.6968761012045
707.52,85.51627165600259,83.31182417146307,85.61663468506539,83.50343169427563,77.41479341628472,83.85315372420999
732.422,85.98944281795711,83.84194985718914,86.30337096254333,84.04240042840897,78.32792975841447,84.43407099678636
757.324,84.94684559148509,82.40766390906481,85.33019248289197,83.35737746300596,77.41208326039582,83.42194720993187
785.156,85.6943426086754,82.77889176698814,85.16438161208151,82.92386127144921,76.76616327844935,83.55125911342928
811.523,84.74441414406003,83.17607671582418,85.45087217360258,83.1535996317171,77.05380612415605,83.47997643876268
840.82,85.95158534687522,82.43488009678475,85.76802783469593,83.63720772348954,77.88937113882311,83.94046124902307
870.117,85.09322030037866,82.99641571210333,85.13880738152274,82.7161871703817,75.82831933853696,83.32082959231708
900.879,84.47422146514295,82.37392919901596,84.87144103540514,82.40005211650426,76.48946201163557,82.91482807597451
933.105,85.1467322137549,82.10918115650276,86.28851426937301,82.97657206908711,76.3051213876074,83.64075216640097
965.332,85.57707078337283,82.50582324730634,85.84990749306719,83.02001835649519,75.93980541866884,83.66806498133859
1000.49,85.07689473236955,82.44304913830797,85.83976606120255,82.48880361131732,76.25450710068841,83.42682380550364
1035.64,85.52760248273077,83.49043056605423,86.96420099469017,83.29555559652565,76.62741337683578,84.27195094642242
1072.27,86.35310428779535,82.94725420117565,86.61000780272916,83.08227726324455,75.44917035509668,84.23409313204259
1108.89,86.18418923318548,82.40224115366813,86.26152499780257,82.61816523080506,76.29733820501828,83.9354220123641
1148.44,85.64015634216109,81.8446293769406,85.67191238050512,81.52017590628343,74.40403511262161,83.25511472291385
1189.45,85.21678330891395,80.64311305370201,84.39461963812089,80.2659369181011,73.82173348848326,82.32426539531475
1230.47,84.27292661539184,79.82445318233884,83.79450078510165,79.07473923166184,72.58876442525373,81.47404649323458
1274.41,83.45930591117282,80.01441898005034,83.46741988342696,78.90589442909827,71.83955961498785,81.0538750764524
1319.82,82.5690564741652,79.50052437843007,82.63607548736242,77.75567258015163,72.17894559361808,80.24864493551668
1366.7,82.73327981989434,79.73216650533787,83.03105661212885,78.37362332348518,72.11977018963957,80.55129597549
1413.57,83.92515919536606,79.9400707181221,84.18477190933942,79.58940150303219,72.62263219735901,81.56490773262205
1463.38,83.99508693879456,80.04110136476869,83.71682288969609,79.12244188176774,72.22939495414302,81.37101422124312
1516.11,83.74216337730157,80.29330828710421,83.55657221350569,79.04932155032498,71.99983194977095,81.24955623448297
1568.85,83.91788571520605,80.59765823984357,83.37716507699028,78.7917388065459,71.42711878208624,81.26112016652188
1624.51,83.30464991791348,80.4979405719218,83.85733653790575,79.22820061221454,70.77282034742841,81.23793543883289
1681.64,83.26918390958376,79.73462701521002,84.4968513903737,79.72665119357687,71.98645508268781,81.44692847317368
1741.7,82.93739593251446,80.01835748239205,84.6398411649903,79.88382340847768,72.13207205413427,81.47276797857582
1803.22,82.76023166673264,79.84557652675642,83.88113524230722,79.62828393532597,71.25174723952301,81.03708263477209
1866.21,81.92522197232225,79.23990372599691,83.63765284204617,79.63296851552725,70.39671817154252,80.59686086458647
1932.13,81.09514433002938,79.55263916959794,84.00972529657493,80.04796218350813,71.00769916809666,80.6771550821199
1999.51,80.67204679302468,78.66061890253926,84.48986319883576,80.38993098035182,70.68457386763441,80.737038820319
2069.82,80.57041287849074,78.16259933674581,84.02654995354673,80.14004447326464,71.35428552789871,80.40763752816207
2143.07,80.06123232049335,77.5012803204424,83.5355658174527,79.78029745588255,70.70745172929894,79.91420819867808
2219.24,78.8630596958722,77.35627493289526,84.58460160290572,80.68380060937679,71.37897714107716,80.41031470817255
2296.88,78.5908770627456,77.21670159058236,85.36282076346636,81.92465581340987,72.36333032754146,81.0839658579186
2378.91,78.569855250909,77.40703042648578,84.67042270411012,81.74902884606128,71.42548203367032,80.67129396455366
2462.4,77.6961100478347,77.75371789876029,83.44539825304095,80.65387990099829,70.27103647750728,79.6980400673756
2548.83,76.69079619190076,79.07322582646884,83.94091306835209,81.24554464226033,70.13683285754281,80.16019725472204
2639.65,76.54009150254902,79.48554820393308,84.55940458546934,82.1004128978499,71.00765607116509,80.75137587329577
2731.93,76.80164164030785,79.35707139054897,83.90330500963708,81.64982845930612,70.17164577762524,80.30513614240779
2828.61,76.0158652346165,79.67571039893578,83.65250919933084,81.41514695893196,69.97710247560117,80.11234430843184
2928.22,76.12046833366462,80.01613715969032,83.68508982770659,81.19008137964319,69.12607723589497,80.12520361783642
3030.76,75.79792805548043,79.86129495141863,84.41157367320139,81.07955240513805,69.04314375075391,80.39221900139107
3137.7,77.27991820019426,80.21856740065047,84.5528454236069,80.80346337792699,69.483779947174,80.59265895912355
3249.02,77.57297837022314,79.92874904734695,84.54263137278618,80.30995244833974,68.2601792978535,80.44755470803739
3363.28,77.56910427324534,80.70714347723812,84.90128390002401,79.85960096024455,68.78735362361762,80.70645651517765
3481.93,78.93604525388461,80.22472999450542,84.80582995478869,79.59340994054878,68.60544498982092,80.67665559463481
3604.98,79.25015142468105,80.30776181173955,86.0981571264384,80.6666036029099,69.61546068707591,81.61029949111928
3732.42,80.25212653236822,81.67164827735533,85.90136230654078,81.3694442720957,71.13172996213616,81.99832179745499
3864.26,81.20482592168743,80.91488286238587,86.94739476553687,82.76564039935042,72.33047370726614,82.81815315698994
4000.49,82.64373657704783,81.14118643553273,87.85529906181702,83.93564280970456,73.45736106597003,83.77964386364667
4141.11,82.81872612995706,80.63011428094156,87.10798339373326,84.2982521254873,74.10730629592457,83.48531162550509
4287.6,83.89487890223889,80.86775691507573,87.26552620021417,84.66441396723128,73.70921310360593,83.86066745289273
4438.48,85.45808057221083,81.17103648184387,87.19948059097213,85.08566458512054,73.35085704538389,84.31768265234575
4595.21,86.32075391028543,81.91864189083037,86.89046660121959,84.95621764269843,72.65996443254859,84.48515097446771
4756.35,86.436072507654,83.89247171411454,85.95101812990974,84.33782462056203,72.71466994894472,84.37445022676607
4924.8,86.42325118769303,85.00981012761868,86.06687370937358,84.5467879375334,72.84313079676848,84.66637098035605
5097.66,87.08509792455177,84.14988064772233,84.4109960304974,84.12919261893927,72.63793872966333,84.23037483043241
5277.83,86.62067210916244,85.56863528586287,84.070045454467,83.93301533611758,74.40507742184454,84.31339903888741
5463.87,86.41601842488797,84.77528196237425,84.00559540429208,83.78551905246361,73.28938627528218,83.98056300513021
5657.23,86.69654503061095,84.33869955138913,84.17723905534218,83.94495520698793,73.30084415016829,84.04829102643968
5856.45,86.43757767201188,84.36496473216731,84.63111420959835,84.49730558481185,73.61245272917864,84.17848149526726
6062.99,86.15576700936482,83.6855208272097,85.2319365684289,84.05944012586166,71.53078948544102,83.97501646632011
6276.86,85.59123582607144,83.7617013511045,85.48677135742578,83.2404825369491,70.69836581281736,83.71617616376481
6498.05,84.96890819275345,83.63306244252203,85.2718866112648,82.28057627828082,70.42211176504726,83.26972260938489
6726.56,84.5154035366588,83.56853144762357,84.7581479213927,82.3191164539968,70.1000951647525,82.96743306313202
6963.87,84.88100081590403,82.92703915124059,84.72054481854673,82.05455999751325,69.35781831599165,82.87587461226722
7209.96,84.9399572685855,82.60313156040638,84.90342085593826,82.17654152275793,68.7881293652285,82.90430881521704
7464.84,84.4930049958017,82.33064509303513,86.13408694116629,81.80293313842635,66.9591038545367,83.09385376100367
7727.05,84.77478022347543,81.65269467199134,86.43215313284644,81.14387460708883,65.33151031065267,83.09570862061392
7999.51,85.00775167924505,80.94699870888316,86.73835039969443,80.978535446423,64.98813490185725,83.18675706167072
8282.23,85.2224659018311,80.51850560957841,86.50000510376523,80.50640685383867,64.43411759634992,83.04213410531467
8573.73,85.13848515813596,80.18581836140756,86.3659262098687,80.47001544925179,64.36687720179476,82.91419023478065
8876.95,85.0149497751928,79.94232846602631,86.70548701481255,80.34404674204282,63.774104790105866,82.98833123246015
9188.96,84.67923096154853,79.98483941136739,86.7798219418451,80.11859002716662,62.94849997327414,82.89818937947943
9514.16,84.6868418291281,79.70203110641107,86.79255268911821,79.62454385083807,61.85349802027012,82.82693483199866
