Freq "Rear Wall Bounce"
20.5078 55.216404179008364
21.9727 54.79551024468758
23.4375 56.50316948243129
24.9023 57.44227760186594
26.3672 58.57847755379542
27.832 59.58123132310793
29.2969 60.347885628550515
30.7617 61.3253947139941
32.2266 62.20603330959618
33.6914 62.88218518064045
35.1562 63.57011220228529
36.6211 64.29534313719579
38.0859 65.00419041794298
39.5508 65.59962107311492
41.0156 66.26459342504698
42.4805 66.8661396277298
43.9453 67.44691862374006
45.4102 68.00054241404719
46.875 68.55048143111974
48.3398 69.13939199930888
51.2695 70.19640845300651
52.7344 70.71010784994166
54.1992 71.28516190605177
55.6641 71.7098491915179
58.5938 72.60925342428578
60.0586 73.1257070209257
62.9883 74.05507148059509
64.4531 74.51119052428484
67.3828 75.33092334626049
68.8477 75.74528802309705
71.7773 76.58844805408022
74.707 77.37668454693892
77.6367 78.1268919490917
79.1016 78.48799903575696
82.0312 79.20358489457792
84.9609 79.89589550407743
87.8906 80.58952212279051
90.8203 81.21757064638453
95.2148 82.06690148795265
98.1445 82.5846185680564
101.074 83.07963808112008
105.469 83.72237335496327
108.398 84.06233151581705
112.793 84.50433242732477
117.188 84.8534431962761
120.117 85.06693634035408
124.512 85.405974666406
128.906 85.53005121225074
133.301 85.55872946829182
139.16 85.53300304038409
143.555 85.45358749395844
147.949 85.56301770828544
153.809 85.50517266919451
159.668 85.27538225838663
165.527 84.98141094389608
171.387 84.7959813508404
177.246 84.70162660764922
183.105 84.3914867262301
188.965 84.21085611695676
196.289 84.00012939449483
203.613 83.7258140719201
210.938 83.49053589869928
218.262 83.27928454438634
225.586 83.03932680021451
232.91 82.66163602879213
241.699 81.9923996037723
250.488 81.84645713763969
259.277 82.36334383473844
268.066 82.06686769266969
276.855 82.14076132945642
287.109 81.5099622573297
297.363 81.41033495639849
307.617 81.30723012255494
319.336 79.98296339818295
329.59 80.69630208384358
341.309 80.6024728741806
353.027 80.59363836152734
366.211 81.07850236472318
379.395 82.06754300199002
392.578 81.22662662016829
405.762 79.65909274804957
420.41 79.18387086513825
435.059 79.12031104866155
451.172 78.62947418956446
465.82 78.28493244676834
483.398 78.61509902931299
499.512 79.44197558115535
517.09 77.74593807014882
536.133 78.9152130816754
555.176 78.74449454564336
574.219 78.66868069375472
594.727 78.24786599827962
615.234 78.69230965844618
637.207 77.1803617018643
659.18 77.46590580481708
682.617 77.54653912165907
707.52 76.96271462840593
732.422 77.8758509705357
757.324 76.96000447251704
785.156 76.31408449057056
811.523 76.60172733627726
840.82 77.4372923509443
870.117 75.37624055065815
900.879 76.03738322375678
933.105 75.85304259972862
965.332 75.48772663079005
1000.49 75.80242831280962
1035.64 76.17533458895697
1072.27 74.99709156721788
1108.89 75.84525941713949
1148.44 73.95195632474284
1189.45 73.36965470060449
1230.47 72.13668563737494
1274.41 71.38748082710906
1319.82 71.72686680573928
1366.7 71.66769140176076
1413.57 72.17055340948022
1463.38 71.77731616626424
1516.11 71.54775316189216
1568.85 70.97503999420745
1624.51 70.32074155954962
1681.64 71.53437629480901
1741.7 71.67999326625548
1803.22 70.79966845164422
1866.21 69.94463938366373
1932.13 70.55562038021786
1999.51 70.23249507975562
2069.82 70.90220674001993
2143.07 70.25537294142015
2219.24 70.92689835319835
2296.88 71.91125153966267
2378.91 70.97340324579153
2462.4 69.81895768962848
2548.83 69.68475406966401
2639.65 70.5555772832863
2731.93 69.71956698974645
2828.61 69.52502368772238
2928.22 68.67399844801618
3030.76 68.59106496287514
3137.7 69.03170115929521
3249.02 67.8081005099747
3363.28 68.33527483573884
3481.93 68.15336620194212
3604.98 69.16338189919713
3732.42 70.67965117425739
3864.26 71.87839491938735
4000.49 73.00528227809124
4141.11 73.6552275080458
4287.6 73.25713431572713
4438.48 72.8987782575051
4595.21 72.2078856446698
4756.35 72.26259116106594
4924.8 72.39105200888967
5097.66 72.18585994178454
5277.83 73.95299863396575
5463.87 72.8373074874034
5657.23 72.8487653622895
5856.45 73.16037394129985
6062.99 71.07871069756223
6276.86 70.24628702493857
6498.05 69.97003297716847
6726.56 69.64801637687371
6963.87 68.90573952811285
7209.96 68.33605057734971
7464.84 66.50702506665793
7727.05 64.87943152277388
7999.51 64.53605611397846
8282.23 63.98203880847113
8573.73 63.91479841391596
8876.95 63.322026002227076
9188.96 62.49642118539535
9514.16 61.40141923239135
9849.61 60.57482108243097
10196.8 59.3192367431415
10555.7 58.11083544837196
10927.7 57.22376459706827
11313.0 57.39652734399972
11712.9 57.24071016573156
12126.0 57.49525060116032
12553.7 58.17791498797858
12996.1 58.05195888922229
13454.6 58.27896448710091
13929.2 58.75683318198686
14419.9 58.8387572237818
14928.2 58.180092845892105
15455.6 57.654881209087605
16000.5 57.96648721634942
16564.5 57.11627386056291
17148.9 56.384132163340055
17752.4 55.526033968841645
18379.4 54.17407868645098
19026.9 51.85074970752514
19697.8 49.96111594838307
19999.5 49.81845454381265
