Freq "On Axis"
22.4 50.03037974683541
23.0 51.03037974683541
23.6 52.1303797468354
24.0 54.1303797468354
25.0 55.730379746835425
25.8 56.93037974683541
26.5 58.03037974683541
27.2 58.93037974683541
28.0 61.6303797468354
29.0 63.93037974683541
30.0 65.53037974683541
30.7 66.8303797468354
31.5 68.43037974683541
32.5 71.73037974683541
33.5 73.8303797468354
34.5 75.23037974683541
35.5 76.53037974683541
36.5 78.13037974683542
37.5 79.43037974683541
38.7 80.43037974683541
40.0 81.03037974683541
41.2 81.13037974683543
42.5 81.2303797468354
43.7 81.53037974683541
45.0 82.93037974683541
46.2 84.13037974683542
47.5 85.1303797468354
48.7 86.3303797468354
50.0 87.23037974683542
51.5 88.23037974683541
53.0 89.63037974683542
54.5 90.63037974683542
56.0 91.63037974683542
58.0 92.53037974683541
60.0 93.03037974683541
61.5 92.6303797468354
63.0 92.23037974683542
65.0 92.53037974683541
67.0 92.93037974683541
69.0 93.33037974683542
71.0 93.53037974683541
73.0 92.53037974683541
75.0 90.83037974683542
77.5 90.23037974683541
80.0 89.93037974683541
82.5 89.83037974683539
85.0 90.53037974683541
87.5 91.3303797468354
90.0 91.2303797468354
92.5 91.13037974683543
95.0 91.03037974683541
97.5 89.63037974683542
100.0 88.43037974683541
103.0 87.8303797468354
106.0 86.93037974683541
109.0 87.23037974683542
112.0 87.43037974683541
115.0 86.93037974683541
118.0 86.8303797468354
122.0 87.8303797468354
125.0 88.43037974683541
128.0 89.63037974683542
132.0 89.43037974683541
136.0 89.63037974683542
140.0 91.2303797468354
145.0 92.13037974683542
150.0 92.43037974683541
155.0 90.83037974683542
160.0 89.83037974683539
165.0 89.93037974683541
170.0 89.73037974683542
175.0 90.73037974683541
180.0 91.03037974683541
185.0 90.73037974683541
190.0 90.3303797468354
195.0 91.43037974683541
200.0 91.63037974683542
206.0 89.43037974683541
212.0 89.3303797468354
218.0 90.03037974683541
224.0 87.23037974683542
230.0 88.13037974683542
236.0 89.73037974683542
240.0 89.83037974683539
250.0 90.3303797468354
258.0 90.63037974683542
265.0 91.43037974683541
272.0 90.63037974683542
280.0 88.43037974683541
290.0 89.73037974683542
300.0 89.83037974683539
307.0 88.43037974683541
315.0 88.7303797468354
325.0 89.13037974683542
335.0 89.63037974683542
345.0 90.1303797468354
355.0 90.53037974683541
365.0 90.83037974683542
375.0 91.13037974683543
387.0 91.53037974683541
400.0 91.93037974683541
412.0 92.23037974683542
425.0 92.33037974683539
437.0 92.33037974683539
450.0 92.23037974683542
462.0 92.03037974683541
475.0 91.8303797468354
487.0 91.53037974683541
500.0 91.2303797468354
515.0 90.83037974683542
530.0 90.63037974683542
545.0 90.53037974683541
560.0 90.3303797468354
580.0 90.3303797468354
600.0 90.53037974683541
615.0 90.63037974683542
630.0 90.53037974683541
650.0 90.43037974683541
670.0 90.3303797468354
690.0 90.1303797468354
710.0 89.83037974683539
730.0 89.63037974683542
750.0 89.53037974683541
775.0 89.63037974683542
800.0 89.93037974683541
825.0 90.3303797468354
850.0 90.63037974683542
875.0 90.93037974683541
900.0 90.93037974683541
925.0 90.73037974683541
950.0 90.23037974683541
975.0 89.53037974683541
1000.0 89.03037974683541
1030.0 88.8303797468354
1060.0 88.93037974683541
1090.0 89.03037974683541
1120.0 88.93037974683541
1150.0 88.53037974683541
1180.0 88.13037974683542
1220.0 87.8303797468354
1250.0 87.73037974683541
1280.0 87.43037974683541
1320.0 86.8303797468354
1360.0 86.13037974683543
1400.0 85.93037974683541
1450.0 86.2303797468354
1500.0 86.43037974683541
1550.0 86.53037974683541
1600.0 86.73037974683541
1650.0 86.8303797468354
1700.0 86.8303797468354
1750.0 87.03037974683541
1800.0 87.23037974683542
1850.0 86.93037974683541
1900.0 86.43037974683541
1950.0 86.03037974683541
2000.0 85.23037974683541
2060.0 84.53037974683541
2120.0 84.23037974683541
2180.0 84.3303797468354
2240.0 84.43037974683541
2300.0 84.23037974683541
2360.0 84.53037974683541
2400.0 85.83037974683542
2500.0 87.13037974683542
2580.0 88.53037974683541
2650.0 89.53037974683541
2720.0 90.03037974683541
2800.0 89.83037974683539
2900.0 88.7303797468354
3000.0 87.6303797468354
3070.0 86.63037974683542
3150.0 87.03037974683541
3250.0 88.03037974683541
3350.0 88.43037974683541
3450.0 89.13037974683542
3550.0 89.3303797468354
3650.0 88.23037974683541
3750.0 86.63037974683542
3870.0 86.3303797468354
4000.0 87.33037974683539
4120.0 87.8303797468354
4250.0 87.13037974683542
4370.0 88.7303797468354
4500.0 91.03037974683541
4620.0 92.43037974683541
4750.0 91.53037974683541
4870.0 90.53037974683541
5000.0 89.83037974683539
5150.0 89.43037974683541
5300.0 88.7303797468354
5450.0 90.23037974683541
5600.0 92.6303797468354
5800.0 92.33037974683539
6000.0 91.8303797468354
6150.0 90.83037974683542
6300.0 88.7303797468354
6500.0 89.13037974683542
6700.0 90.83037974683542
6900.0 91.43037974683541
7100.0 92.03037974683541
7300.0 92.03037974683541
7500.0 92.43037974683541
7750.0 90.83037974683542
8000.0 92.13037974683542
8250.0 95.03037974683541
8500.0 91.93037974683541
8750.0 92.13037974683542
9000.0 95.83037974683542
9250.0 95.53037974683541
9500.0 92.13037974683542
9750.0 91.3303797468354
10000.0 94.83037974683539
10300.0 95.23037974683541
10600.0 90.83037974683542
10900.0 94.63037974683542
11200.0 95.43037974683541
11500.0 91.03037974683541
11800.0 95.43037974683541
12200.0 94.93037974683541
12500.0 90.53037974683541
12800.0 92.33037974683539
13200.0 91.93037974683541
13600.0 97.03037974683541
14000.0 97.73037974683541
14500.0 97.03037974683541
15000.0 94.73037974683542
15500.0 88.93037974683541
16000.0 86.03037974683541
16500.0 92.13037974683542
17000.0 87.53037974683541
17500.0 88.43037974683541
18000.0 86.73037974683541
18500.0 86.03037974683541
19000.0 82.13037974683542
19500.0 83.43037974683541
