Freq "Sound Power"
22.4 46.57889122037487
23.0 47.640291908348516
23.6 48.79523282399428
24.0 50.81367052013236
25.0 52.45899105443526
25.8 53.80043923011375
26.5 54.902929911346874
27.2 55.898586459636576
28.0 58.663968056393585
29.0 61.13961289439989
30.0 62.834912078034975
30.7 64.04563869314059
31.5 65.66251346621213
32.5 68.94404800467841
33.5 71.03315146013871
34.5 72.48877042344348
35.5 73.70345505494534
36.5 75.26588497605354
37.5 76.5445888240305
38.7 77.54135588561901
40.0 78.12952418445089
41.2 78.12088081482085
42.5 78.10695651915394
43.7 78.3013319339989
45.0 79.58990372768282
46.2 80.7344205485251
47.5 81.6758855381825
48.7 82.72745852080719
50.0 83.59224350055545
51.5 84.52990145430415
53.0 85.77137500678464
54.5 86.75496126516298
56.0 87.69133877223807
58.0 88.55357666502492
60.0 88.97923404557564
61.5 88.58127436880066
63.0 88.18866469184701
65.0 88.44721907999894
67.0 88.79108334398585
69.0 89.17668498601027
71.0 89.435895130831
73.0 88.39899432564924
75.0 86.78110192531538
77.5 86.17773313808557
80.0 85.85013079506997
82.5 85.894661481352
85.0 86.5758073314688
87.5 87.46138305003585
90.0 87.41313866071123
92.5 87.34832109648788
95.0 87.2809218316105
97.5 85.9299201724621
100.0 84.71636741235237
103.0 84.13994008841493
106.0 83.24914831394531
109.0 83.61041239748572
112.0 83.70833376052992
115.0 83.23927130368195
118.0 83.05107291657178
122.0 84.04125200234152
125.0 84.53562826359983
128.0 85.67420149775377
132.0 85.39103393041184
136.0 85.50910880172465
140.0 86.98534718505077
145.0 87.81879489526334
150.0 88.11081993341274
155.0 86.47303666316232
160.0 85.39394961148017
165.0 85.36944400956635
170.0 85.11099608544879
175.0 86.07736840938229
180.0 86.34512974095783
185.0 85.99135111198034
190.0 85.56383868310418
195.0 86.6199671065578
200.0 86.76390800322919
206.0 84.57096141840738
212.0 84.3901158321326
218.0 85.01892673856727
224.0 82.15458365665808
230.0 82.95026619795637
236.0 84.51901096516455
240.0 84.5334865302956
250.0 84.86752011691415
258.0 85.04631930493804
265.0 85.72713908654832
272.0 84.73209687084098
280.0 82.33886763323429
290.0 83.49960546990975
300.0 83.44329777583978
307.0 81.86518405177453
315.0 81.88899882116205
325.0 82.08334574345199
335.0 82.3885055650295
345.0 82.65040441407346
355.0 82.86462671509324
365.0 83.01432196393723
375.0 83.17768382558738
387.0 83.42459904359077
400.0 83.6738017480466
412.0 83.87100822540329
425.0 83.88501650358576
437.0 83.72655411091291
450.0 83.52514769447149
462.0 83.31150056314199
475.0 83.04105724194758
487.0 82.63098252417966
500.0 82.19650865486105
515.0 81.84182187540347
530.0 81.63076865606924
545.0 81.46387624610465
560.0 81.33008123131307
580.0 81.35852279092373
600.0 81.59434605762786
615.0 81.76340963742688
630.0 81.75107247588697
650.0 81.70009617898465
670.0 81.64537870474321
690.0 81.45133477747872
710.0 81.17917179038623
730.0 81.00746657056071
750.0 80.94326928259188
775.0 80.97710936269084
800.0 81.3105927034331
825.0 81.65243714434148
850.0 81.93041558516941
875.0 82.15664491977891
900.0 82.06564463045592
925.0 81.74393486540804
950.0 81.1997389273946
975.0 80.4616540620535
1000.0 79.8863740154565
1030.0 79.53358393941149
1060.0 79.5281140283721
1090.0 79.43125756580474
1120.0 79.10687124696814
1150.0 78.44895790131415
1180.0 77.77013396194971
1220.0 77.25358155756484
1250.0 76.95708891937635
1280.0 76.46725584301363
1320.0 75.6666200498939
1360.0 74.75890254687354
1400.0 74.38187258729204
1450.0 74.44972868035411
1500.0 74.4920781302421
1550.0 74.50960599199247
1600.0 74.56339199319724
1650.0 74.5474861685037
1700.0 74.4947074693292
1750.0 74.55585849867649
1800.0 74.68807993049498
1850.0 74.40128699065664
1900.0 73.89373778039023
1950.0 73.45366896785022
2000.0 72.80746866675038
2060.0 72.16093772339246
2120.0 72.1248559656352
2180.0 72.36196184269386
2240.0 72.70079428905132
2300.0 72.76081347268077
2360.0 73.26898041775945
2400.0 74.69174310870734
2500.0 76.06180565265892
2580.0 77.5944643311354
2650.0 78.56597448515662
2720.0 78.99673563789892
2800.0 78.73346707574707
2900.0 77.51093467886304
3000.0 76.30988852464912
3070.0 75.15070784130826
3150.0 75.48602619727187
3250.0 76.30788036003463
3350.0 76.60250293605806
3450.0 77.25609908824951
3550.0 77.3368541385493
3650.0 76.20639267282267
3750.0 74.57516040037909
3870.0 74.15681716917399
4000.0 75.13865973056281
4120.0 75.63388720390202
4250.0 74.96269788995427
4370.0 76.64049297154237
4500.0 79.04520768717384
4620.0 80.40235063450848
4750.0 79.6054019902836
4870.0 78.6191124289223
5000.0 78.02065293633753
5150.0 77.621745927518
5300.0 76.88805894375722
5450.0 78.43461546499144
5600.0 80.84973784152919
5800.0 80.54813458890224
6000.0 80.04478013848167
6150.0 79.01407032448928
6300.0 76.95248319658633
6500.0 77.29994330846536
6700.0 79.07017708414942
6900.0 79.78327460756508
7100.0 80.39534947141868
7300.0 80.45922041975176
7500.0 80.94439232707185
7750.0 79.40532346829953
8000.0 80.72022602854172
8250.0 83.55990939759381
8500.0 80.44776396691245
8750.0 80.58344440755906
9000.0 84.24335738810309
9250.0 83.79209561705606
9500.0 80.3818418315458
9750.0 79.38142655680674
10000.0 82.76839284372667
10300.0 82.97406545341093
10600.0 78.3161198390059
10900.0 81.86715065775157
11200.0 82.5099520632806
11500.0 77.93025771914334
11800.0 82.28654901307443
12200.0 81.83142011554743
12500.0 77.7698638992827
12800.0 79.9797963875124
13200.0 80.28411710725345
13600.0 86.059757947405
14000.0 87.70598201548262
14500.0 87.88422979659022
15000.0 86.46057189209269
15500.0 81.49989091602448
16000.0 79.18339652607844
16500.0 85.79737991620019
17000.0 81.4440294205432
17500.0 82.35816647606913
18000.0 80.32945708436766
18500.0 78.88484963319523
19000.0 73.65869535558093
19500.0 72.89930328640966
