Freq "Early Reflections"
23.6 58.06305115318035
24.3 58.14210296981567
25.0 58.21895011116915
25.8 58.30420842075169
26.5 58.37671670943884
27.2 58.447358507281194
28.0 58.52593836310291
29.0 58.621099995916296
30.0 58.731345063396205
30.7 58.81170333850106
31.5 58.90138583902849
32.5 59.01037673154556
33.5 59.11611981931337
34.5 59.21880836633761
35.5 59.32518231822171
36.5 59.44097466009548
37.5 59.553692421978226
38.7 59.68512294425098
40.0 59.82305564774656
41.2 59.94908011647105
42.5 60.096560904226735
43.7 60.22879304395029
45.0 60.36808208265781
46.2 60.493188282593024
47.5 60.63133838976189
48.7 60.76167916392053
50.0 60.899363788544136
51.5 61.053891572076466
53.0 61.20594639050664
54.5 61.36247285122158
56.0 61.514811219589504
58.0 61.711766203001346
60.0 61.90923181898408
61.5 62.055307724819556
63.0 62.19791393786058
65.0 62.384886528279154
67.0 62.57141808500826
69.0 62.75249358583372
71.0 62.9302070195574
73.0 63.10626210605615
75.0 63.27761224657307
77.5 63.48781012171196
80.0 63.69338804236898
82.5 63.89320638307966
85.0 64.08933853489864
87.5 64.27984971318273
90.0 64.4664062927206
92.5 64.6481454467611
95.0 64.82547777582543
97.5 64.99862792149115
100.0 65.16743458096603
103.0 65.36467961964158
106.0 65.55621662209636
109.0 65.74204256296093
112.0 65.92264966482631
115.0 66.09774678491767
118.0 66.26799850128131
122.0 66.48709917867241
125.0 66.64570474814744
128.0 66.79998594150904
132.0 66.99820390335339
136.0 67.1890950129819
140.0 67.37252829143064
145.0 67.59131065077062
150.0 67.79944529009364
155.0 67.99737391823406
160.0 68.18554028875951
165.0 68.3643994568203
170.0 68.53430654989724
175.0 68.69493182111802
180.0 68.84721534883255
185.0 68.9915825086428
190.0 69.12838806463967
195.0 69.257898044769
200.0 69.38040164742185
206.0 69.5180839625648
212.0 69.64638674789397
218.0 69.76572898227154
224.0 69.87657290380852
230.0 69.97930941146072
236.0 70.07435618479833
243.0 70.17593628031712
250.0 70.26831291377171
258.0 70.36351187437916
265.0 70.43732059009338
272.0 70.50372175013607
280.0 70.57120627486681
290.0 70.64327092871481
300.0 70.7036647054589
307.0 70.73922866356632
315.0 70.77420518774078
325.0 70.80972292975325
335.0 70.8375167893363
345.0 70.8581769648773
355.0 70.87239386387695
365.0 70.88123268325855
375.0 70.88524145553576
387.0 70.88370480103166
400.0 70.8751908668789
412.0 70.86156886252924
425.0 70.84068350041845
437.0 70.81590479189036
450.0 70.78322596762754
462.0 70.74761989185916
475.0 70.70338052196453
487.0 70.65741200738815
500.0 70.60257472468247
515.0 70.5338571654017
530.0 70.46015891634815
545.0 70.38348991999007
560.0 70.30528684731004
580.0 70.20252747841019
600.0 70.10520267486484
615.0 70.03803430461944
630.0 69.9772055111264
650.0 69.90669089556148
670.0 69.84833730617586
690.0 69.80072272371918
710.0 69.76153754864072
730.0 69.72808229392449
750.0 69.69772647766428
775.0 69.66090347846843
800.0 69.62308910161889
825.0 69.58343942499017
850.0 69.54213951467169
875.0 69.50046555842538
900.0 69.45976424951411
925.0 69.42154559989926
950.0 69.38777117503419
975.0 69.36075531186171
1000.0 69.34313555966298
1030.0 69.33755165945617
1060.0 69.35053708074008
1090.0 69.3799375464646
1120.0 69.4189916897413
1150.0 69.45749238927708
1180.0 69.48421212164835
1220.0 69.48569018762241
1250.0 69.45476361109347
1280.0 69.39671238118719
1320.0 69.28503681130707
1360.0 69.14828809941548
1400.0 68.9993492336435
1450.0 68.80432476047362
1500.0 68.59896233962132
1550.0 68.38663738582056
1600.0 68.18664822295314
1650.0 68.0257512524468
1700.0 67.91674879890992
1750.0 67.85115737099305
1800.0 67.81392563236012
1850.0 67.80257272377534
1900.0 67.82453152614009
1950.0 67.8789876892185
2000.0 67.95037660836059
2060.0 68.03890273314887
2120.0 68.13415775935142
2180.0 68.24429647964278
2240.0 68.34691155869037
2300.0 68.41121395136155
2360.0 68.44011836330992
2430.0 68.46153149252729
2500.0 68.47687418011034
2580.0 68.48646758508987
2650.0 68.52683263116894
2720.0 68.61322307856328
2800.0 68.74390304381365
2900.0 68.93425257193434
3000.0 69.08716406930219
3070.0 69.17043530427948
3150.0 69.2967913284886
3250.0 69.47669839404242
3350.0 69.70187985931189
3450.0 70.00518384117512
3550.0 70.31009853963623
3650.0 70.62538062751933
3750.0 70.83826022459671
3870.0 71.04814438784567
4000.0 71.23772926146991
4120.0 71.37993354281876
4250.0 71.43519364394989
4370.0 71.32305152566906
4500.0 71.18976488953156
4620.0 71.06991471308689
4750.0 71.03874493616843
4870.0 71.07122044362144
5000.0 71.11303576851189
5150.0 71.102419304609
5300.0 71.02438745528669
5450.0 71.19450779766466
5600.0 71.45573871913642
5800.0 71.61805739599141
6000.0 71.27084688974237
6150.0 70.90884868197668
6300.0 70.6559232707974
6500.0 70.49150325762189
6700.0 70.3537375248755
6900.0 70.35036020212014
7100.0 70.39996139762337
7300.0 70.31392083530143
7500.0 70.14722244082114
7750.0 69.95990161870604
8000.0 69.54460118389513
8250.0 69.0150904920675
8500.0 68.95738282453749
8750.0 68.82040054689308
9000.0 68.53539817065217
9250.0 68.7616828772388
9500.0 68.89378244249372
9750.0 68.32064764545905
10000.0 68.00146206039001
10300.0 68.08206460865385
10600.0 67.82241298175038
10900.0 67.62256159127618
11200.0 67.56909390589703
11500.0 67.2841512433621
11800.0 66.88164138840308
12200.0 67.10696156702006
12500.0 66.77281930068054
12800.0 66.32648774397232
13200.0 66.49172471147529
13600.0 65.99511811979484
14000.0 66.0556572192231
14500.0 65.32504946203245
15000.0 64.97291186829999
15500.0 64.3438267316796
16000.0 64.33336741832913
16500.0 63.98199411793054
17000.0 63.985022447367044
17500.0 63.36167123188433
18000.0 62.68560263736909
18500.0 62.16884304929748
19000.0 61.6646530536993
19500.0 60.954188011818545
