Freq "Sound Power DI"
23.6 30.926646190308844
24.3 30.93848248707222
25.0 30.949934083530565
25.8 30.962548652547582
26.5 30.973249229684626
27.2 30.983633286664087
28.0 30.995109568853707
29.0 31.009017793113372
30.0 31.023900559909663
30.7 31.034459041764137
31.5 31.04617898232486
32.5 31.060328993764188
33.5 31.07404370769507
34.5 31.087248409836334
35.5 31.10036202952746
36.5 31.11376565695005
37.5 31.12670409463169
38.7 31.141753706987814
40.0 31.157405615637245
41.2 31.17141889737063
42.5 31.186470192336117
43.7 31.199923231101067
45.0 31.213931553708903
46.2 31.226482139574713
47.5 31.2396808213808
48.7 31.25151281841768
50.0 31.263973842807943
51.5 31.277839660087253
53.0 31.291235179430075
54.5 31.30405128277941
56.0 31.316456447806544
58.0 31.3324239402927
60.0 31.34754687098571
61.5 31.35846642643419
63.0 31.36908202112366
65.0 31.382693649028354
67.0 31.395674964769682
69.0 31.408210801314695
71.0 31.42026952781478
73.0 31.43185831806045
75.0 31.443105814875167
77.5 31.45659340574619
80.0 31.469602684985745
82.5 31.482125945885116
85.0 31.494330385287938
87.5 31.506114876964745
90.0 31.51766204239921
92.5 31.52887153127662
95.0 31.539921340452665
97.5 31.550776903639417
100.0 31.561385782768724
103.0 31.574113117375504
106.0 31.586536370050226
109.0 31.599012089896192
112.0 31.61127114756772
115.0 31.62371511172033
118.0 31.635918443418348
122.0 31.652425189599285
125.0 31.664924194127167
128.0 31.677343687648587
132.0 31.694353808988183
136.0 31.711380767070793
140.0 31.728701182968734
145.0 31.750920955659538
150.0 31.773679486343255
155.0 31.79692824508558
160.0 31.82075400740156
165.0 31.845173904193757
170.0 31.87019141777607
175.0 31.896122176885783
180.0 31.922710382243437
185.0 31.949923617105426
190.0 31.977770685999374
195.0 32.00625817950669
200.0 32.03538812045909
206.0 32.07129289294468
212.0 32.1081557283794
218.0 32.145877554969346
224.0 32.18440810447322
230.0 32.2237636994967
236.0 32.263879014633616
243.0 32.311648404303725
250.0 32.36024115861447
258.0 32.41658747528078
265.0 32.46701549939418
272.0 32.51800346262493
280.0 32.57681601080557
290.0 32.65136611858492
300.0 32.72649797065074
307.0 32.77952332206861
315.0 32.84021292555282
325.0 32.916279820144084
335.0 32.992145663643484
345.0 33.06775554156715
355.0 33.14294545581727
365.0 33.21724864835298
375.0 33.29055477829141
387.0 33.37712171398333
400.0 33.46872527888861
412.0 33.55086134472921
425.0 33.63697546816893
437.0 33.71359955046289
450.0 33.79327112792235
462.0 33.86356244316214
475.0 33.936151576265175
487.0 33.999769254486
500.0 34.06512430825846
515.0 34.135920489496044
530.0 34.20233606248793
545.0 34.26475631385439
560.0 34.32432665946604
580.0 34.40065560331416
600.0 34.476479359953075
615.0 34.53439464874219
630.0 34.594685677673866
650.0 34.679034776800066
670.0 34.768477466509864
690.0 34.86125404628055
710.0 34.95453596620459
730.0 35.04438714858904
750.0 35.126560318190386
775.0 35.212562630315304
800.0 35.27557251045653
825.0 35.31434246336366
850.0 35.331488102028075
875.0 35.333076318935284
900.0 35.325573032883256
925.0 35.314441666764026
950.0 35.30226594373379
975.0 35.28805279643586
1000.0 35.268170784012526
1030.0 35.23112915980734
1060.0 35.175939315294684
1090.0 35.105073604479315
1120.0 35.026838893479436
1150.0 34.95180823420054
1180.0 34.88823192199018
1220.0 34.82714951533221
1250.0 34.798084163003665
1280.0 34.78113874461879
1320.0 34.77689034898816
1360.0 34.79876854721694
1400.0 34.85269041504634
1450.0 34.96038411261188
1500.0 35.088046340850084
1550.0 35.2097756673634
1600.0 35.3176047166389
1650.0 35.412439575132225
1700.0 35.483436952896426
1750.0 35.512167302925846
1800.0 35.496833095799374
1850.0 35.45902308463252
1900.0 35.419556393637976
1950.0 35.3740801058008
2000.0 35.29839096624043
2060.0 35.14431012233891
2120.0 34.93305280181498
2180.0 34.69485853961132
2240.0 34.43980408899088
2300.0 34.1605086874757
2360.0 33.86463939773256
2430.0 33.528169102135465
2500.0 33.20479473649809
2580.0 32.840338009951836
2650.0 32.576141041457305
2720.0 32.40462406585458
2800.0 32.29821384550253
2900.0 32.301639394648916
3000.0 32.406529410093825
3070.0 32.45784120099671
3150.0 32.4853402834414
3250.0 32.52868904490202
3350.0 32.71335890023306
3450.0 32.97839374752955
3550.0 33.19316950818569
3650.0 33.4900177941538
3750.0 33.777331311561525
3870.0 34.13816125774697
4000.0 34.623551149305314
4120.0 34.99945587850722
4250.0 35.375858742151465
4370.0 35.72037470319863
4500.0 35.98721086042093
4620.0 36.115772799336625
4750.0 36.21156640339298
4870.0 36.28209008295215
5000.0 36.35838771925127
5150.0 36.268602425094485
5300.0 36.0533021846265
5450.0 35.82336718372031
5600.0 35.595046338797346
5800.0 35.520208874081874
6000.0 35.56683093370431
6150.0 35.56459110716244
6300.0 35.655814938443086
6500.0 35.732232824155915
6700.0 35.59552020013008
6900.0 35.36859759779439
7100.0 35.2705691928919
7300.0 35.414676140461935
7500.0 35.60638903001468
7750.0 35.92204594536949
8000.0 36.336930957865874
8250.0 36.699240138042214
8500.0 36.85934400558813
8750.0 36.905167139507185
9000.0 36.868195898395996
9250.0 36.97362584157209
9500.0 37.102170346720044
9750.0 37.24288193279416
10000.0 37.45675176422144
10300.0 37.72439350232452
10600.0 37.919290907696066
10900.0 38.23006371185542
11200.0 38.53140299376035
11500.0 38.77254035708438
11800.0 38.95669204938072
12200.0 39.20762017622191
12500.0 39.34851628435756
12800.0 39.45714487636123
13200.0 39.58670561658974
13600.0 39.73780490411136
14000.0 39.87169713785187
14500.0 39.981510161137024
15000.0 39.93504898206969
15500.0 39.920881523055016
16000.0 40.074315605685854
16500.0 40.324334030079
17000.0 40.50106841954502
17500.0 40.73223663689299
18000.0 40.929430277536895
18500.0 41.09545389516404
19000.0 41.21425688979697
19500.0 41.309413952483794
