Freq,Floor Bounce,Ceiling Bounce,Front Wall Bounce,Side Wall Bounce,Rear Wall Bounce,Total Early Reflection
22.4,39.898039797558056,51.490068850248065,51.522486430397606,52.28988854834566,60.675517818459014,55.13326439169248
23.0,40.203134623913684,51.664355035503974,49.86193194952651,50.26492844054874,57.473995743771695,52.64499489558537
23.6,42.04225659548729,53.00204404422746,50.14672056439008,50.256108401023425,56.57793799233943,52.45466612809125
24.0,43.186053303944846,53.428128337082825,50.13747943924611,49.941491378036886,55.470738769907285,52.01578758919274
25.0,43.27926068829237,52.35465901190179,49.0006644248908,48.63126312008319,53.3752624294583,50.51691480051437
25.8,44.094309256104054,51.96988350036804,48.867286142189926,48.1983476431067,52.23480287458031,49.94268514689074
26.5,44.025264539288486,50.585947821222845,47.85201191215589,46.99198880087775,50.30975486141833,48.55047715496923
27.2,42.356479946616076,47.52059182705929,45.296615634227805,44.27135417685437,46.80307580666636,45.615771091373176
28.0,42.96235742942079,46.71870232955291,45.12880311002422,43.97084821493473,45.69763423962871,45.089728209850364
29.0,43.746809835208126,46.05007883697385,45.145391981850366,43.8234870583135,44.791274686567476,44.797924213895385
30.0,44.70542400732663,45.70969604679374,45.490114580733035,44.13558512002356,44.2782317732015,44.910321184698034
30.7,46.133589826879984,45.83667938067103,46.28814479747726,44.89077206626342,44.2967838850694,45.55505994035258
31.5,48.53358982687996,47.06435116421898,48.17981945185113,46.70642357532998,45.41159783282802,47.317230367529476
32.5,51.60306957104251,49.042702943505276,50.7814727883073,49.308035951073464,47.39305603361467,49.86517590776384
33.5,54.90690501035459,51.26739980717247,53.65647342030849,52.18261703313527,49.8134061103859,52.72576805997127
34.5,58.545767194384695,54.04070231161879,56.85708663030567,55.449257289442954,52.77412883903298,56.00770165240863
35.5,61.3526095320222,56.1966169418296,59.365742144373115,58.02802887096348,55.2839916799461,58.595835968310695
36.5,63.32349685065981,57.713338708964955,61.06466096220851,59.772774525729346,57.17167157227152,60.40479304934121
37.5,65.32349685065981,59.75050718524295,62.91179515842893,61.77214811415044,59.46225366156273,62.402279706800584
38.7,67.1948570588317,62.02022160616295,64.74539792775278,63.70914518806467,61.80683424973654,64.37163379135433
40.0,68.89485705883172,64.4840783937255,66.45630795457924,65.59273870476645,64.14207557632699,66.27439822491189
41.2,70.7234968506598,67.43563946709276,68.4342708187737,67.80031256582517,66.81424282403461,68.47011875156154
42.5,72.11592692226706,70.26839968904116,70.20622609598072,69.76595438017112,69.16501648585883,70.42400378872846
43.7,73.0457671943847,72.7217959902394,71.63452722041526,71.37922033191339,71.11480708331379,72.04731783888
45.0,74.03663575667186,74.99742198666301,73.20903501216256,73.11360445049151,72.99127280492937,73.73890435182597
46.2,74.93435140868503,76.76194729184087,74.65732301324417,74.61068341078565,74.55247382251898,75.19184878235546
47.5,76.10076749445561,78.32179599023938,76.31387927014443,76.21068341078563,76.09396759417747,76.70170263371583
48.7,77.20306957104253,79.34314683892157,77.8008144665703,77.52991474109969,77.23185628242523,77.8991710962409
50.0,78.23821129888742,79.96839968904115,78.96648058053343,78.53164213315564,77.98023102232534,78.79522260140996
51.5,79.37387961222818,80.63012065974809,80.16436709413529,79.47405544069737,78.62271441979848,79.70777692006237
53.0,80.53821129888743,81.15518710397394,81.26693043193589,80.38002792927733,79.19314649699139,80.56698166605332
54.5,81.57387961222817,81.58155349220621,82.15384989878365,81.14355889117277,79.60057517833437,81.29141686496766
56.0,82.50542400732661,81.94511556931755,83.01226549334766,81.8090329912985,80.01080724591995,81.96761921005849
58.0,83.50231994589775,82.40920925226938,83.85732431517516,82.55020163716256,80.4679182049262,82.70670828566065
60.0,84.60231994589775,83.07383110211923,84.79715721023523,83.43149678271536,81.17409555476321,83.59726354860445
61.5,85.53513059177982,83.60131827952111,85.58675264754275,84.15503169772462,81.78735966581127,84.34587210895711
63.0,86.20076749445562,83.96668552790022,86.12699467252389,84.73149678271537,82.27159617537968,84.89147855306065
65.0,86.83435140868502,84.29485705883171,86.68301011426989,85.25503169772462,82.80258350081547,85.42374217286127
67.0,87.40076749445562,84.72349685065979,87.15251964068128,85.81313953999233,83.39951044115588,85.94514969564139
69.0,87.93435140868502,85.18982856673472,87.62386986096215,86.36813431484035,84.01588705799367,86.46578824060856
71.0,88.3669218511605,85.7489851487955,88.05000634017071,86.94520600354645,84.71157302988125,86.97474787313958
73.0,88.9669218511605,86.61227178315617,88.64675150375353,87.66221459237072,85.5605792641652,87.66784427060591
75.0,89.43358982687997,87.4760917544922,89.1590700361194,88.3182442438724,86.33103943523038,88.2859676360022
77.5,89.80306957104251,88.27609175449223,89.64445718403786,88.89983077918484,86.91445727000666,88.82759286741282
80.0,90.23663575667186,88.94044167945492,90.11508314243883,89.32247325414757,87.32338019432783,89.30627756188461
82.5,90.5053180676647,89.27609175449223,90.41508314243883,89.56692173575641,87.49160901518337,89.57750739265136
85.0,90.8053180676647,89.4457671943847,90.6861845050195,89.7499316079587,87.63770314503941,89.80421318812445
87.5,90.97150800786939,89.41592692226706,90.82979499755905,89.82988465408721,87.65223480706226,89.89395291309035
90.0,90.96845083805432,89.21592692226704,90.80229476693692,89.72988465408721,87.54240479805425,89.81826759886604
92.5,90.86845083805433,88.95260953202218,90.62979499755905,89.52988465408721,87.2901829705828,89.63443406026838
95.0,90.66845083805433,88.58656646311246,90.37331062323638,89.23326375905616,86.85752662900663,89.3465231746848
97.5,90.46845083805431,88.2234968506598,90.14608542591296,88.9786299082622,86.42730115562092,89.07635134093348
100.0,90.30076749445561,87.76096514237182,89.90229476693692,88.66244965331123,85.70972803446992,88.75515825718603
103.0,90.30076749445561,87.34314826109434,89.87525122642457,88.38418758905331,84.38693460336442,88.51221516722028
106.0,90.06845083805433,86.60034112939826,89.7729181897017,87.33824660912198,79.94316301780694,87.87112931287987
109.0,89.21592692226704,87.03546263134683,89.58242230727826,86.67743573669202,84.0720124788538,87.73661097010226
112.0,89.38219967332304,88.12758719283592,89.88539130564125,87.96513947266779,86.99218183690611,88.59417406148276
115.0,89.61227178315617,88.48982856673473,90.03537086618988,88.48264684748963,87.58328770540928,88.92919135517562
118.0,89.87609175449221,88.71916705502754,90.21998423401445,88.83677387477599,87.78460771405958,89.17387369148028
122.0,89.9760917544922,88.8489851487955,90.29177750674626,89.0298846540872,87.83904403080304,89.28293302243794
125.0,90.00690501035459,88.81916705502753,90.24675150375353,89.0298846540872,87.7436087372821,89.25990852007364
128.0,90.00690501035459,88.8489851487955,90.24675150375353,89.06516840337088,87.67700007365441,89.26271018320585
132.0,89.97150800786939,88.78219967332305,90.17658977321828,89.0298846540872,87.42051114891248,89.18281026902366
136.0,89.93663575667188,88.68219967332303,90.04675150375354,88.96813431484034,87.01166283892115,89.05868510292056
140.0,89.96845083805432,88.61916705502753,90.03175513861908,88.91313953999233,86.3875445149737,88.96703171927733
145.0,89.96845083805432,88.51916705502752,89.9584058450406,88.74246053230243,85.66522726954747,88.82122857106717
150.0,89.70306957104253,88.38982856673472,89.80229476693692,88.4705775918328,85.46211574290864,88.61477252437015
155.0,89.50690501035459,88.2566725593005,89.70229476693693,88.33276641677855,85.61565692905057,88.50202613789045
160.0,89.40690501035459,88.18982856673472,89.73175513861908,88.27057759183279,85.68556554407557,88.46760199181678
165.0,89.50690501035459,88.12758719283592,89.77525122642456,88.29499841042087,85.60196689217666,88.48872479988485
170.0,89.60690501035458,88.06588846059687,89.80489499373621,88.29956388711857,85.31989787521636,88.48380004876567
175.0,89.64044167945492,87.87662798253903,89.81998423401443,88.1893225687664,84.63728606510557,88.379905976814
180.0,89.5404416794549,87.54898359150842,89.71998423401443,87.75929007237313,83.34848559403461,88.08751192577668
185.0,89.0122717831562,87.42179738688895,89.46528715999551,87.30776207081249,82.9202303158214,87.73336544148759
190.0,88.55260953202217,87.32179738688896,89.20914589305828,87.05486813212619,83.34784092960547,87.50284437353949
195.0,88.28982856673471,87.02179738688895,88.90914589305828,86.8053124405916,83.22602055682445,87.23536953523846
200.0,88.15260953202218,86.82179738688895,88.73924275721993,86.63186948969388,82.97141880443887,87.06081276172056
206.0,88.08982856673472,86.82179738688895,88.70914589305829,86.57145342892548,82.95161622306286,87.02338240222662
212.0,87.98982856673473,87.0489835915084,88.7652871599955,86.67145342892547,83.2007546301972,87.09698711245072
218.0,87.86096514237184,87.27082970284299,88.7652871599955,86.74513806681017,83.31588533787658,87.13365294895793
224.0,87.92758719283592,87.30963256681619,88.85000634017072,86.77145342892548,83.05313079521346,87.16602185101254
230.0,88.08982856673472,87.28219812790056,88.99366590096783,86.77790048898339,82.63688943634746,87.21294835283373
236.0,88.03257218046558,87.44898359150842,89.03924275721991,86.67604918841144,82.24290755444275,87.20289819011629
240.0,87.7096325668162,87.88219812790055,89.08539130564125,86.61502210173128,82.32094134420313,87.2323264072593
250.0,87.42179738688895,87.92179738688895,89.03924275721991,86.56319403481638,82.26164357709392,87.1518470308706
258.0,87.14898359150843,87.36194867563766,88.63924275721992,86.24732635865567,81.72737638504901,86.74809795190691
265.0,86.8096325668162,86.7950645803583,88.13924275721992,85.71502210173128,81.03026416100418,86.25083841303024
272.0,86.50963256681621,87.14314826109435,87.93924275721992,85.52228735290043,80.8923928272187,86.1643347806407
280.0,86.28888547155003,87.96096514237182,88.20914589305828,85.82228735290043,81.27806602861799,86.49188640575224
290.0,86.63546263134683,88.56096514237183,88.80914589305829,86.42290201231029,82.08559489374437,87.05766965822623
300.0,87.56194867563767,88.99897445130925,89.43924275721992,87.21194105500615,82.80993648245271,87.72419274036429
307.0,88.14898359150843,89.37082970284298,89.80914589305829,87.61415025910566,82.74272331827308,88.11639905023873
315.0,88.17662798253905,89.4096325668162,89.79366590096781,87.71415025910565,82.43268733505779,88.12847075419327
325.0,88.06588846059688,89.10963256681619,89.61998423401444,87.62745355433876,82.3199932923073,87.95344966708322
335.0,87.86588846059686,88.57082970284299,89.33924275721992,87.18748430179784,81.49546794146008,87.56579028325473
345.0,87.53752777300028,88.24314826109435,89.01363940606879,86.68463808338925,80.11992297736077,87.16040449333761
355.0,87.33752777300026,88.01592538879981,88.92386986096213,86.58463808338925,80.05233922317097,87.01080698405916
365.0,87.33752777300026,87.8552196930838,88.93924275721992,86.66475106144105,80.39879212231466,87.00500701680254
375.0,87.27662798253905,87.8094224842602,88.96005936857911,86.26319403481638,79.77375873113245,86.88949531153618
387.0,87.16194867563765,88.35521969308378,89.17602210108666,86.49217894944388,80.41946871588786,87.14022460405415
400.0,87.48888547155003,88.62179738688894,89.52940676691628,87.0779004889834,80.89825798025832,87.51206269364066
412.0,87.87662798253903,88.3094224842602,89.62049951134705,86.59612341671482,79.64462358308153,87.41307048766836
425.0,87.77662798253905,88.45062128010363,89.47455785944567,86.1397645398383,80.0176757711794,87.31886457049006
437.0,87.30473530118576,88.79506458035829,89.4351604799582,86.501600477849,81.08917954176536,87.40162049594792
450.0,87.26588846059688,88.43546263134682,89.19867242696347,86.0917685698717,80.01489554080867,87.1075952967249
462.0,87.15667255930049,88.25062128010364,88.77455785944568,85.46470327250341,79.5350722229621,86.78331331968312
475.0,86.77928732607432,87.5672655885961,88.12285588808359,84.76321051273494,78.85346583664364,86.1758278965518
487.0,86.00690501035459,86.82526453928848,87.05086213388185,83.50606305689574,77.28458486727334,85.22431805298862
500.0,84.41227178315619,85.42526453928849,85.62285588808359,81.97916959391206,76.06694723989898,83.75888864327824
515.0,83.43821129888744,83.62526453928848,84.12758020744901,80.49387196243987,74.81930900924175,82.3156527201858
530.0,82.80306957104251,82.96136837622763,83.24303370469882,79.26369354868714,73.5860952866741,81.50259494314774
545.0,82.78982856673473,81.92602452356692,83.24303370469882,79.16771452295667,73.17927147239504,81.20756070558869
560.0,83.76096514237182,82.10330383828929,84.05378373474547,79.77532943592384,73.90298732985546,81.8970491946686
580.0,84.42179738688895,82.52643297742509,85.45378373474547,80.79361070519259,74.52634308713161,82.81117432787872
600.0,85.66878033996791,83.40921140720404,86.73156734312867,81.75610532515456,75.67645133323721,83.96565000494205
615.0,85.95062128010363,84.05648313414828,87.69811046865895,82.65109895042968,76.20199162303724,84.66126051588407
630.0,85.78538710465898,84.45648313414827,87.78707595583128,82.40576228021408,75.76272943018445,84.68469810416885
650.0,84.4165581917717,84.97695775614918,87.30446733802114,82.05203812894821,74.90593644861042,84.215904022129
670.0,83.36620989389218,85.37695775614915,87.09888657798578,81.59942684582381,74.45716554730912,83.96946832399017
690.0,82.18493054864311,86.27695775614916,87.19888657798577,81.5453000096347,73.89738501971571,84.0879812980193
710.0,81.46870529959135,86.98444762363009,87.50082270929394,81.50195128274413,73.56771273179211,84.3652498288629
730.0,80.10417076915651,86.8261160916701,87.7463697250274,81.90198775251494,74.06647708813541,84.34430904141072
750.0,78.78215092256349,86.35905592381313,87.79523726086698,81.88621675548976,73.22986277405926,84.10032342706883
775.0,76.8368484662727,85.53288092656521,87.37983775130111,81.37587068142393,72.41632155420872,83.4537111798397
800.0,74.80733618332046,84.43908938702468,86.7798377513011,80.54983666869666,70.82630516630942,82.60152183223016
825.0,74.57551113390336,83.30084968059333,86.3563032996247,80.2260861085718,69.90783106332182,81.98544784373846
850.0,75.29610594191716,82.6261192625266,85.99469888792194,80.02135531517224,68.70447674943695,81.59842024239015
875.0,76.89470218621024,80.9369776185303,85.866326918239,80.03727868341878,68.2079826520729,81.24842218456175
900.0,77.98318748965204,79.48193417877424,85.81063265137013,79.69193557248069,67.85578562753079,81.01736214500801
925.0,78.92842011477168,78.36072651529058,85.74636972502742,79.41920901422765,67.30068549694442,80.89955686648878
950.0,79.30724699916735,77.69074275843803,85.82377006588499,79.14844415494021,66.3270090636156,80.88333253783875
975.0,79.40920925226939,78.51622495047967,86.03714789805204,78.81982955140282,65.78703390558658,81.07117199725867
1000.0,80.40123572626639,78.99441444972206,86.43249544086676,79.02828522665345,64.66125889562005,81.53315275605605
1030.0,81.27611856531715,78.85269579506134,86.76131480277567,79.53010141361806,65.37756429093614,81.92299991073591
1060.0,82.06876939891171,79.73966428643988,86.998717831455,79.32303308863048,65.6765162138413,82.28144442834201
1090.0,82.26671702468143,80.75206000485605,87.0408387732568,78.5394272366012,66.13490250372078,82.40001650966981
1120.0,82.3612748054792,81.1670591773177,87.06747820888091,78.45526973700709,65.60436845445844,82.48368510521307
1150.0,82.6667207368606,80.18405461574942,87.11862657962843,78.98056113439816,65.18339060442713,82.48737572479278
1180.0,82.98246753146329,79.32330917819013,86.78420286618348,78.64539092658474,65.67518833085964,82.24318270298087
1220.0,82.95218761292408,79.51388511176722,86.3657685524923,77.65060616407328,65.99009813699877,81.9425413424423
1250.0,82.50137735040872,79.69430017477814,85.9867716872494,76.63117521511727,64.53739472430132,81.56467161724142
1280.0,82.12933043421359,78.87863643206258,85.72893828215967,76.56555316402539,63.88747809553911,81.22109870836233
1320.0,82.42057765478032,78.36161973556077,85.5657685524923,76.53226934177745,63.741121994422485,81.14461089511612
1360.0,82.55447715330635,79.17404084094025,85.50849587576842,76.34340956286724,64.22623576559153,81.23194263695532
1400.0,83.03736534393184,80.10937829065055,85.7451412397126,75.85715224834534,64.56304518499778,81.58724335425063
1450.0,83.4840546157494,80.22457993687898,85.9139871828433,75.92694855980334,64.20521592513097,81.82094432157447
1500.0,83.70137735040873,80.80566507474114,86.02393316138,75.93596101845769,65.34861382806903,82.02947060320426
1550.0,83.78493054864312,81.51124970721759,86.01280943015803,74.75086343515015,65.736475408659,82.11420681988783
1600.0,83.37131751433742,81.34127727300388,85.72546420811727,75.24613143637863,64.0129430337924,81.83683566518621
1650.0,83.19307493464335,81.28838259233902,85.51379837256268,76.65788312877841,64.41338737043418,81.75024470853796
1700.0,83.1553590714605,81.76493035341095,84.95643385756705,76.90605026523983,65.88299821569697,81.60123043216981
1750.0,83.22057765478033,81.22154865751025,84.38346428555255,77.20847068400847,65.79517580994849,81.29148535911489
1800.0,83.39736051976007,80.95274994214361,84.45073547429253,78.30359343538943,65.4951040434425,81.41789066689127
1850.0,84.11923785438674,81.74805664755615,84.63867893534368,78.1784381944562,65.93879084680569,81.86610577244626
1900.0,84.41274087273615,82.08204905670956,85.21548078772216,78.83219171709129,65.34338574311786,82.30398986879344
1950.0,84.73955252761748,82.41330803851717,85.89784426772383,79.46651992968292,65.31903888096446,82.800456188541
2000.0,85.02253333882662,82.21246869220079,86.27956027660099,79.61069621275462,66.59690078018528,83.03143677858579
2060.0,84.60994607707171,82.17704191626862,86.40049697855879,79.53842665788461,66.16149898733394,82.94361702371098
2120.0,84.19689984743688,81.66801107083917,86.13722161073942,79.44546950655833,65.81772703230052,82.61206572026981
2180.0,84.25597330084369,81.90072921332073,86.01318764281292,79.42099287834048,64.50484453121442,82.6055036711144
2240.0,84.37283899448727,80.56688340325046,85.95996883165262,79.21401947670662,63.204362797593774,82.39369610202627
2300.0,84.94214978057114,81.0485058811867,86.2336593726376,79.12001088528588,63.21471747687909,82.75641863489412
2360.0,85.2350861467824,81.25720370462116,86.57440768759194,78.9795979116514,64.11287824183847,83.02517846267887
2400.0,85.5296077884731,81.94556025894033,86.50615702860827,78.33115468113652,63.67434326708985,83.14498538835194
2500.0,85.69389937662777,82.08164091910503,86.84468026595842,78.90000975821691,65.27204616359236,83.412690078596
2580.0,86.16668704826357,82.82136425855369,86.98831552292607,79.03308180504709,65.71478517479727,83.76130962585164
2650.0,86.41853025325682,83.62698400522295,87.24634793981976,80.05946907809246,66.4372171808261,84.16679298463752
2720.0,86.98021043702585,83.86061809080708,87.63769902394495,80.84479094539914,66.81480370833533,84.62067190319681
2800.0,86.75159316859873,83.85623495782838,87.61942621320378,81.07682766150606,67.96730464237271,84.5598801658547
2900.0,87.00265313251614,84.46062045150714,87.8247796842226,81.22216882928775,67.48009715646324,84.84269438540929
3000.0,86.284933415315,83.68362512126279,87.707939534949,80.56211958681878,67.21734850451554,84.3700538809941
3070.0,85.65858760124325,83.42680426515608,87.69313707123082,80.29731896863322,66.10564941859185,84.10682321045323
3150.0,85.66839968904114,83.02470872985774,87.78708898735108,79.82415761412031,65.07268838034108,84.04671194882306
3250.0,85.59742198666302,82.72802377249943,87.79479988591677,79.09093982424119,64.02639502777083,83.92962768855577
3350.0,85.68143621591466,82.37731026743901,88.05790995414874,79.45837015704953,63.131260715011365,84.05716255640411
