Freq,Floor Bounce,Ceiling Bounce,Front Wall Bounce,Side Wall Bounce,Rear Wall Bounce,Total Early Reflection
22.4,40.83348283553272,52.425511888222786,52.4579294683723,53.22533158632032,61.61096085643368,56.068707429667114
23.0,41.138577661888405,52.59979807347867,50.7973749875012,51.20037147852344,58.40943878174639,53.58043793356006
23.6,42.97769963346195,53.93748708220218,51.0821636023648,51.19155143899812,57.51338103031412,53.39010916606594
24.0,44.12149634191957,54.36357137505752,51.0729224772208,50.87693441601158,56.40618180788198,52.95123062716743
25.0,44.21470372626703,53.29010204987648,49.936107462865436,49.566706158057855,54.310705467433024,51.452357838489064
25.8,45.02975229407875,52.905326538342706,49.80272918016462,49.13379068108139,53.170245912555,50.87812818486543
26.5,44.96070757726318,51.52139085919754,48.78745495013061,47.92743183885244,51.24519789939302,49.48592019294392
27.2,43.29192298459077,48.456034865033985,46.23205867220253,45.206797214829066,47.73851884464108,46.5512141293479
28.0,43.897800467395484,47.654145367527576,46.064246147998915,44.906291252909426,46.633077277603434,46.02517124782506
29.0,44.68225287318285,46.985521874948546,46.08083501982503,44.75893009628817,45.72671772454217,45.73336725187008
30.0,45.64086704530129,46.64513908476846,46.4255576187077,45.071028157998285,45.21367481117619,45.8457642226727
30.7,47.06903286485468,46.77212241864572,47.22358783545192,45.826215104238116,45.232226923044095,46.49050297832727
31.5,49.469032864854654,47.99979420219367,49.115262489825795,47.64186661330467,46.34704087080269,48.25267340550414
32.5,52.538512609017204,49.97814598147997,51.71691582628202,50.24347898904816,48.328499071589334,50.80061894573856
33.5,55.842348048329285,52.20284284514713,54.59191645828315,53.118060071109966,50.74884914836059,53.66121109794594
34.5,59.48121023235939,54.97614534959348,57.79252966828034,56.38470032741765,53.70957187700765,56.94314469038332
35.5,62.288052569996864,57.132059979804325,60.30118518234781,58.963471908938175,56.21943471792076,59.53127900628539
36.5,64.2589398886345,58.64878174693965,62.0001040001832,60.70821756370407,58.107114610246185,61.34023608731593
37.5,66.2589398886345,60.685950223217645,63.84723819640362,62.70759115212513,60.39769669953739,63.33772274477528
38.7,68.1303000968064,62.95566464413764,65.68084096572747,64.64458822603936,62.74227728771123,65.30707682932902
40.0,69.8303000968064,65.41952143170016,67.39175099255394,66.52818174274111,65.07751861430168,67.20984126288658
41.2,71.65893988863449,68.37108250506745,69.3697138567484,68.73575560379984,67.74968586200931,69.40556178953622
42.5,73.05136996024177,71.20384272701585,71.14166913395542,70.70139741814583,70.1004595238335,71.35944682670316
43.7,73.98121023235939,73.65723902821408,72.56997025838996,72.3146633698881,72.0502501212885,72.98276087685471
45.0,74.97207879464656,75.93286502463769,74.14447805013727,74.04904748846621,73.92671584290406,74.67434738980067
46.2,75.86979444665971,77.69739032981555,75.59276605121886,75.54612644876035,75.48791686049367,76.12729182033014
47.5,77.03621053243032,79.25723902821409,77.2493223081191,77.14612644876034,77.02941063215218,77.63714567169053
48.7,78.13851260901721,80.27858987689625,78.736257504545,78.46535777907438,78.16729932039993,78.8346141342156
50.0,79.17365433686213,80.90384272701584,79.90192361850814,79.46708517113032,78.91567406030003,79.73066563938465
51.5,80.30932265020287,81.5655636977228,81.09981013210997,80.40949847867205,79.55815745777319,80.64321995803708
53.0,81.47365433686211,82.09063014194862,82.2023734699106,81.31547096725203,80.12858953496608,81.50242470402802
54.5,82.50932265020288,82.51699653018092,83.08929293675834,82.07900192914747,80.53601821630906,82.22685990294235
56.0,83.4408670453013,82.88055860729223,83.94770853132235,82.74447602927317,80.94625028389466,82.90306224803317
58.0,84.43776298387246,83.34465229024408,84.79276735314986,83.48564467513724,81.40336124290091,83.64215132363535
60.0,85.53776298387245,84.00927414009392,85.7326002482099,84.36693982069006,82.10953859273792,84.53270658657912
61.5,86.47057362975453,84.53676131749582,86.52219568551743,85.0904747356993,82.72280270378594,85.28131514693179
63.0,87.13621053243031,84.9021285658749,87.0624377104986,85.66693982069006,83.20703921335439,85.82692159103536
65.0,87.76979444665973,85.23030009680639,87.6184531522446,86.19047473569933,83.73802653879018,86.35918521083596
67.0,88.3362105324303,85.65893988863449,88.08796267865596,86.74858257796703,84.33495347913059,86.8805927336161
69.0,88.86979444665972,86.12527160470941,88.55931289893682,87.30357735281505,84.95133009596834,87.40123127858325
71.0,89.3023648891352,86.6844281867702,88.98544937814542,87.88064904152115,85.64701606785596,87.91019091111428
73.0,89.90236488913519,87.54771482113088,89.58219454172824,88.59765763034542,86.49602230213989,88.6032873085806
75.0,90.36903286485467,88.4115347924669,90.09451307409411,89.25368728184708,87.26648247320506,89.22141067397689
77.5,90.73851260901722,89.2115347924669,90.57990022201255,89.83527381715952,87.84990030798134,89.76303590538753
80.0,91.17207879464655,89.8758847174296,91.05052618041354,90.25791629212226,88.25882323230253,90.24172059985929
82.5,91.44076110563941,90.2115347924669,91.35052618041354,90.50236477373112,88.42705205315808,90.51295043062606
85.0,91.7407611056394,90.38121023235938,91.62162754299419,90.6853746459334,88.5731461830141,90.73965622609916
87.5,91.90695104584407,90.35136996024177,91.76523803553374,90.7653276920619,88.58767784503695,90.82939595106502
90.0,91.903893876029,90.15136996024175,91.73773780491163,90.6653276920619,88.47784783602894,90.75371063684072
92.5,91.80389387602904,89.88805256999687,91.56523803553374,90.46532769206189,88.2256260085575,90.56987709824307
95.0,91.60389387602903,89.52200950108717,91.30875366121107,90.16870679703086,87.79296966698132,90.28196621265951
97.5,91.40389387602902,89.15893988863449,91.08152846388766,89.9140729462369,87.36274419359563,90.01179437890819
100.0,91.23621053243032,88.69640818034651,90.83773780491161,89.59789269128592,86.64517107244461,89.69060129516073
103.0,91.23621053243032,88.27859129906903,90.81069426439925,89.31963062702799,85.3223776413391,89.44765820519497
106.0,91.00389387602903,87.53578416737297,90.70836122767638,88.27368964709669,80.87860605578165,88.80657235085458
109.0,90.15136996024175,87.97090566932152,90.51786534525296,87.6128787746667,85.00745551682847,88.67205400807697
112.0,90.31764271129774,89.06303023081063,90.82083434361596,88.9005825106425,87.9276248748808,89.52961709945747
115.0,90.54771482113087,89.42527160470942,90.97081390416456,89.41808988546433,88.51873074338397,89.8646343931503
118.0,90.81153479246692,89.65461009300222,91.15542727198914,89.77221691275068,88.72005075203425,90.10931672945497
122.0,90.9115347924669,89.78442818677019,91.22722054472096,89.9653276920619,88.77448706877772,90.21837606041264
125.0,90.94234804832928,89.75461009300223,91.18219454172824,89.9653276920619,88.67905177525678,90.19535155804832
128.0,90.94234804832928,89.78442818677019,91.18219454172824,90.00061144134557,88.6124431116291,90.19815322118055
132.0,90.90695104584407,89.71764271129774,91.11203281119296,89.9653276920619,88.35595418688717,90.11825330699835
136.0,90.87207879464655,89.61764271129773,90.98219454172823,89.90357735281503,87.94710587689585,89.99412814089527
140.0,90.90389387602902,89.55461009300222,90.96719817659375,89.84858257796701,87.3229875529484,89.90247475725202
145.0,90.90389387602902,89.45461009300223,90.89384888301531,89.67790357027712,86.60067030752217,89.75667160904186
150.0,90.63851260901721,89.32527160470943,90.7377378049116,89.40602062980749,86.39755878088334,89.55021556234483
155.0,90.4423480483293,89.1921155972752,90.63773780491161,89.26820945475325,86.55109996702528,89.43746917586515
160.0,90.34234804832928,89.12527160470941,90.66719817659376,89.20602062980748,86.62100858205027,89.40304502979146
165.0,90.4423480483293,89.06303023081063,90.71069426439927,89.23044144839557,86.53740993015134,89.42416783785953
170.0,90.54234804832927,89.00133149857157,90.7403380317109,89.23500692509326,86.25534091319105,89.41924308674038
175.0,90.5758847174296,88.81207102051374,90.75542727198913,89.12476560674111,85.57272910308026,89.31534901478868
180.0,90.4758847174296,88.4844266294831,90.65542727198914,88.69473311034784,84.28392863200932,89.02295496375137
185.0,89.94771482113087,88.35724042486365,90.4007301979702,88.24320510878718,83.85567335379609,88.66880847946227
190.0,89.48805256999685,88.25724042486364,90.14458893103296,87.99031117010088,84.28328396758016,88.43828741151418
195.0,89.22527160470942,87.95724042486364,89.84458893103297,87.7407554785663,84.16146359479914,88.17081257321317
200.0,89.08805256999688,87.75724042486365,89.6746857951946,87.56731252766858,83.90686184241358,87.99625579969523
206.0,89.02527160470942,87.75724042486365,89.64458893103297,87.50689646690017,83.88705926103754,87.9588254402013
212.0,88.92527160470941,87.98442662948311,89.7007301979702,87.60689646690018,84.1361976681719,88.03243015042543
218.0,88.79640818034652,88.20627274081767,89.7007301979702,87.68058110478485,84.25132837585129,88.06909598693261
224.0,88.86303023081061,88.2450756047909,89.7854493781454,87.70689646690019,83.98857383318817,88.10146488898722
230.0,89.02527160470942,88.21764116587525,89.9291089389425,87.7133435269581,83.57233247432217,88.14839139080843
236.0,88.96801521844026,88.3844266294831,89.9746857951946,87.61149222638615,83.17835059241743,88.13834122809097
240.0,88.6450756047909,88.81764116587524,90.02083434361595,87.55046513970598,83.25638438217783,88.16776944523397
250.0,88.35724042486365,88.85724042486365,89.9746857951946,87.49863707279108,83.1970866150686,88.08729006884528
258.0,88.08442662948312,88.29739171361234,89.57468579519461,87.18276939663036,82.66281942302369,87.6835409898816
265.0,87.74507560479088,87.73050761833298,89.07468579519463,86.65046513970599,81.96570719897886,87.18628145100494
272.0,87.4450756047909,88.07859129906905,88.87468579519461,86.45773039087514,81.82783586519339,87.09977781861538
280.0,87.22432850952472,88.89640818034653,89.14458893103296,86.75773039087514,82.21350906659268,87.42732944372695
290.0,87.57090566932152,89.4964081803465,89.74458893103296,87.35834505028498,83.02103793171906,87.99311269620091
300.0,88.49739171361236,89.93441748928394,90.37468579519461,88.14738409298084,83.74537952042742,88.65963577833898
307.0,89.0844266294831,90.30627274081766,90.74458893103296,88.54959329708035,83.67816635624777,89.05184208821342
315.0,89.11207102051372,90.34507560479089,90.72910893894252,88.64959329708036,83.3681303730325,89.06391379216797
325.0,89.00133149857157,90.0450756047909,90.55542727198912,88.56289659231344,83.25543633028198,88.88889270505793
335.0,88.80133149857157,89.50627274081766,90.27468579519461,88.12292733977252,82.43091097943476,88.5012333212294
345.0,88.47297081097497,89.17859129906904,89.9490824440435,87.62008112136392,81.05536601533547,88.09584753131232
355.0,88.27297081097497,88.95136842677451,89.85931289893682,87.52008112136393,80.98778226114567,87.94625002203384
365.0,88.27297081097497,88.79066273105848,89.87468579519461,87.60019409941575,81.33423516028934,87.94045005477722
375.0,88.21207102051373,88.74486552223487,89.8955024065538,87.19863707279109,80.70920176910715,87.82493834951087
387.0,88.09739171361235,89.29066273105849,90.11146513906135,87.42762198741856,81.35491175386257,88.07566764202886
400.0,88.42432850952471,89.55724042486365,90.46484980489096,88.0133435269581,81.833701018233,88.44750573161534
412.0,88.81207102051371,89.24486552223489,90.55594254932173,87.53156645468951,80.5800666210562,88.34851352564306
425.0,88.71207102051375,89.38606431807834,90.41000089742036,87.07520757781299,80.95311880915409,88.25430760846476
437.0,88.24017833916044,89.73050761833298,90.3706035179329,87.4370435158237,82.02462257974004,88.33706353392263
450.0,88.20133149857156,89.37090566932153,90.13411546493816,87.0272116078464,80.95033857878335,88.04303833469957
462.0,88.0921155972752,89.18606431807834,89.71000089742037,86.4001463104781,80.47051526093679,87.7187563576578
475.0,87.71473036404902,88.50270862657081,89.0582989260583,85.69865355070964,79.78890887461833,87.11127093452649
487.0,86.94234804832928,87.76070757726319,87.98630517185656,84.44150609487043,78.22002790524803,86.15976109096331
500.0,85.3477148211309,86.36070757726318,86.5582989260583,82.91461263188677,77.00239027787367,84.69433168125295
515.0,84.37365433686213,84.56070757726316,85.06302324542372,81.42931500041455,75.75475204721644,83.25109575816049
530.0,83.7385126090172,83.89681141420233,84.1784767426735,80.19913658666182,74.52153832464879,82.43803798112243
545.0,83.72527160470942,82.8614675615416,84.1784767426735,80.10315756093138,74.11471451036974,82.14300374356338
560.0,84.69640818034652,83.03874687626399,84.98922677272017,80.71077247389852,74.83843036783014,82.83249223264329
580.0,85.35724042486365,83.46187601539978,86.38922677272018,81.7290537431673,75.46178612510629,83.74661736585341
600.0,86.60422337794259,84.34465444517873,87.66701038110335,82.69154836312926,76.61189437121189,84.90109304291673
615.0,86.88606431807834,84.99192617212296,88.63355350663363,83.58654198840438,77.13743466101195,85.59670355385875
630.0,86.72083014263369,85.39192617212296,88.72251899380598,83.34120531818876,76.69817246815914,85.62014114214354
650.0,85.35200122974638,85.91240079412385,88.23991037599583,82.98748116692292,75.84137948658511,85.15134706010369
670.0,84.30165293186687,86.31240079412386,88.03432961596049,82.5348698837985,75.3926085852838,84.90491136196486
690.0,83.1203735866178,87.21240079412385,88.13432961596047,82.4807430476094,74.8328280576904,85.023424335994
710.0,82.40414833756606,87.91989066160477,88.43626574726862,82.43739432071882,74.5031557697668,85.3006928668376
730.0,81.0396138071312,87.76155912964478,88.68181276300211,82.83743079048965,75.00192012611012,85.27975207938542
750.0,79.71759396053818,87.29449896178782,88.73068029884169,82.82165979346443,74.16530581203395,85.03576646504351
775.0,77.77229150424738,86.46832396453992,88.31528078927582,82.31131371939864,73.3517645921834,84.3891542178144
800.0,75.74277922129517,85.37453242499936,87.71528078927581,81.48527970667136,71.76174820428412,83.53696487020484
825.0,75.51095417187804,84.23629271856802,87.29174633759939,81.16152914654648,70.84327410129652,82.92089088171316
850.0,76.23154897989187,83.5615623005013,86.93014192589665,80.95679835314692,69.63991978741163,82.53386328036484
875.0,77.83014522418495,81.87242065650501,86.80176995621369,80.97272172139348,69.14342569004758,82.18386522253645
900.0,78.91863052762672,80.41737721674892,86.74607568934483,80.62737861045538,68.7912286655055,81.95280518298269
925.0,79.86386315274636,79.29616955326527,86.6818127630021,80.35465205220234,68.23612853491913,81.83499990446347
950.0,80.24269003714204,78.62618579641271,86.75921310385966,80.08388719291489,67.26245210159028,81.81877557581343
975.0,80.34465229024408,79.45166798845437,86.97259093602673,79.75527258937751,66.72247694356129,82.00661503523338
1000.0,81.3366787642411,79.92985748769675,87.36793847884144,79.96372826462814,65.59670193359474,82.46859579403073
1030.0,82.21156160329184,79.78813883303604,87.69675784075038,80.46554445159273,66.31300732891081,82.85844294871062
1060.0,83.0042124368864,80.67510732441455,87.93416086942969,80.25847612660519,66.611959251816,83.21688746631672
1090.0,83.2021600626561,81.68750304283074,87.97628181123149,79.47487027457589,67.07034554169546,83.33545954764452
1120.0,83.29671784345388,82.10250221529239,88.0029212468556,79.3907127749818,66.53981149243315,83.41912814318775
1150.0,83.60216377483529,81.1194976537241,88.05406961760312,79.91600417237285,66.11883364240182,83.42281876276749
1180.0,83.91791056943796,80.25875221616481,87.71964590415818,79.58083396455942,66.61063136883432,83.17862574095555
1220.0,83.88763065089876,80.44932814974192,87.30121159046698,78.58604920204797,66.92554117497345,82.87798438041698
1250.0,83.43682038838342,80.62974321275284,86.9222147252241,77.56661825309197,65.47283776227601,82.5001146552161
1280.0,83.06477347218828,79.81407947003726,86.66438132013437,77.50099620200008,64.8229211335138,82.15654174633703
1320.0,83.35602069275502,79.29706277353546,86.501211590467,77.46771237975214,64.6765650323972,82.08005393309082
1360.0,83.48992019128103,80.10948387891494,86.4439389137431,77.27885260084193,65.16167880356622,82.16738567493002
1400.0,83.97280838190652,81.04482132862526,86.6805842776873,76.79259528632002,65.49848822297247,82.52268639222534
1450.0,84.41949765372411,81.16002297485366,86.849430220818,76.86239159777803,65.1406589631057,82.75638735954917
1500.0,84.63682038838341,81.74110811271582,86.9593761993547,76.87140405643238,66.28405686604373,82.96491364117895
1550.0,84.7203735866178,82.44669274519228,86.94825246813272,75.68630647312483,66.67191844663371,83.0496498578625
1600.0,84.3067605523121,82.27672031097859,86.66090724609197,76.18157447435331,64.94838607176709,82.77227870316091
1650.0,84.12851797261801,82.22382563031373,86.44924141053735,77.59332616675309,65.34883040840884,82.68568774651264
1700.0,84.0908021094352,82.70037339138565,85.89187689554173,77.84149330321453,66.81844125367168,82.5366734701445
1750.0,84.156020692755,82.15699169548493,85.31890732352724,78.14391372198315,66.73061884792321,82.22692839708958
1800.0,84.33280355773476,81.88819298011829,85.38617851226722,79.23903647336411,66.43054708141722,82.35333370486597
1850.0,85.05468089236143,82.68349968553085,85.57412197331837,79.1138812324309,66.87423388478037,82.80154881042097
1900.0,85.34818391071083,83.01749209468424,86.15092382569685,79.76763475506598,66.27882878109254,83.23943290676814
1950.0,85.67499556559217,83.34875107649187,86.83328730569852,80.40196296765761,66.25448191893915,83.73589922651568
2000.0,85.9579763768013,83.14791173017548,87.21500331457568,80.54613925072933,67.53234381815997,83.96687981656048
2060.0,85.54538911504642,83.1124849542433,87.3359400165335,80.47386969585929,67.09694202530862,83.87906006168569
2120.0,85.13234288541156,82.60345410881388,87.0726646487141,80.380912544533,66.7531700702752,83.54750875824449
2180.0,85.19141633881837,82.83617225129544,86.94863068078763,80.35643591631519,65.44028756918914,83.54094670908911
2240.0,85.30828203246196,81.50232644122516,86.89541186962732,80.14946251468132,64.13980583556847,83.32913914000096
2300.0,85.87759281854585,81.98394891916138,87.16910241061231,80.05545392326056,64.15016051485378,83.69186167286882
2360.0,86.17052918475707,82.19264674259585,87.50985072556664,79.91504094962607,65.04832127981317,83.96062150065355
2400.0,86.46505082644778,82.88100329691501,87.44160006658296,79.26659771911122,64.60978630506455,84.08042842632662
2500.0,86.62934241460248,83.0170839570797,87.7801233039331,79.83545279619162,66.20748920156707,84.3481331165707
2580.0,87.10213008623828,83.75680729652836,87.92375856090075,79.96852484302178,66.65022821277196,84.69675266382635
2650.0,87.35397329123151,84.56242704319763,88.18179097779444,80.99491211606717,67.3726602188008,85.1022360226122
2720.0,87.91565347500054,84.79606112878177,88.57314206191965,81.78023398337385,67.75024674631004,85.55611494117151
2800.0,87.68703620657341,84.79167799580307,88.55486925117847,82.01227069948075,68.90274768034742,85.49532320382937
2900.0,87.93809617049084,85.39606348948182,88.76022272219731,82.15761186726245,68.41554019443794,85.77813742338398
3000.0,87.2203764532897,84.61906815923747,88.64338257292368,81.49756262479349,68.15279154249023,85.30549691896879
3070.0,86.59403063921795,84.36224730313077,88.62858010920552,81.2327620066079,67.04109245656656,85.04226624842792
3150.0,86.60384272701585,83.96015176783243,88.72253202532579,80.75960065209499,66.00813141831577,84.98215498679777
3250.0,86.5328650246377,83.6634668104741,88.73024292389145,80.0263828622159,64.96183806574552,84.86507072653046
3350.0,86.61687925388937,83.31275330541371,88.99335299212345,80.39381319502422,64.06670375298606,84.99260559437879
