Freq "Side Wall Bounce"
22.4 52.28988854834566
23.0 50.26492844054874
23.6 50.256108401023425
24.0 49.941491378036886
25.0 48.63126312008319
25.8 48.1983476431067
26.5 46.99198880087775
27.2 44.27135417685437
28.0 43.97084821493473
29.0 43.8234870583135
30.0 44.13558512002356
30.7 44.89077206626342
31.5 46.70642357532998
32.5 49.308035951073464
33.5 52.18261703313527
34.5 55.449257289442954
35.5 58.02802887096348
36.5 59.772774525729346
37.5 61.77214811415044
38.7 63.70914518806467
40.0 65.59273870476645
41.2 67.80031256582517
42.5 69.76595438017112
43.7 71.37922033191339
45.0 73.11360445049151
46.2 74.61068341078565
47.5 76.21068341078563
48.7 77.52991474109969
50.0 78.53164213315564
51.5 79.47405544069737
53.0 80.38002792927733
54.5 81.14355889117277
56.0 81.8090329912985
58.0 82.55020163716256
60.0 83.43149678271536
61.5 84.15503169772462
63.0 84.73149678271537
65.0 85.25503169772462
67.0 85.81313953999233
69.0 86.36813431484035
71.0 86.94520600354645
73.0 87.66221459237072
75.0 88.3182442438724
77.5 88.89983077918484
80.0 89.32247325414757
82.5 89.56692173575641
85.0 89.7499316079587
87.5 89.82988465408721
90.0 89.72988465408721
92.5 89.52988465408721
95.0 89.23326375905616
97.5 88.9786299082622
100.0 88.66244965331123
103.0 88.38418758905331
106.0 87.33824660912198
109.0 86.67743573669202
112.0 87.96513947266779
115.0 88.48264684748963
118.0 88.83677387477599
122.0 89.0298846540872
125.0 89.0298846540872
128.0 89.06516840337088
132.0 89.0298846540872
136.0 88.96813431484034
140.0 88.91313953999233
145.0 88.74246053230243
150.0 88.4705775918328
155.0 88.33276641677855
160.0 88.27057759183279
165.0 88.29499841042087
170.0 88.29956388711857
175.0 88.1893225687664
180.0 87.75929007237313
185.0 87.30776207081249
190.0 87.05486813212619
195.0 86.8053124405916
200.0 86.63186948969388
206.0 86.57145342892548
212.0 86.67145342892547
218.0 86.74513806681017
224.0 86.77145342892548
230.0 86.77790048898339
236.0 86.67604918841144
240.0 86.61502210173128
250.0 86.56319403481638
258.0 86.24732635865567
265.0 85.71502210173128
272.0 85.52228735290043
280.0 85.82228735290043
290.0 86.42290201231029
300.0 87.21194105500615
307.0 87.61415025910566
315.0 87.71415025910565
325.0 87.62745355433876
335.0 87.18748430179784
345.0 86.68463808338925
355.0 86.58463808338925
365.0 86.66475106144105
375.0 86.26319403481638
387.0 86.49217894944388
400.0 87.0779004889834
412.0 86.59612341671482
425.0 86.1397645398383
437.0 86.501600477849
450.0 86.0917685698717
462.0 85.46470327250341
475.0 84.76321051273494
487.0 83.50606305689574
500.0 81.97916959391206
515.0 80.49387196243987
530.0 79.26369354868714
545.0 79.16771452295667
560.0 79.77532943592384
580.0 80.79361070519259
600.0 81.75610532515456
615.0 82.65109895042968
630.0 82.40576228021408
650.0 82.05203812894821
670.0 81.59942684582381
690.0 81.5453000096347
710.0 81.50195128274413
730.0 81.90198775251494
750.0 81.88621675548976
775.0 81.37587068142393
800.0 80.54983666869666
825.0 80.2260861085718
850.0 80.02135531517224
875.0 80.03727868341878
900.0 79.69193557248069
925.0 79.41920901422765
950.0 79.14844415494021
975.0 78.81982955140282
1000.0 79.02828522665345
1030.0 79.53010141361806
1060.0 79.32303308863048
1090.0 78.5394272366012
1120.0 78.45526973700709
1150.0 78.98056113439816
1180.0 78.64539092658474
1220.0 77.65060616407328
1250.0 76.63117521511727
1280.0 76.56555316402539
1320.0 76.53226934177745
1360.0 76.34340956286724
1400.0 75.85715224834534
1450.0 75.92694855980334
1500.0 75.93596101845769
1550.0 74.75086343515015
1600.0 75.24613143637863
1650.0 76.65788312877841
1700.0 76.90605026523983
1750.0 77.20847068400847
1800.0 78.30359343538943
1850.0 78.1784381944562
1900.0 78.83219171709129
1950.0 79.46651992968292
2000.0 79.61069621275462
2060.0 79.53842665788461
2120.0 79.44546950655833
2180.0 79.42099287834048
2240.0 79.21401947670662
2300.0 79.12001088528588
2360.0 78.9795979116514
2400.0 78.33115468113652
2500.0 78.90000975821691
2580.0 79.03308180504709
2650.0 80.05946907809246
2720.0 80.84479094539914
2800.0 81.07682766150606
2900.0 81.22216882928775
3000.0 80.56211958681878
3070.0 80.29731896863322
3150.0 79.82415761412031
3250.0 79.09093982424119
3350.0 79.45837015704953
3450.0 79.75874386404361
3550.0 79.54849101106242
3650.0 80.13459947754723
3750.0 81.01077333774957
3870.0 82.08084899878583
4000.0 82.08502079956867
4120.0 81.31875433301032
4250.0 80.61904354647531
4370.0 79.64578934591876
4500.0 79.0599213157409
4620.0 78.77869438672793
4750.0 78.80375830480827
4870.0 78.42756405954515
5000.0 78.6213444160834
5150.0 78.79227865361221
5300.0 78.27306532119492
5450.0 78.63572363892804
5600.0 79.68471514321028
5800.0 80.09995663817718
6000.0 80.21007849235032
6150.0 80.81007673037124
6300.0 80.53129567391967
6500.0 80.39164113300171
6700.0 80.95698593598067
6900.0 81.09384222499642
7100.0 81.43034876702974
7300.0 81.69697828948122
7500.0 81.94217677773686
7750.0 82.22522563857599
8000.0 80.67278856249175
8250.0 79.47443626834206
8500.0 79.00914407206832
8750.0 78.83324978329381
9000.0 77.15385797028422
9250.0 76.74815663863822
9500.0 78.47456537279639
9750.0 81.54918169109264
10000.0 81.29426400268073
10300.0 80.44958883796747
10600.0 80.7770115047288
10900.0 81.20192636659928
11200.0 79.75317400298295
11500.0 78.80098107328335
11800.0 76.15939404698388
12200.0 85.71934288104762
12500.0 89.43900559117584
12800.0 94.62248165361144
13200.0 87.89156868007436
13600.0 84.26804831825481
14000.0 80.05039442113397
14500.0 81.65310010320812
15000.0 79.08413104777344
15500.0 70.54889235238498
16000.0 68.6375124354974
16500.0 71.77697384939086
17000.0 72.7436367918694
17500.0 69.77976992861663
18000.0 76.31318811069396
18500.0 77.89319808904165
19000.0 75.81346093789229
19500.0 67.83022596111776
