Freq "Rear Wall Bounce"
20.5078 45.79810337445198
21.9727 53.17436616422643
23.4375 57.64319830550295
24.9023 61.59077298160659
26.3672 65.11391996846882
27.832 68.23578305556899
29.2969 71.12167329473827
30.7617 73.54794934002099
32.2266 75.61695057600465
33.6914 77.23154293047163
35.1563 78.40725494467193
36.6211 79.16079306613041
38.0859 79.91673498361676
39.5508 80.32412083619603
41.0156 80.68512796430856
42.4805 81.08207611973785
43.9453 81.44826394663613
45.4102 81.73417774694421
46.875 82.0229587855157
48.3398 82.39745052694391
51.2695 83.10974090186807
52.7344 83.525453153135
54.1992 83.83620091831534
55.6641 84.13240490976462
58.5938 84.80171380635426
60.0586 85.12595318916912
62.9883 85.79915700431009
64.4531 86.11758739357121
67.3828 86.65049259421443
68.8477 86.8675085274544
71.7773 87.45454693158851
74.707 88.00981619941544
77.6367 88.35522473480627
79.1016 88.45749713884155
82.0313 88.73563816436908
84.9609 89.00751532190108
87.8906 88.93515054317973
90.8203 88.93159882398757
95.2148 88.91841266562872
98.1445 88.73631984006705
101.074 88.57137769706661
105.469 88.3330666944395
108.398 88.22996741887953
112.793 88.18236899233509
117.188 88.15319781777006
120.117 88.12844088508207
124.512 88.0024786111583
128.906 87.83582003609288
133.301 87.68675694707785
139.16 87.47143035801076
143.555 87.23940193520797
147.949 86.94833178746683
153.809 86.54504783444486
159.668 86.59705113944747
165.527 86.78683616017001
171.387 86.79011119473522
177.246 86.51713029592882
183.105 86.11045880093025
188.965 85.69952780054497
196.289 85.77921099481377
203.613 85.48685954752087
210.938 85.34661863460303
218.262 85.11592053839723
225.586 85.28070529531462
232.91 84.9917064944926
241.699 84.72905311855104
250.488 84.14536582927971
259.277 83.94457881520034
268.066 84.2379099434386
276.855 83.12375002010141
287.109 83.55041903612975
297.363 83.77911562745884
307.617 83.78110919554038
319.336 83.70808247670593
329.59 82.93095163686849
341.309 83.02646913921288
353.027 82.86717322557593
366.211 82.02651815558472
379.395 81.64974597785476
392.578 82.12267145139745
405.762 82.44227916069111
420.41 82.06801602231465
435.059 81.61460181414112
451.172 81.92091736254447
465.82 80.00274909915419
483.398 80.24409037398364
499.512 79.99857396137722
517.09 80.38351652025652
536.133 80.51107128991177
555.176 80.20696912057994
574.219 79.26430767932571
594.727 78.99523627846916
615.234 78.59461876039198
637.207 77.67156388501843
659.18 75.69153449355215
682.617 77.32216383013898
707.52 78.23902669884659
732.422 77.51790680332246
757.324 78.25271751601505
785.156 78.1631338244262
811.523 77.16389635136929
840.82 76.44726182135241
870.117 75.65334559503019
900.879 76.8302670208016
933.105 76.09325489467915
965.332 76.10663788157481
1000.49 76.24009455372132
1035.64 77.11903466159292
1072.27 77.21711541114708
1108.89 77.53405430707004
1148.44 77.14821539922238
1189.45 76.5416740687192
1230.47 75.78868323063213
1274.41 75.95786120378156
1319.82 76.02297963862651
1366.7 76.31922415876451
1413.57 76.49087731933433
1463.38 76.05361344221284
1516.11 76.3516917406945
1568.85 76.74653584355958
1624.51 76.21732806998075
1681.64 75.6653400113035
1741.7 76.06789640075054
1803.22 76.64409450356771
1866.21 76.54570635603747
1932.13 76.4792218764826
1999.51 76.65633746174987
2069.82 75.09650341127676
2143.07 74.81958857472428
2219.24 74.12927199400335
2296.88 73.56463648209895
2378.91 73.24027057967
2462.4 73.5646592917777
2548.83 72.77134177656603
2639.65 72.1219946972171
2731.93 72.06256249457621
2828.61 71.2356082746127
2928.22 71.3695538219163
3030.76 71.18906625483424
3137.7 71.02179871558887
3249.02 70.64887561204358
3363.28 69.84174758938931
3481.93 70.3343508742607
3604.98 72.06300638096565
3732.42 73.30469387750824
3864.26 73.63496807285333
4000.49 73.14160527299406
4141.11 72.26803227672414
4287.6 71.86069054751734
4438.48 72.09554213726565
4595.21 71.5708294272502
4756.35 71.51552450124692
4924.8 71.40163438876127
5097.66 71.3846828353354
5277.83 71.49749034138371
5463.87 71.41226253991603
5657.23 70.25750684931381
5856.45 69.96924061663746
6062.99 70.55739858676979
6276.86 69.95078483498327
6498.05 69.74940939428262
6726.56 69.93048223036247
6963.87 68.26985315925803
7209.96 68.68401659822025
7464.84 68.5202730063547
7727.05 67.25297002513476
7999.51 66.87629531195846
8282.23 66.01239946435601
8573.73 66.42835474557907
8876.95 66.60619753010738
9188.96 65.5188213833772
9514.16 65.60892063384759
9849.61 65.98716061338581
10196.8 65.70753774268027
10555.7 63.67978820980383
10927.7 63.04900765562405
11313.0 62.7207058267322
11712.9 63.31635221503268
12126.0 64.09722258462918
12553.7 64.89139787619155
12996.1 64.20697132169812
13454.6 63.66483306652296
13929.2 64.01003915647229
14419.9 63.30091261928939
14928.2 62.89595573819051
15455.6 62.53196401939411
16000.5 61.2465728006506
16564.5 59.89632573992819
17148.9 58.51201835355897
17752.4 57.296759768893224
18379.4 56.172863038683914
19026.9 54.302015240113604
19697.8 51.98568552760278
19999.5 50.82444076979695
