Freq "Floor Bounce"
22.4 16.815671300116833
23.0 19.23370859671755
23.6 21.606167165334682
24.0 23.862271905993197
25.0 26.01117002597232
25.8 28.0987463754729
26.5 30.030120659748093
27.2 31.889828566734707
28.0 33.61227178315619
29.0 35.34511556931756
30.0 37.097421986662994
30.7 38.92952165428781
31.5 40.729911411557595
32.5 42.55334575272602
33.5 44.35334575272603
34.5 46.1888904905328
35.5 47.98889049053281
36.5 49.805177452330184
37.5 51.56668704826356
38.7 53.26668704826358
40.0 55.0051774523302
41.2 56.6656476765358
42.5 58.35159316859871
43.7 60.04391589069239
45.0 61.61753803239935
46.2 63.26878033996789
47.5 64.84898359150841
48.7 66.33752777300028
50.0 67.79471929119205
51.5 69.25380974359446
53.0 70.65380974359446
54.5 71.94680983520814
56.0 73.24136150423587
58.0 74.37314211136083
60.0 75.40542400732662
61.5 76.33746771551314
63.0 77.07001488257475
65.0 77.73746771551313
67.0 78.23513059177982
69.0 78.70231994589776
71.0 79.03513059177982
73.0 79.26769521305295
75.0 79.46769521305295
77.5 79.66769521305294
80.0 79.83358982687999
82.5 79.96769521305295
85.0 80.10076749445562
87.5 80.26769521305295
90.0 80.36769521305294
92.5 80.50076749445562
95.0 80.60076749445561
97.5 80.63513059177983
100.0 80.73513059177982
103.0 80.76845083805433
106.0 80.76845083805433
109.0 80.83513059177983
112.0 80.83513059177983
115.0 80.83513059177983
118.0 80.80306957104251
122.0 80.80306957104251
125.0 80.80306957104251
128.0 80.83513059177983
132.0 80.86845083805433
136.0 80.86845083805433
140.0 80.86845083805433
145.0 80.80306957104251
150.0 80.73663575667186
155.0 80.67150800786938
160.0 80.60306957104251
165.0 80.53821129888743
170.0 80.47150800786937
175.0 80.47150800786937
180.0 80.40690501035459
185.0 80.40690501035459
190.0 80.40690501035459
195.0 80.40690501035459
200.0 80.40690501035459
206.0 80.40690501035459
212.0 80.37150800786937
218.0 80.34044167945491
224.0 80.3069050103546
230.0 80.27150800786939
236.0 80.20690501035459
240.0 80.20690501035459
250.0 80.1760917544922
258.0 80.1760917544922
265.0 80.1760917544922
272.0 80.07609175449221
280.0 80.0457671943847
290.0 79.98219967332304
300.0 79.88219967332304
307.0 79.88219967332304
315.0 79.75260953202218
325.0 79.75260953202218
335.0 79.68982856673472
345.0 79.56096514237183
355.0 79.46096514237182
365.0 79.37082970284298
375.0 79.27082970284299
387.0 79.18219812790055
400.0 79.08219812790055
412.0 78.95521969308379
425.0 78.8950645803583
437.0 78.76878033996792
450.0 78.6094224842602
462.0 78.58382334167595
475.0 78.48382334167594
487.0 78.42526453928849
500.0 78.34258273663015
515.0 78.24258273663015
530.0 78.11832544184972
545.0 78.0944886893229
560.0 78.18161208533421
580.0 78.3377673428554
600.0 78.41832544184972
615.0 78.44258273663014
630.0 78.40034112939829
650.0 78.32526453928848
670.0 78.17641629732151
690.0 78.06194867563767
710.0 78.14898359150843
730.0 78.32758719283594
750.0 78.68219967332304
775.0 78.93663575667186
800.0 79.10076749445561
825.0 79.10076749445561
850.0 78.93513059177982
875.0 78.57449351030438
900.0 78.0210416629875
925.0 77.46283617001536
950.0 77.06226919657723
975.0 76.89220047151574
1000.0 77.01638770313008
1030.0 77.21395652088273
1060.0 77.55177437534739
1090.0 77.90261155895364
1120.0 78.25016923070221
1150.0 78.42022160616295
1180.0 78.47182978310015
1220.0 78.42179599023939
1250.0 78.16194729184086
1280.0 77.68573781157954
1320.0 77.00497668676807
1360.0 76.40962074754836
1400.0 75.98382160833151
1450.0 75.92285902893767
1500.0 75.99723682439924
1550.0 75.95999961744991
1600.0 75.57245249207645
1650.0 75.01798740949017
1700.0 74.63143825467694
1750.0 74.71969876875258
1800.0 75.10299508895696
1850.0 75.471103517968
1900.0 75.58881761960127
1950.0 75.5400040429633
2000.0 75.26885082383814
2060.0 74.99955698518822
2120.0 74.73601544228642
2180.0 74.66673210761147
2240.0 74.76688340325046
2300.0 75.0449257205697
2360.0 75.25078859213113
2400.0 75.28375354619891
2500.0 75.15234182425075
2580.0 75.01065864377773
2650.0 75.02154865751024
2720.0 75.06493035341094
2800.0 75.30851320750932
2900.0 75.45519220018268
3000.0 75.70677539847121
3070.0 75.98362512126278
3150.0 76.19587874590275
3250.0 76.33728906550861
3350.0 76.31568621032726
3450.0 76.32247649965568
3550.0 76.38401608284236
3650.0 76.56062045150713
3750.0 76.77436938191823
3870.0 76.5952170720008
4000.0 75.963480322381
4120.0 75.11664590330463
4250.0 74.27277674488687
4370.0 73.56226370149554
4500.0 73.08107327382879
4620.0 72.61065864377773
4750.0 72.10780688674015
4870.0 71.64570374002571
5000.0 71.4424510581996
5150.0 71.77211025799336
5300.0 72.3485058811867
5450.0 72.81208790807138
5600.0 72.87423383499107
5800.0 72.86955051755908
6000.0 72.8367960878151
6150.0 72.87916014214866
6300.0 73.1301246186698
6500.0 73.38512284029163
6700.0 73.40348581491061
6900.0 73.0380832135172
7100.0 72.22235821714526
7300.0 71.19360996840494
7500.0 70.4681068577912
7750.0 70.28509820479185
8000.0 70.75671344964049
8250.0 71.21657454846323
8500.0 71.653445265893
8750.0 71.6626855627428
9000.0 71.55234182425075
9250.0 71.63952019133504
9500.0 71.84849497663978
9750.0 71.62354309527642
10000.0 70.81904699358664
10300.0 70.50833704711782
10600.0 70.85840416724977
10900.0 71.17953643779558
11200.0 71.27334521843886
11500.0 71.54339850407558
11800.0 71.76387511765532
12200.0 71.50015663892763
12500.0 70.57821671207985
12800.0 69.64812097851899
13200.0 69.11274735416664
13600.0 68.70393928472863
14000.0 68.29707065012055
14500.0 67.52423631178108
15000.0 66.636633349132
15500.0 65.85341441594119
16000.0 65.26808199568424
16500.0 64.68188428945356
17000.0 63.843823080207045
17500.0 62.82633263903951
18000.0 61.86087273041048
18500.0 61.053943357031145
19000.0 60.13567382342711
19500.0 58.776550516646935
