Freq,On Axis,Listening Window,Sound Power,Early Reflections,Early Reflections DI,Sound Power DI,DI offset
22.4,27.937974683544297,29.953835088891424,29.5975933417659,28.693351705952296,41.26048338293913,40.35624174712552,40
23.0,28.937974683544326,30.909498392373337,30.538899787062917,29.61475937753241,41.29473901484093,40.37059860531042,40
23.6,29.937974683544326,31.845312591928007,31.384991738021853,30.427322086834124,41.41799050509388,40.460320853906154,40
24.0,30.83797468354433,32.60710243761807,32.1110498155507,31.13784434847284,41.46925808914523,40.49605262206737,40
25.0,31.637974683544343,33.30091502710985,32.80520263352179,31.815946255156234,41.48496877195362,40.495712393588065,40
25.8,33.63797468354434,34.690730597438176,34.326724777523765,33.55379049428629,41.136940103151886,40.36400581991441,40
26.5,35.73797468354434,36.24504945518785,36.025933890722456,35.4744725642297,40.770576890958154,40.2191155644654,40
27.2,37.437974683544326,37.623976335472406,37.5244448247104,37.12050727320167,40.50346906227074,40.099531510762006,40
28.0,38.937974683544326,38.90113135194812,38.86912403148642,38.564177314306505,40.33695403764162,40.0320073204617,40
29.0,40.33797468354433,40.0258013088841,40.072525106254716,39.85261870077423,40.17318260810987,39.95327620262938,40
30.0,41.53797468354432,41.09938553429524,41.172478182762404,41.026144650135876,40.07324088415936,39.92690735153283,40
30.7,43.53797468354432,43.0616440334324,43.13599624076491,43.05604786108424,40.00559617234816,39.92564779266749,40
31.5,46.33797468354433,45.78847880870475,45.80501046546135,45.814526101191575,39.97395270751318,39.9834683432434,40
32.5,48.437974683544326,47.88799160349507,47.874375565685426,47.93375369249779,39.95423791099728,40.01361603780964,40
33.5,50.23797468354434,49.64727096910303,49.61629652442866,49.71734580276646,39.929925166336574,40.03097444467437,40
34.5,51.73797468354434,51.135712357201754,51.09461799970953,51.226560506349415,39.90915185085234,40.04109435749223,40
35.5,53.437974683544326,52.82145938937208,52.720152063029246,52.88595780449262,39.93550158487946,40.101307326342834,40
36.5,55.937974683544326,55.33481822359906,55.15225217662868,55.361938538830685,39.97287968476837,40.18256604697038,40
37.5,58.03797468354432,57.474225501790386,57.19745523275398,57.44601339850101,40.02821210328938,40.276770269036405,40
38.7,59.73797468354434,59.19997714532414,58.88604813715918,59.151995564970946,40.047981580353195,40.31392900816496,40
40.0,61.23797468354434,60.66535641638694,60.319553277597294,60.60491507631639,40.060441340070554,40.34580313878965,40
41.2,63.23797468354434,62.679539057810175,62.29643139938108,62.59482451192031,40.08471454588987,40.3831076584291,40
42.5,65.53797468354432,65.03708161242854,64.55424958767782,64.88365782744333,40.15342378498521,40.48283202475072,40
43.7,67.33797468354433,66.88657339418293,66.38415612365169,66.71250142941236,40.174071964770576,40.50241727053124,40
45.0,68.93797468354433,68.47597028901005,67.91928528285258,68.2690038420407,40.206966446969346,40.556685006157466,40
46.2,70.43797468354433,70.01634277512764,69.43466339878184,69.78657404570492,40.229768729422716,40.581679376345804,40
47.5,71.93797468354433,71.52356550496354,70.92440122924613,71.2808560867312,40.24270941823234,40.59916427571741,40
48.7,73.23797468354434,72.87660227700555,72.23819774625062,72.60116977335086,40.275432503654685,40.638404530754926,40
50.0,74.43797468354433,74.08596641596327,73.42260040074521,73.78447187315453,40.30149454280874,40.66336601521806,40
51.5,75.53797468354432,75.21739212325693,74.51406567121813,74.89758302397401,40.31980909928292,40.703326452038795,40
53.0,76.53797468354435,76.22681274974255,75.50940809245193,75.90407253490827,40.32274021483428,40.717404657290615,40
54.5,77.43797468354433,77.181718753934,76.4579507029442,76.86169749472754,40.32002125920647,40.723768050989804,40
56.0,78.33797468354433,78.12488102739397,77.38118658554242,77.79738264732308,40.32749838007089,40.743694441851545,40
58.0,79.23797468354434,79.07901263437216,78.32119932140584,78.75857776074267,40.320434873629495,40.75781331296632,40
60.0,80.13797468354434,79.95615924745094,79.175964832551,79.63134160226647,40.32481764518447,40.78019441489994,40
61.5,80.83797468354433,80.66733790303186,79.85692889629105,80.3344120989169,40.332925804114964,40.81040900674081,40
63.0,81.23797468354434,81.13345316476337,80.32309838620955,80.81027972386593,40.323173440897435,40.810354778553815,40
65.0,81.73797468354434,81.59877362587466,80.79435878080243,81.27565780287979,40.323115822994865,40.80441484507223,40
67.0,82.13797468354433,82.02141029116969,81.17130758715078,81.68109281848994,40.34031747267974,40.85010270401891,40
69.0,82.43797468354433,82.37577667686122,81.50393643360886,82.0274239567087,40.34835272015252,40.871840243252365,40
71.0,82.83797468354433,82.7196972072961,81.82622583910936,82.35991030804061,40.35978689925548,40.89347136818674,40
73.0,83.03797468354432,82.9636590670348,82.05204809735717,82.58840561141514,40.37525345561966,40.911610969677625,40
75.0,83.23797468354434,83.1967991832156,82.27329278543276,82.80797631163216,40.38882287158344,40.923506397782845,40
77.5,83.43797468354433,83.37383770376785,82.43833303857551,82.98102198569575,40.3928157180721,40.93550466519234,40
80.0,83.53797468354433,83.51820653686954,82.59470423251847,83.12939111526887,40.38881542160067,40.923502304351075,40
82.5,83.73797468354434,83.68471789827277,82.74252451450809,83.27518430292744,40.40953359534532,40.942193383764675,40
85.0,83.93797468354433,83.87283387382027,82.90988114391317,83.44658292399942,40.426250949820854,40.9629527299071,40
87.5,84.03797468354435,83.9837165803196,83.02776582179675,83.54879158017175,40.43492500014784,40.955950758522846,40
90.0,84.13797468354431,84.12825906441209,83.15553165539225,83.68664370726685,40.44161535714524,40.97272740901984,40
92.5,84.23797468354434,84.22825906441209,83.23860259108754,83.7689326291887,40.45932643522339,40.989656473324544,40
95.0,84.33797468354433,84.27233200487993,83.2401368359172,83.78653264430018,40.48579936057975,41.03219516896273,40
97.5,84.33797468354433,84.29432528480044,83.26299880009913,83.81130378706597,40.48302149773447,41.03132648470131,40
100.0,84.43797468354433,84.32851548394707,83.26982404096609,83.82227313960897,40.506242344338105,41.05869144298099,40
103.0,84.43797468354433,84.36141490456868,83.27769099006599,83.84206978995914,40.519345114609536,41.083723914502684,40
106.0,84.53797468354433,84.41697324691883,83.28797011515866,83.87888784600193,40.5380854009169,41.12900313176017,40
109.0,84.63797468354433,84.50616206122925,83.29348518476837,83.9141500923919,40.59201196883734,41.212676876460876,40
112.0,84.63797468354433,84.56192382852478,83.26607015654997,83.92593996924961,40.63598385927517,41.29585367197481,40
115.0,84.73797468354434,84.6066716348387,83.21907731311711,83.91562283141411,40.69104880342459,41.38759432172159,40
118.0,84.73797468354434,84.59533552430908,83.12019582190999,83.87043555304385,40.72489997126523,41.47513970239909,40
122.0,84.73797468354434,84.56343313962702,83.01052264677821,83.7930519099855,40.77038122964153,41.55291049284881,40
125.0,84.73797468354434,84.5522444157774,82.91341601757591,83.72777535502989,40.824469060747504,41.63882839820148,40
128.0,84.63797468354433,84.48650729421028,82.79129732625947,83.64884763630602,40.83765965790427,41.69520996795082,40
132.0,84.63797468354433,84.43152227672115,82.63432287092786,83.53135976989702,40.90016250682413,41.79719940579329,40
136.0,84.53797468354433,84.35375789584994,82.47146202555629,83.42085375766656,40.932904138183375,41.882295870293646,40
140.0,84.53797468354433,84.28703110168682,82.31876446043569,83.30616952703002,40.9808615746568,41.968266641251134,40
145.0,84.43797468354433,84.19838888110944,82.14412169840631,83.17617881571255,41.02221006539689,42.05426718270313,40
150.0,84.33797468354433,84.13307758549449,81.97865609539035,83.05559607103856,41.077481514455926,42.15442149010414,40
155.0,84.23797468354434,84.0330775854945,81.81839973913583,82.94444417184818,41.08863341364632,42.21467784635867,40
160.0,84.13797468354431,83.9330775854945,81.63782779813172,82.7957239242653,41.1373536612292,42.29524978736278,40
165.0,84.03797468354435,83.82280285522536,81.45751545617561,82.66527761894386,41.1575252362815,42.36528739904975,40
170.0,83.93797468354433,83.74511836535508,81.30146430828508,82.55010981142223,41.19500855393285,42.443654057070006,40
175.0,83.93797468354433,83.71201777425662,81.17265510311125,82.48416901364747,41.22784876060915,42.53936267114537,40
180.0,83.93797468354433,83.70192833221267,81.08041171659809,82.43302066421263,41.26890766800004,42.62151661561458,40
185.0,83.93797468354433,83.7241170026176,81.02599109804841,82.42307401747179,41.30104298514581,42.698125904569196,40
190.0,84.03797468354435,83.79133820642906,80.97946871435835,82.42519689399009,41.36614131243897,42.81186949207071,40
195.0,84.03797468354435,83.80192833221268,80.89685794944383,82.39946434250872,41.40246398970396,42.905070382768855,40
200.0,84.13797468354431,83.85809810939658,80.88042204222305,82.43692190325046,41.421176206146114,42.97767606717353,40
206.0,84.23797468354434,83.99133820642906,80.91929426484151,82.51719145715427,41.474146749274794,43.07204394158755,40
212.0,84.33797468354433,84.06775144501924,80.9336248855979,82.55868012156039,41.509071323458855,43.13412655942135,40
218.0,84.33797468354433,84.10088396528143,80.89847773670313,82.57719967069255,41.523684294588875,43.2024062285783,40
224.0,84.43797468354433,84.1892679592918,80.89659968019375,82.60746203307417,41.581805926217626,43.29266827909805,40
230.0,84.53797468354433,84.27762080081251,80.91321085085045,82.66178282792647,41.61583797288604,43.36440994996207,40
236.0,84.53797468354433,84.36594232230101,80.90473586651767,82.69121723636385,41.674725085937155,43.46120645578334,40
240.0,84.63797468354433,84.39884766358138,80.88998205136872,82.6950361035876,41.70381155999378,43.50886561221266,40
250.0,84.73797468354434,84.44477564090286,80.857433160654,82.70176260664626,41.743013034256606,43.587342480248864,40
258.0,84.73797468354434,84.43379479200051,80.77014701420836,82.64970038787136,41.78409440412915,43.66364777779215,40
265.0,84.63797468354433,84.37710780693439,80.62445043483574,82.54522184306697,41.83188596386742,43.75265737209865,40
272.0,84.63797468354433,84.33452858180071,80.46470027584901,82.43939023064834,41.89513835115237,43.8698283059517,40
280.0,84.53797468354433,84.2345285818007,80.26861340128245,82.28759308613922,41.94693549566148,43.96591518051825,40
290.0,84.43797468354433,84.14576298104814,80.097105561348,82.14521905466152,42.00054392638661,44.048657419700135,40
300.0,84.43797468354433,84.08087288015105,79.9196691705782,82.03702969967044,42.04384318048061,44.161203709572845,40
307.0,84.33797468354433,84.01466015343682,79.73164224787863,81.91404370054431,42.10061645289251,44.2830179055582,40
315.0,84.33797468354433,83.94949308614669,79.56333113971712,81.79067317260746,42.15881991353923,44.38616194642957,40
325.0,84.33797468354433,83.91769730594673,79.42069611894644,81.7112384056974,42.20645890024933,44.49700118700029,40
335.0,84.23797468354434,83.88456679024031,79.28511669215592,81.6377910084381,42.246775781802214,44.59945009808439,40
345.0,84.23797468354434,83.88456679024031,79.17421312433785,81.5914556870203,42.29311110322001,44.71035366590246,40
355.0,84.23797468354434,83.86537453943215,79.06107837750952,81.51960863360213,42.34576590583002,44.804296161922636,40
365.0,84.23797468354434,83.86537453943215,78.99191044729672,81.50728003976661,42.35809449966554,44.873464092135436,40
375.0,84.33797468354433,83.88952235921056,78.90138190576555,81.47948632705355,42.41003603215701,44.98814045344501,40
387.0,84.33797468354433,83.89031667992323,78.81190440639732,81.45919270288222,42.43112397704101,45.07841227352591,40
400.0,84.33797468354433,83.90220002154611,78.7324322589245,81.43786533028087,42.464334691265236,45.1697677626216,40
412.0,84.43797468354433,83.93744940258746,78.64831746766103,81.4244300307811,42.513019371806365,45.28913193492643,40
425.0,84.43797468354433,83.98211894355494,78.58380735739075,81.43158212788227,42.55053681567267,45.39831158616418,40
437.0,84.43797468354433,83.97097831817152,78.47293190107652,81.399378186641,42.571600131530516,45.498046417095,40
450.0,84.43797468354433,83.96147354245576,78.33017755551228,81.3275787263886,42.63389481606717,45.631295986943485,40
462.0,84.43797468354433,83.95265669297825,78.19424164381297,81.26523946077687,42.68741723220138,45.75841504916528,40
475.0,84.43797468354433,83.91154594507381,78.03796613918396,81.18648534794971,42.7250605971241,45.87357980588985,40
487.0,84.43797468354433,83.86788467293655,77.85425347384802,81.09357800796184,42.774306664974716,46.013631199088536,40
500.0,84.33797468354433,83.8023442049391,77.6655226099228,80.97445761330627,42.82788659163283,46.1368215950163,40
515.0,84.23797468354434,83.69353837387132,77.44386778837513,80.81248145796926,42.881056915902064,46.24967058549619,40
530.0,84.23797468354434,83.61894632785479,77.2364398008298,80.67310755464186,42.94583877321293,46.38250652702499,40
545.0,84.13797468354431,83.55633281470287,77.05507385188844,80.56275330258683,42.99357951211604,46.50125896281443,40
560.0,84.13797468354431,83.52459799330029,76.92077270053217,80.46888819032529,43.055709802975,46.60382529276812,40
580.0,84.13797468354431,83.52459799330029,76.83357668169104,80.42577027934968,43.09882771395061,46.69102131160925,40
600.0,84.13797468354431,83.5160368307815,76.77039710983526,80.38784842552201,43.12818840525949,46.745639720946244,40
615.0,84.13797468354431,83.49551502383561,76.6913018821663,80.3256049776201,43.169910046215506,46.80421314166931,40
630.0,84.23797468354434,83.52063651158724,76.6534242950845,80.31854286811742,43.20209364346982,46.867212216502736,40
650.0,84.13797468354431,83.42592642178678,76.51594405745581,80.19341201548669,43.2325144063001,46.90998236433097,40
670.0,84.03797468354435,83.32592642178679,76.38040443486807,80.08348645312554,43.242439968661245,46.94552198691872,40
690.0,83.93797468354433,83.14094085580147,76.17979892841831,79.90327998762308,43.237660868178395,46.96114192738317,40
710.0,83.73797468354434,83.00297767436258,75.99927015111015,79.75916492202386,43.24381275233873,47.00370752325243,40
730.0,83.63797468354433,82.82863858670771,75.79335041412416,79.59364995913776,43.23498862756995,47.03528817258355,40
750.0,83.53797468354433,82.74125888229004,75.66339796366668,79.50778330242278,43.23347557986726,47.07786091862336,40
775.0,83.53797468354433,82.78117941581161,75.63823813482136,79.5307843289776,43.250395086834004,47.14294128099024,40
800.0,83.53797468354433,82.73801196740455,75.53031327677388,79.46525020649366,43.27276176091088,47.207698690630664,40
825.0,83.43797468354433,82.67598694599087,75.39822715097263,79.36342314253606,43.31256380345481,47.27775979501824,40
850.0,83.43797468354433,82.69423492072723,75.3094321254115,79.32784232624928,43.366392594477944,47.38480279531572,40
875.0,83.33797468354433,82.615135311186,75.12051718283853,79.15755837910211,43.45757693208388,47.49461812834747,40
900.0,83.43797468354433,82.6718957235337,75.08007654666451,79.15781680986021,43.51407891367349,47.59181917686918,40
925.0,83.53797468354433,82.77189572353369,75.07408918389635,79.15336136696598,43.61853435656771,47.69780653963734,40
950.0,83.63797468354433,82.85462248738742,75.06323585042796,79.15289581095291,43.701726676434504,47.79138663695946,40
975.0,83.63797468354433,82.84204102204431,74.92687334838276,79.01079335894724,43.83124766309707,47.91516767366156,40
1000.0,83.53797468354433,82.76291502807794,74.78647218068222,78.85416180445038,43.908753223627556,47.97644284739572,40
1030.0,83.53797468354433,82.74153216622872,74.70417512500569,78.7406192081122,44.00091295811653,48.03735704122303,40
1060.0,83.73797468354434,82.88645817848763,74.80570644535425,78.78883901853978,44.097619159947854,48.08075173313338,40
1090.0,83.93797468354433,83.10809164347698,75.01962800518261,78.93496507399001,44.17312656948697,48.08846363829437,40
1120.0,83.93797468354433,83.10442412317815,75.04026995380035,78.89917649815202,44.20524762502613,48.0641541693778,40
1150.0,83.73797468354434,83.01123038704284,74.98835742504923,78.76658524716201,44.24464513988083,48.02287296199361,40
1180.0,83.63797468354433,82.87561967560919,74.91423295581541,78.62289733479719,44.252722340812,47.96138671979378,40
1220.0,83.53797468354433,82.82676088997727,74.91072025319559,78.5415874844699,44.285173405507365,47.91604063678167,40
1250.0,83.33797468354433,82.68122703362603,74.83576791096792,78.3900638234621,44.29116321016393,47.84545912265811,40
1280.0,83.23797468354434,82.55278864193083,74.7353916587221,78.23566728245818,44.31712135947265,47.81739698320874,40
1320.0,83.03797468354432,82.38110277692721,74.62641593696188,78.04205364807834,44.33904912884887,47.75468683996533,40
1360.0,82.93797468354433,82.30376946684768,74.60968811783965,77.95109595940374,44.35267350744394,47.69408134900803,40
1400.0,83.03797468354432,82.30023391337954,74.6319977578825,77.9387141965012,44.36151971687835,47.66823615549704,40
1450.0,83.13797468354433,82.39478304206594,74.76976971878943,78.04568455960796,44.349098482457975,47.625013323276505,40
1500.0,83.33797468354433,82.51185449963037,74.90993931052111,78.18843067165665,44.32342382797373,47.60191518910926,40
1550.0,83.63797468354433,82.64024426891689,75.06503773600399,78.38750018679006,44.252744082126824,47.5752065329129,40
1600.0,83.83797468354433,82.72289522567641,75.16195706734416,78.53276003172712,44.19013519394929,47.56093815833225,40
1650.0,84.03797468354435,82.848368035254,75.26514401898557,78.73639814865167,44.111969886602324,47.58322401626843,40
1700.0,84.23797468354434,83.03513238543918,75.4046018882645,79.00463476475653,44.03049762068265,47.63053049717469,40
1750.0,84.53797468354433,83.27046877087409,75.57645027197627,79.33278415527138,43.937684615602706,47.69401849889782,40
1800.0,84.83797468354433,83.50963705832316,75.72824077617287,79.62101518425183,43.88862187407133,47.7813962821503,40
1850.0,84.63797468354433,83.3317125305283,75.44070857158235,79.45389261334716,43.87781991718114,47.89100395894596,40
1900.0,84.23797468354434,82.97031895248135,74.98951179692017,79.09592749039484,43.87439146208651,47.98080715556118,40
1950.0,83.83797468354433,82.55779672458003,74.50070405387208,78.6966030782735,43.86119364630653,48.057092670707945,40
2000.0,83.53797468354433,82.25613734617012,74.10514317043008,78.36530303180159,43.89083431436853,48.15099417574004,40
2060.0,83.33797468354433,82.12076103270871,73.84881878015217,78.19858551710152,43.922175515607194,48.27194225255654,40
2120.0,83.33797468354433,82.09359155451891,73.6557602432253,78.10776058797472,43.985830966544185,48.43783131129361,40
2180.0,83.33797468354433,82.03601958524274,73.47174520552616,78.00896697287673,44.027052612366006,48.56427437971658,40
2240.0,83.23797468354434,81.9822182647562,73.2971964761231,77.90026602349124,44.08195224126496,48.685021788633094,40
2300.0,83.43797468354433,82.13501588395805,73.29847925303893,77.95739925973083,44.17761662422721,48.83653663091911,40
2360.0,83.73797468354434,82.42837386375402,73.46198418320553,78.16980714338395,44.25856672037007,48.96638968054849,40
2400.0,83.93797468354433,82.5631164778213,73.4371699967303,78.18119599460343,44.38192048321787,49.12594648109099,40
2500.0,83.73797468354434,82.37917251202627,73.11136415953679,77.87171962499887,44.5074528870274,49.26780835248948,40
2580.0,83.53797468354433,82.13051282365188,72.69872460995468,77.47316141929706,44.65735140435483,49.4317882136972,40
2650.0,83.53797468354433,82.07037273768832,72.48102498911712,77.2534143186808,44.81695841900752,49.5893477485712,40
2720.0,84.03797468354435,82.40360195793333,72.68472536040912,77.46289717015733,44.940704787776,49.718876597524215,40
2800.0,84.43797468354433,82.7800798449635,73.00653742643296,77.75668724267722,45.02339260228628,49.77354241853054,40
2900.0,84.53797468354433,82.66969139210748,72.89686786707378,77.63116496273558,45.0385264293719,49.7728235250337,40
