Freq "Listening Window"
22.4 29.615860405347092
23.0 30.571523708829005
23.6 31.507337908383676
24.0 32.269127754073736
25.0 32.96294034356552
25.8 34.352755913893844
26.5 35.90707477164352
27.2 37.286001651928075
28.0 38.56315666840379
29.0 39.68782662533977
30.0 40.761410850750906
30.7 42.72366934988807
31.5 45.45050412516042
32.5 47.550016919950735
33.5 49.3092962855587
34.5 50.79773767365742
35.5 52.48348470582775
36.5 54.996843540054726
37.5 57.136250818246054
38.7 58.86200246177981
40.0 60.32738173284261
41.2 62.34156437426584
42.5 64.6991069288842
43.7 66.5485987106386
45.0 68.13799560546572
46.2 69.67836809158331
47.5 71.18559082141921
48.7 72.53862759346121
50.0 73.74799173241894
51.5 74.8794174397126
53.0 75.88883806619822
54.5 76.84374407038968
56.0 77.78690634384964
58.0 78.74103795082783
60.0 79.61818456390661
61.5 80.32936321948753
63.0 80.79547848121904
65.0 81.26079894233033
67.0 81.68343560762536
69.0 82.03780199331689
71.0 82.38172252375176
73.0 82.62568438349047
75.0 82.85882449967127
77.5 83.03586302022352
80.0 83.18023185332521
82.5 83.34674321472843
85.0 83.53485919027594
87.5 83.64574189677526
90.0 83.79028438086776
92.5 83.89028438086775
95.0 83.9343573213356
97.5 83.9563506012561
100.0 83.99054080040274
103.0 84.02344022102434
106.0 84.0789985633745
109.0 84.16818737768492
112.0 84.22394914498045
115.0 84.26869695129437
118.0 84.25736084076475
122.0 84.22545845608269
125.0 84.21426973223306
128.0 84.14853261066595
132.0 84.09354759317682
136.0 84.0157832123056
140.0 83.94905641814249
145.0 83.8604141975651
150.0 83.79510290195016
155.0 83.69510290195016
160.0 83.59510290195017
165.0 83.48482817168103
170.0 83.40714368181075
175.0 83.37404309071229
180.0 83.36395364866834
185.0 83.38614231907327
190.0 83.45336352288473
195.0 83.46395364866835
200.0 83.52012342585225
206.0 83.65336352288473
212.0 83.72977676147491
218.0 83.7629092817371
224.0 83.85129327574747
230.0 83.93964611726818
236.0 84.02796763875668
240.0 84.06087298003705
250.0 84.10680095735853
258.0 84.09582010845618
265.0 84.03913312339006
272.0 83.99655389825638
280.0 83.89655389825637
290.0 83.8077882975038
300.0 83.74289819660672
307.0 83.67668546989249
315.0 83.61151840260236
325.0 83.5797226224024
335.0 83.54659210669598
345.0 83.54659210669598
355.0 83.52739985588782
365.0 83.52739985588782
375.0 83.55154767566623
387.0 83.5523419963789
400.0 83.56422533800178
412.0 83.59947471904313
425.0 83.6441442600106
437.0 83.63300363462719
450.0 83.62349885891143
462.0 83.61468200943392
475.0 83.57357126152948
487.0 83.52990998939222
500.0 83.46436952139477
515.0 83.35556369032699
530.0 83.28097164431045
545.0 83.21835813115854
560.0 83.18662330975596
580.0 83.18662330975596
600.0 83.17806214723717
615.0 83.15754034029128
630.0 83.18266182804291
650.0 83.08795173824245
670.0 82.98795173824246
690.0 82.80296617225714
710.0 82.66500299081825
730.0 82.49066390316338
750.0 82.40328419874571
775.0 82.44320473226728
800.0 82.40003728386021
825.0 82.33801226244654
850.0 82.3562602371829
875.0 82.27716062764166
900.0 82.33392103998936
925.0 82.43392103998936
950.0 82.51664780384309
975.0 82.50406633849998
1000.0 82.42494034453361
1030.0 82.40355748268439
1060.0 82.5484834949433
1090.0 82.77011695993265
1120.0 82.76644943963382
1150.0 82.67325570349851
1180.0 82.53764499206486
1220.0 82.48878620643293
1250.0 82.3432523500817
1280.0 82.2148139583865
1320.0 82.04312809338288
1360.0 81.96579478330335
1400.0 81.96225922983521
1450.0 82.05680835852161
1500.0 82.17387981608604
1550.0 82.30226958537256
1600.0 82.38492054213208
1650.0 82.51039335170967
1700.0 82.69715770189485
1750.0 82.93249408732976
1800.0 83.17166237477883
1850.0 82.99373784698398
1900.0 82.63234426893702
1950.0 82.2198220410357
2000.0 81.91816266262579
2060.0 81.78278634916438
2120.0 81.75561687097458
2180.0 81.69804490169841
2240.0 81.64424358121187
2300.0 81.79704120041372
2360.0 82.09039918020969
2400.0 82.22514179427696
2500.0 82.04119782848194
2580.0 81.79253814010755
2650.0 81.73239805414399
2720.0 82.065627274389
2800.0 82.44210516141916
2900.0 82.33171670856315
3000.0 81.87571800107446
3070.0 81.82981679122555
3150.0 81.98162169699764
3250.0 82.08744678364346
3350.0 81.91262896149257
3450.0 81.32572505629392
3550.0 80.70737259491992
3650.0 80.30418144072993
3750.0 79.72831041936757
3870.0 80.08986781351524
4000.0 80.77624805138
4120.0 80.66603576042185
4250.0 80.617587504984
4370.0 80.78165582379205
4500.0 80.37707181133516
4620.0 79.69380211628462
4750.0 80.13463769403045
4870.0 81.01496966675685
5000.0 81.73458160953123
5150.0 82.12060615716638
5300.0 81.80064244139064
5450.0 81.67678335386425
5600.0 81.89743595347018
5800.0 82.12706226216562
6000.0 82.27897649782982
6150.0 82.23520503420501
6300.0 80.87772299503041
6500.0 77.04997908364254
6700.0 75.5789840776773
6900.0 78.21397316481706
7100.0 80.82250018391557
7300.0 82.66860402094721
7500.0 82.95778945216654
7750.0 82.48955403530871
8000.0 82.05456667869156
8250.0 82.14443865054466
8500.0 82.15764928370943
8750.0 81.81977069535428
9000.0 80.87153328654043
9250.0 81.60193819782492
9500.0 83.21662908865127
9750.0 83.2580789735325
10000.0 82.47989868316104
10300.0 81.91896802639195
10600.0 81.25411316122484
10900.0 80.91397925662167
11200.0 80.94990521575063
11500.0 81.10202758268726
11800.0 80.85693928697081
12200.0 80.55204382166231
12500.0 80.33229182117778
12800.0 80.07721586780002
13200.0 80.49296108157509
13600.0 81.67646109370568
14000.0 81.90798689631058
14500.0 81.24293010060032
15000.0 81.0244074263551
15500.0 81.10525386217985
16000.0 80.20439971778512
16500.0 80.30122225994042
17000.0 79.54222139277627
17500.0 78.28385839138511
18000.0 75.99805977618827
18500.0 73.30390600259362
19000.0 71.98240968907282
19500.0 71.53099160648486
