Freq,Floor Bounce,Ceiling Bounce,Front Wall Bounce,Side Wall Bounce,Rear Wall Bounce,Total Early Reflection
20.5078,47.81393404974837,42.65663355913112,49.461397372958075,46.412096545549545,58.924333018249015,52.973681544275095
21.9727,56.90921420454636,52.894216764644014,57.0055380501703,51.676818487493804,59.98896761351982,56.687505611170806
23.4375,61.194628426394004,55.51762449126612,60.650735704160624,56.33917050106659,62.631427473348666,60.084204581045455
24.9023,65.45880641429373,61.64083778727739,65.07774159819807,62.11047788138761,67.88262402270199,65.04067928586663
26.3672,68.92271509150588,67.47762543210912,68.76819344475463,67.7264013962005,71.9732033321237,69.30479367771768
27.832,74.3186619634476,73.1788763329201,74.16345149345561,73.48868124738324,77.36179406262838,74.79162846402919
29.2969,77.65168118892947,77.22686504713097,77.5230528330904,77.57761412831609,81.24386247217214,78.54894389709663
30.7617,81.70300342566124,81.16379418734438,81.49842639695085,81.60117401029656,84.4882118434913,82.28197221821615
32.2266,84.11169960976041,83.84556123543489,83.9645614312428,84.24279600417532,87.01381405799947,84.82218454473362
33.6914,87.18130359715471,86.77186700710888,86.90329917829767,87.25707263841652,89.63529523750094,87.69295533568797
35.1562,89.25490571006355,88.97386807587912,89.019265871197,89.42576188309532,91.64947319949593,89.79358424743664
36.6211,91.55007723837802,91.18366106786175,91.30097324256893,91.65383640406885,93.50359899517929,91.92876068560001
38.0859,93.03002136984453,92.66728349554337,92.75943749263284,93.1380529122364,94.81486036366708,93.35857746063195
39.5508,94.2328539185223,93.87518135823278,93.96903312413097,94.32674212701403,95.80427947736393,94.50212238682978
41.0156,95.07968284012836,94.693739339746,94.81057396969392,95.13743898356496,96.39876558743809,95.26932815027074
42.4805,95.45869693499567,95.00237775102151,95.16710573306231,95.46798837160527,96.54598368488001,95.56334933191336
43.9453,95.9649302607429,95.46844513712476,95.66619482978201,95.9415404469346,96.85803850865884,96.00680687732775
45.4102,96.1413959796217,95.63862431934024,95.84659977538031,96.10881193835574,96.92468594195866,96.15460302532775
46.875,96.1803860931358,95.70137249618972,95.90355257062288,96.12727884018821,96.78391954397962,96.15490369333243
48.3398,96.24366739025254,95.74260195794211,95.96782575736708,96.1537777571326,96.6758391445716,96.16799911650897
51.2695,96.1235257015358,95.5467503860572,95.82461396273322,95.98160042923233,96.36232578588498,95.97643943026664
52.7344,96.1384129581957,95.52687145420695,95.83269801580767,95.97068688561731,96.26224796531564,95.95362675122887
54.1992,96.10998530061171,95.50091032948906,95.80935456146253,95.93654489586348,96.17166874791171,95.91221912265465
55.6641,96.15012191842487,95.51997915713623,95.85073407972318,95.95248532714344,96.08675707450328,95.91761281595848
58.5938,96.1104944605555,95.46645215151334,95.80640312006784,95.90099136287938,96.00119230944208,95.86260853888322
60.0586,96.11196355288062,95.44586242330904,95.79875939519715,95.88736630317234,95.95741627673108,95.84589115175187
62.9883,96.1769526815961,95.49678546324049,95.86334649606916,95.93501485702707,95.94621922935566,95.88919349745451
64.4531,96.15218194256454,95.4750361000328,95.84357063007039,95.90832315260049,95.89217790307902,95.85966630341964
67.3828,96.14975668739525,95.4183162585122,95.83163840572608,95.8719004851172,95.78104446036143,95.81680200110182
68.8477,96.17956733192945,95.41157144679964,95.85255131799212,95.88097223695222,95.7472968467983,95.82140737287644
71.7773,96.34296520344711,95.55848761960829,96.01446826552231,96.01836972896503,95.84228421878264,95.96285644006554
74.707,96.4003574364052,95.64680191050188,96.0923768346856,96.08031012696743,95.86200231424995,96.02368913692051
77.6367,96.46027643188609,95.68540347092834,96.14787754795492,96.1241638893944,95.8750505809411,96.06654565382108
79.1016,96.4950112411332,95.70160396582692,96.18205856429735,96.13879637933454,95.83307715315492,96.0791071941232
82.0312,96.47858416682166,95.67857873329342,96.16833145057889,96.11718527721126,95.78107150964856,96.0542693775106
84.9609,96.52028532317645,95.72904495953382,96.22586628546847,96.15142803343457,95.78439833214637,96.09214781462487
87.8906,96.50171906170628,95.73643703007689,96.21652541706327,96.14799037288012,95.79406343506253,96.08859970453032
90.8203,96.72175230315288,95.91601481657959,96.44543153354569,96.27473321716947,95.76526419236546,96.23856457568446
95.2148,96.57398586582484,95.66990311864059,96.25007968566356,96.11853472373119,95.66163012722181,96.06901736490856
98.1445,96.62646144971814,95.80343752926086,96.35045682367402,96.18528398357532,95.68649026400637,96.14428331037907
101.074,96.4038627561418,95.50467084114892,96.04542310761421,96.019732818348,95.83747353309236,95.97211608018226
105.469,96.82673199926113,95.85897125208069,96.53746515310824,96.28228080774603,95.69029652862143,96.25944833573247
108.398,97.02550726314715,96.09314929097177,96.76454987769515,96.43264516567002,95.73329274916891,96.43417241129582
112.793,97.07222860657758,96.0914036191676,96.83389942450123,96.45020978335414,95.64569411565213,96.4484371178897
117.188,97.17733044399515,96.18929896922897,96.92832254352435,96.5000251141537,95.48354824029094,96.49541251126918
120.117,97.22393858127212,96.19724566734386,96.96305069735028,96.54135621028797,95.47346593893313,96.52220085779906
124.512,97.06419279029497,96.07366505877967,96.80747335699547,96.46256966954991,95.38039356365563,96.39695120392862
128.906,96.80016449176334,95.81449841142285,96.5177624761778,96.24383857968759,95.61868002598813,96.22082360709656
133.301,97.04720263680261,95.95202558442341,96.74772024852656,96.32977550391733,95.56068737899825,96.3601048781727
139.16,97.00149356963016,95.89316891174526,96.72213716452914,96.26557860232445,95.39778819592729,96.29346573484953
143.555,96.96221426122764,95.77214422741547,96.68942458804462,96.1966893122402,95.35329624475506,96.23410889341373
147.949,96.96711608896881,95.7446036302744,96.7045436510107,96.15205504268978,95.24609035890285,96.20751902361133
153.809,97.0744465727734,95.74150981525119,96.80507248730017,96.14113773501829,95.10747397344197,96.23157029336272
159.668,97.0447867501611,95.86040635359032,96.8366062875562,96.18063596171454,95.13260820414386,96.26468817295184
165.527,97.14612930210083,95.91535181125924,96.93595547912236,96.21203582212938,95.17840395447371,96.33493927279925
171.387,97.36627168813715,96.03946080635363,97.18174912960042,96.29968427957364,94.90165724208327,96.44504191188949
177.246,97.3043520853285,95.96331386343967,97.1162812604897,96.23143341895907,94.44687233155754,96.32543410281582
183.105,97.19785061858956,95.7928383235603,96.97120945793465,96.14862580326272,94.419530464553,96.21304653983954
188.965,97.28592375378027,96.05580926980595,97.15168715230055,96.30771277377039,94.36565070491031,96.35110124184736
196.289,97.3353839298838,96.20628127525924,97.19647671222738,96.37873749396728,94.2639212950781,96.40400021788511
203.613,97.17393400529248,95.84539093780168,97.00228374724584,96.05756213093336,94.03307032949884,96.15703766891525
210.938,97.01474846141201,95.75669024507225,96.90343950200896,96.10380032790901,94.06864055686093,96.09039818364612
218.262,96.85555329454434,95.5180211666384,96.66625743950615,95.85747618613507,94.15441012760849,95.91227228678508
225.586,97.04094645906589,95.42846298733292,96.85343322265483,95.78818893560256,94.22260741734367,95.98366585955088
232.91,97.29425144128506,95.76588046191803,97.21133825106178,96.04652124420299,93.79673659258886,96.1947164931905
241.699,97.16273735636554,95.55969549412947,97.00138232993899,95.99062429365264,93.40998423905451,96.01608763025759
250.488,97.35917403027436,95.34281179491549,97.13274308083756,95.95878181100501,93.42738932453751,96.0591879203429
259.277,97.37774381668447,95.71403267545348,97.27443426245881,96.10813249847776,93.3276241455904,96.18394037104378
268.066,97.11307274872972,95.34079513464317,96.94828924415823,95.74151862139394,93.13112439361535,95.87138495485972
276.855,97.02883303976071,95.29033647399713,96.94655263211227,95.72788718479727,92.79397670349196,95.80214116537526
287.109,96.61823282774239,95.2757136918039,96.77125448863653,95.71151816559392,92.89246384069541,95.65518820765138
297.363,96.90633180036515,95.49104184067548,96.99355385439785,95.75542589568362,92.73885556458129,95.818834659487
307.617,97.25364661794022,95.46527027192796,97.22854455406681,95.99840569808144,92.18911062041674,95.96616896995123
319.336,97.02072970505627,94.98107596661032,96.86699671216225,95.46129541644416,91.83706300761973,95.5842718445108
329.59,96.72692487696533,95.04235261920799,96.82910647478012,95.84820572166356,91.41183848336989,95.55013987107485
341.309,96.57693203200675,94.4811377030759,96.54791658824897,95.32866290181016,91.81871609788384,95.26344588363851
353.027,96.21422625429429,94.28181125467863,96.28145881873179,95.25504000746213,90.92726277029945,94.96980537707589
366.211,95.81253952022674,94.20501172501807,95.86716070844541,94.78659552571445,90.68536811014059,94.62066241603817
379.395,96.31416088074798,94.08563988003498,96.45331395128036,94.979190492771,90.35808956136808,94.91188574829324
392.578,96.32736639786806,94.48983533687696,96.38785777165329,95.05916615490663,91.34754846935739,95.05882026837494
405.762,96.64685941659391,94.12354443549492,96.76508673515791,95.12980873935501,91.15866891167094,95.18956119297071
420.41,96.27580156110815,94.18909937245806,96.72022835336499,95.19505724752518,90.3242530096018,95.03791224850447
435.059,95.8692802645196,94.23121385978833,96.57806378082259,95.37227650165312,90.4101903234207,94.94279335671034
451.172,96.58263568471367,94.26570069078694,96.74049407286147,95.86241743055236,90.82616738924578,95.31750442545773
465.82,96.39918604524341,94.21502056363137,96.64250435129505,95.50258129311533,90.73854840413959,95.14685155986666
483.398,95.59163072386373,93.47747190217046,96.26941205716297,95.19712859149219,90.72510606893763,94.64716522442042
499.512,96.06338209280321,92.77402214213086,96.57130572428555,94.97814683685478,90.06138052760862,94.66426161624811
517.09,96.45080777618664,93.17552032897399,97.21290235966164,95.9670564951974,90.88616558482586,95.29818045676164
536.133,96.05989544226202,93.19639667608295,96.70127498091621,94.7340068305234,90.15509583397314,94.71685078170141
555.176,95.89985570510656,93.2892654163491,96.95967213576824,94.82002538172273,90.04014465129747,94.78039542578306
574.219,97.06231322291823,93.09447287754132,97.04557639856733,95.03804730758434,90.33277715057766,95.17405171382005
594.727,96.71783935208508,93.65733160438096,96.95264011908732,94.66660399787988,90.53417851966975,95.06096643789252
615.234,96.30891051831769,94.17122993109675,97.41033998726661,94.5932016942893,89.21117516951925,95.08109174352286
637.207,96.43407676427631,93.6562212358895,96.98150676754169,94.26839706648107,90.45311818075432,94.91160703860008
659.18,96.61258800027585,94.0427173437143,97.10961316926375,94.16738736218994,88.46194438218097,94.93407957497926
682.617,96.03176725234955,94.16371506457031,96.6648163513847,93.81446200098942,89.03656178428061,94.61383629080129
707.52,96.14902030829064,94.45135454146217,97.11583758346553,93.86002150137222,89.1877918956206,94.8617625089756
732.422,96.23529876328023,94.26710985717077,96.5678798551652,93.48906141520631,88.29028447560864,94.56936769604341
757.324,95.84160548094505,94.26623373192966,97.15928623685055,93.37855985319918,89.1932403124962,94.68812215663452
785.156,96.66442514649223,93.89144595646913,96.87024118778777,93.43188690826021,87.52103546020845,94.69007730897196
811.523,96.26251835682093,93.47890710943636,97.12709551100944,93.62220637194805,88.27554809327994,94.65163324185167
840.82,95.88863627641557,93.46691065379885,96.90993706988894,93.59703550726572,86.46861387644483,94.39136603686049
870.117,96.33232256122885,93.54882910200706,97.66839965889939,94.76785607373704,87.8494208750421,95.05545551653302
900.879,96.95635017581331,93.7421076168226,97.2917733959945,94.62581875992079,86.65926247544095,95.06601647706097
933.105,96.9801084805295,93.52947540538116,97.48673676475383,94.62544027290835,87.8024726485067,95.14629560913268
965.332,96.64135372005238,93.2039142574359,97.25963704068013,94.1988053364756,87.41426646334803,94.83082837242708
1000.49,97.4369535308913,93.68759863716168,97.2614428656036,94.35140171748436,86.06748609317852,95.14034397982269
1035.64,97.26038763639144,93.24388429473198,97.06272316045491,93.74330008236291,85.1328916194372,94.83177087352057
1072.27,96.97720964590579,94.00415753527732,96.61107488208789,92.88159041817799,85.6483476662273,94.59127760847609
1108.89,96.8051935158383,93.54274733624526,96.68369165695954,92.18122415946087,85.74251797650467,94.39027216689938
1148.44,96.23535861297931,94.16744514951296,95.84727373584406,91.78747132507443,85.49822818961533,93.98661088570253
1189.45,96.32101231818199,93.90406462613277,95.750900317236,92.37642824449269,83.79119715445657,93.96911659435025
1230.47,96.29790376554702,94.0648817884467,95.82156500666191,91.726340469006,84.63850010824889,93.94918244447335
1274.41,96.31217860545638,94.24952247533513,96.28142986445948,92.37466509086536,84.55138244458061,94.21560691791544
1319.82,96.69953520032787,94.46475571733731,96.56809254138113,92.32943803285274,85.2475168362888,94.48843702393307
1366.7,96.8236831675653,93.99854792802331,96.58862181544943,92.64367401172518,85.37171677261381,94.49170373996775
1413.57,96.8523805654041,93.92433403447852,96.57818261183968,92.60015713077387,84.53170100848664,94.46056216668349
1463.38,97.23359224607567,93.61235608586985,95.87802884946936,91.43788232828167,83.9152426875245,94.18163713736716
1516.11,97.35360803660296,93.77238539902255,95.13553827726749,91.19719820842631,83.77794352084216,94.02751170575185
1568.85,96.11931289956415,93.29687195421978,94.66548301989195,90.82089912027006,83.07454344162684,93.2499291581959
1624.51,95.68733699019559,91.9113572484213,95.55784369754625,91.24677495982486,83.22201781749013,93.17881138988854
1681.64,95.14834500919322,91.39933661299725,96.16577439991757,91.90709086564893,83.33058459766015,93.24486522021436
1741.7,95.26010595059712,90.35894414080448,96.7272919611767,92.61920396976943,83.53217834789022,93.5039376040793
1803.22,95.27527307076272,89.57025633243423,96.56452681079837,92.59710421956999,83.49380227143855,93.36488945460592
1866.21,94.58987280418785,89.2935066208182,95.91434167189762,92.05718807197633,82.91715353774666,92.75641058454228
1932.13,92.70290003121495,87.89759985375987,95.28151648125109,91.33412256819521,82.7415203095573,91.70334323051095
1999.51,92.60435632226421,87.65210851421183,95.70745657333677,91.71593701481824,82.98479869895067,91.93626808560188
2069.82,91.93112420004918,87.02762921848311,96.16450670569536,92.01895831693298,82.47756716149946,92.02370831488172
2143.07,90.68931125309832,88.39332880868888,96.0804752853878,92.09202754473841,82.44194634457298,91.88231367346623
2219.24,89.53801429984482,87.7443317026982,95.29700978129318,91.57299133738567,81.25975967606975,91.10603959103108
2296.88,89.0374721919021,87.77006614207495,94.51791929437957,90.6882927104172,80.89851514104178,90.43314134172326
2378.91,86.83068312056525,87.47872207711974,94.15864186634026,90.29766953430683,80.6207966776989,89.85270707521968
2462.4,86.90336326254861,87.7333842027132,95.53058736057365,91.25779985848023,80.38986340678427,90.86507050583711
2548.83,87.77972072517322,87.83402165054117,96.07781929215992,91.65969132635274,80.66524065882136,91.36219253717867
2639.65,88.44892480823044,88.5618424382,95.40148678178755,91.00206977141447,80.40294417751996,90.97296959011116
2731.93,87.86599567396588,88.10841697898691,94.29758649063689,90.25369994185215,79.0580296372858,90.07695737663687
2828.61,87.73679049175486,89.19206449745563,95.10697368502792,90.30675213350243,78.77706863124683,90.6549606884707
2928.22,87.5340617028169,89.65124946417899,96.22291680122144,90.75146678128635,79.19250887282227,91.43158001038877
3030.76,87.6568234098384,89.5353339614118,96.45550201351239,90.60948759970009,78.91863972324228,91.54209397006883
3137.7,87.9015843855939,90.04651674059816,96.33127269982364,90.87100371896216,78.88866055854741,91.59790659347384
3249.02,87.28679325717304,90.33444049506569,95.98922416941282,90.69199998283852,78.44346158263716,91.35404398160722
3363.28,87.91095259684222,89.95302997509049,96.19713466209485,90.57646631645815,78.23005126135122,91.44998411453106
3481.93,88.38012155988066,89.73481363576097,96.68214108222163,90.8029291632039,78.24478551245618,91.7940376511858
3604.98,90.06904954020511,89.15637808603678,96.7001885509899,91.46264817519953,78.9297142995253,92.0388271309074
3732.42,90.78700942610416,88.55063592267808,96.96803406692128,92.23690681981924,79.27353965303128,92.3796512530918
3864.26,93.24713095539626,89.5417920352435,96.4712909100712,92.01447540279686,78.95918614678929,92.60941098243916
4000.49,93.73072148840673,89.82145005746827,96.11549970045621,91.03413466686573,77.7925987578703,92.42440643692105
4141.11,93.85559523493433,89.41402425347236,96.26204842684592,91.42720024261489,78.05828123892987,92.54557953178644
4287.6,93.97028126409113,89.65707608968408,95.40335567461835,91.23928602352954,77.75256213871292,92.18993078385458
4438.48,93.95036233939534,90.82298712974269,95.66291462743717,90.98622333928849,77.52451597865732,92.39911663371348
4595.21,93.86425976663301,90.17855118204919,94.49116096189773,90.62486749426074,76.43035406075838,91.75391056765082
4756.35,94.31296777414238,90.51491963159935,94.7257677133933,90.73170988066072,77.65314748665467,92.06069634999116
4924.8,94.1738763658126,90.99795769451906,94.56876330842871,91.20379920749816,76.32324990038482,92.09433902549223
5097.66,93.96983821631292,90.67697947987854,94.14191478035465,90.69580763021806,77.38689471825668,91.75341535818407
5277.83,93.50463905998217,90.98438517047175,94.47360629088348,90.33988304095116,75.59830997973903,91.7111338382774
5463.87,94.74605730388225,90.76582721951175,94.71820960206308,90.73499462712776,76.38458765987447,92.23601024680777
5657.23,94.48427213589949,91.16968641733102,95.1457233935997,89.80438339315772,75.64027432257318,92.24277654828269
5856.45,94.27823769659702,90.4593294856532,94.86524249632699,90.03426804620129,76.13220813129504,91.98891560340839
6062.99,94.32325767206603,90.34313006651678,95.66261102980636,89.78914091571798,76.31719193376303,92.2876671211993
6276.86,93.7507662502101,90.4168515155835,94.97925397021145,89.74499986133127,76.6571698631242,91.82359285308519
6498.05,93.5541695888002,90.43495098800919,95.43105098248137,89.71585781787569,76.48721963227182,91.95656771150786
6726.56,93.66624606809357,90.24404255705336,95.87204716604312,90.31981690222585,76.29510741973168,92.23672565109173
6963.87,93.76557712748694,90.49357960610466,95.50035045150159,89.58384586353243,76.33057275799476,92.0413408671876
7209.96,93.0655370741515,90.32359048615756,95.98668830992193,90.20811731451619,76.4076853482123,92.12968097564729
7464.84,92.86335787490385,90.12438674408348,95.95517115602095,89.70878375150522,76.0921298757146,91.9747438589018
7727.05,93.51990132401936,90.27835741103728,95.517001813041,89.68945950859258,76.24160305050559,91.95917792185101
7999.51,93.32035537582199,90.24427803038297,95.58071793157004,89.82410241931449,75.60690294938424,91.94083123864166
8282.23,93.06279473601775,89.99632925209532,95.5274228872453,89.61074891258248,75.4158370011434,91.78583128940998
8573.73,93.736687071841,90.04151282901367,95.81263279706653,89.70284119752199,75.50082627174638,92.12509464376116
8876.95,93.28310946910766,90.18351845425558,95.47165994599365,89.5239390887872,74.62163591548729,91.83158358764005
9188.96,93.93765212758598,90.13463355316516,95.77179425471142,89.55709587303329,74.78098272696401,92.1579424262397
9514.16,94.30978967236751,90.4420376425122,95.77478633882384,89.50480973975306,75.06227278765567,92.30906238732031
