Freq "Rear Wall Bounce"
20.5078 58.924333018249015
21.9727 59.98896761351982
23.4375 62.631427473348666
24.9023 67.88262402270199
26.3672 71.9732033321237
27.832 77.36179406262838
29.2969 81.24386247217214
30.7617 84.4882118434913
32.2266 87.01381405799947
33.6914 89.63529523750094
35.1562 91.64947319949593
36.6211 93.50359899517929
38.0859 94.81486036366708
39.5508 95.80427947736393
41.0156 96.39876558743809
42.4805 96.54598368488001
43.9453 96.85803850865884
45.4102 96.92468594195866
46.875 96.78391954397962
48.3398 96.6758391445716
51.2695 96.36232578588498
52.7344 96.26224796531564
54.1992 96.17166874791171
55.6641 96.08675707450328
58.5938 96.00119230944208
60.0586 95.95741627673108
62.9883 95.94621922935566
64.4531 95.89217790307902
67.3828 95.78104446036143
68.8477 95.7472968467983
71.7773 95.84228421878264
74.707 95.86200231424995
77.6367 95.8750505809411
79.1016 95.83307715315492
82.0312 95.78107150964856
84.9609 95.78439833214637
87.8906 95.79406343506253
90.8203 95.76526419236546
95.2148 95.66163012722181
98.1445 95.68649026400637
101.074 95.83747353309236
105.469 95.69029652862143
108.398 95.73329274916891
112.793 95.64569411565213
117.188 95.48354824029094
120.117 95.47346593893313
124.512 95.38039356365563
128.906 95.61868002598813
133.301 95.56068737899825
139.16 95.39778819592729
143.555 95.35329624475506
147.949 95.24609035890285
153.809 95.10747397344197
159.668 95.13260820414386
165.527 95.17840395447371
171.387 94.90165724208327
177.246 94.44687233155754
183.105 94.419530464553
188.965 94.36565070491031
196.289 94.2639212950781
203.613 94.03307032949884
210.938 94.06864055686093
218.262 94.15441012760849
225.586 94.22260741734367
232.91 93.79673659258886
241.699 93.40998423905451
250.488 93.42738932453751
259.277 93.3276241455904
268.066 93.13112439361535
276.855 92.79397670349196
287.109 92.89246384069541
297.363 92.73885556458129
307.617 92.18911062041674
319.336 91.83706300761973
329.59 91.41183848336989
341.309 91.81871609788384
353.027 90.92726277029945
366.211 90.68536811014059
379.395 90.35808956136808
392.578 91.34754846935739
405.762 91.15866891167094
420.41 90.3242530096018
435.059 90.4101903234207
451.172 90.82616738924578
465.82 90.73854840413959
483.398 90.72510606893763
499.512 90.06138052760862
517.09 90.88616558482586
536.133 90.15509583397314
555.176 90.04014465129747
574.219 90.33277715057766
594.727 90.53417851966975
615.234 89.21117516951925
637.207 90.45311818075432
659.18 88.46194438218097
682.617 89.03656178428061
707.52 89.1877918956206
732.422 88.29028447560864
757.324 89.1932403124962
785.156 87.52103546020845
811.523 88.27554809327994
840.82 86.46861387644483
870.117 87.8494208750421
900.879 86.65926247544095
933.105 87.8024726485067
965.332 87.41426646334803
1000.49 86.06748609317852
1035.64 85.1328916194372
1072.27 85.6483476662273
1108.89 85.74251797650467
1148.44 85.49822818961533
1189.45 83.79119715445657
1230.47 84.63850010824889
1274.41 84.55138244458061
1319.82 85.2475168362888
1366.7 85.37171677261381
1413.57 84.53170100848664
1463.38 83.9152426875245
1516.11 83.77794352084216
1568.85 83.07454344162684
1624.51 83.22201781749013
1681.64 83.33058459766015
1741.7 83.53217834789022
1803.22 83.49380227143855
1866.21 82.91715353774666
1932.13 82.7415203095573
1999.51 82.98479869895067
2069.82 82.47756716149946
2143.07 82.44194634457298
2219.24 81.25975967606975
2296.88 80.89851514104178
2378.91 80.6207966776989
2462.4 80.38986340678427
2548.83 80.66524065882136
2639.65 80.40294417751996
2731.93 79.0580296372858
2828.61 78.77706863124683
2928.22 79.19250887282227
3030.76 78.91863972324228
3137.7 78.88866055854741
3249.02 78.44346158263716
3363.28 78.23005126135122
3481.93 78.24478551245618
3604.98 78.9297142995253
3732.42 79.27353965303128
3864.26 78.95918614678929
4000.49 77.7925987578703
4141.11 78.05828123892987
4287.6 77.75256213871292
4438.48 77.52451597865732
4595.21 76.43035406075838
4756.35 77.65314748665467
4924.8 76.32324990038482
5097.66 77.38689471825668
5277.83 75.59830997973903
5463.87 76.38458765987447
5657.23 75.64027432257318
5856.45 76.13220813129504
6062.99 76.31719193376303
6276.86 76.6571698631242
6498.05 76.48721963227182
6726.56 76.29510741973168
6963.87 76.33057275799476
7209.96 76.4076853482123
7464.84 76.0921298757146
7727.05 76.24160305050559
7999.51 75.60690294938424
8282.23 75.4158370011434
8573.73 75.50082627174638
8876.95 74.62163591548729
9188.96 74.78098272696401
9514.16 75.06227278765567
9849.61 74.50937054968594
10196.8 73.22433306430007
10555.7 72.90118399839459
10927.7 71.99534367700154
11313.0 70.85188973391409
11712.9 70.268115218082
12126.0 70.22869830301879
12553.7 69.96794144010097
12996.1 69.97767620200166
13454.6 70.28759504173591
13929.2 70.26094282683896
14419.9 71.36873746182566
14928.2 71.69985551937971
15455.6 71.84327415107016
16000.5 71.23307015968096
16564.5 69.87512849136748
17148.9 67.85294134697459
17752.4 62.13977219441843
18379.4 55.92776948302928
19026.9 61.596404718193796
19697.8 63.91232530154376
19999.5 66.28372919005851
