Freq,On Axis,Listening Window,Sound Power,Early Reflections,Early Reflections DI,Sound Power DI,DI offset
22.4,57.522784810126595,57.03784294297061,56.60478060191399,56.78224214707565,40.25560079589496,40.433062341056626,40
23.0,58.62278481012659,58.14877531841232,57.712050395790854,57.880108687665384,40.268666630746935,40.436724922621465,40
23.6,59.62278481012659,59.15993392545711,58.72231205880637,58.886357750713316,40.273576174743795,40.437621866650744,40
24.0,60.32278481012658,59.92678738843888,59.48321854019672,59.64891360326202,40.277873785176865,40.443568848242165,40
25.0,61.32278481012658,60.87132284703715,60.42047510472655,60.574146489349616,40.29717635768753,40.4508477423106,40
25.8,62.22278481012658,61.838263450741294,61.384273234580476,61.54019761304468,40.29806583769661,40.45399021616082,40
26.5,63.22278481012658,62.80266112592548,62.3612315252786,62.51064911744132,40.292012008484164,40.441429600646885,40
27.2,64.42278481012659,64.02651971486767,63.579068222137394,63.72653682341716,40.29998289145051,40.44745149273028,40
28.0,65.32278481012658,64.93799026491534,64.48059878138793,64.62909103660458,40.308899228310764,40.45739148352742,40
29.0,66.12278481012659,65.76984032491907,65.28778479416387,65.44687337703223,40.32296694788684,40.482055530755204,40
30.0,66.82278481012658,66.5344969726216,66.07416257502203,66.23675871535725,40.29773825726434,40.46033439759957,40
30.7,67.52278481012658,67.22246886972444,66.68706366237117,66.86648096833333,40.3559879013911,40.535405207353264,40
31.5,68.12278481012659,67.842924153494,67.31224543680985,67.49607938829462,40.34684476519938,40.53067871668415,40
32.5,68.82278481012658,68.542924153494,68.00985695378209,68.19987734680234,40.34304680669166,40.53306719971191,40
33.5,69.5227848101266,69.37287044034927,68.77856515679112,68.97672693642629,40.396143503922985,40.59430528355816,40
34.5,70.42278481012659,70.20560367007322,69.58876608951124,69.81925807296142,40.3863455971118,40.61683758056198,40
35.5,71.02278481012657,70.84801206410852,70.2187378592332,70.46404626490173,40.38396579920679,40.629274204875315,40
36.5,71.62278481012659,71.479646375657,70.81101592750194,71.0813778289623,40.398268546694695,40.66863044815506,40
37.5,72.12278481012659,71.979646375657,71.26741644071431,71.54889329384162,40.43075308181538,40.712229934942684,40
38.7,72.62278481012659,72.51229970555342,71.79626616024213,72.09561608456247,40.41668362099095,40.71603354531129,40
40.0,73.22278481012658,73.1347758233826,72.41113971954826,72.73412389226243,40.400651931120166,40.72363610383434,40
41.2,73.72278481012658,73.71280678300737,72.91227075456044,73.26541987606618,40.44738690694119,40.80053602844693,40
42.5,74.22278481012658,74.14596461892738,73.35438645144292,73.71871859625956,40.427246022667816,40.79157816748446,40
43.7,74.62278481012659,74.56878576980286,73.72513247378028,74.11102796890054,40.457757800902314,40.84365329602258,40
45.0,74.92278481012657,74.82405806997211,73.98882430907942,74.37399627787569,40.45006179209642,40.83523376089269,40
46.2,75.32278481012658,75.21355866655092,74.3457498558423,74.7522817315049,40.46127693504603,40.867808810708624,40
47.5,75.62278481012659,75.49148762749662,74.62162520593377,75.04076746905396,40.450720158442664,40.86986242156286,40
48.7,75.82278481012658,75.73554133712936,74.83490316045565,75.25719557546232,40.47834576166704,40.90063817667371,40
50.0,76.02278481012657,75.93554133712937,75.03493216169566,75.4569821315882,40.47855920554116,40.9006091754337,40
51.5,76.22278481012658,76.05765568974073,75.15958672545533,75.58683249387693,40.4708231958638,40.8980689642854,40
53.0,76.42278481012659,76.2133374197641,75.2977562959896,75.73400001234583,40.47933740741827,40.9155811237745,40
54.5,76.52278481012658,76.32511680759995,75.428964727269,75.86557217041299,40.459544637186966,40.89615208033095,40
56.0,76.72278481012658,76.46958658923172,75.56092466786491,76.00916908096303,40.46041750826869,40.908661921366814,40
58.0,76.92278481012659,76.69256006525785,75.7554050021745,76.2033695861823,40.489190479075546,40.93715506308335,40
60.0,77.12278481012659,76.91412463909312,75.9637987893729,76.41868117190376,40.49544346718936,40.950325849720215,40
61.5,77.42278481012657,77.21412463909313,76.23055826933295,76.68277115112308,40.53135348797005,40.98356636976018,40
63.0,77.82278481012658,77.53711935104069,76.56836950375016,77.02437895077153,40.51274040026915,40.968749847290525,40
65.0,78.32278481012658,78.05896028079407,77.0621229130459,77.5387063795922,40.52025390120187,40.99683736774817,40
67.0,78.82278481012658,78.55896028079407,77.53696366493678,78.00477422606747,40.5541860547266,41.02199661585729,40
69.0,79.42278481012659,79.23608122471005,78.15431974743825,78.64521348187922,40.590867742830824,41.0817614772718,40
71.0,80.22278481012658,80.11281859365302,78.98059654956279,79.48172536916901,40.631093224484005,41.13222204409023,40
73.0,80.9227848101266,80.80179521416292,79.64650966123013,80.16667892186831,40.63511629229461,41.155285552932796,40
75.0,81.62278481012659,81.54623082374825,80.34638705572597,80.8822558115012,40.66397501224705,41.199843768022276,40
77.5,82.22278481012658,82.17888284826182,80.94571953950678,81.50123002611721,40.67765282214461,41.23316330875504,40
80.0,82.52278481012658,82.5347700154865,81.24030248733051,81.81509185336799,40.71967816211851,41.29446752815599,40
82.5,82.72278481012658,82.81255033283664,81.44386899519499,82.04542634685268,40.76712398598396,41.36868133764165,40
85.0,82.92278481012659,82.97989314651565,81.54842970396663,82.18056967509563,40.799323471420024,41.43146344254902,40
87.5,83.02278481012658,83.12455226583873,81.65720088575209,82.30493171539918,40.81962055043955,41.46735138008664,40
90.0,83.4227848101266,83.46878576980286,81.91410165908059,82.6083201347811,40.86046563502177,41.55468411072228,40
92.5,83.82278481012658,83.86878576980287,82.23775285817204,82.96761756200247,40.901168207800396,41.631032911630825,40
95.0,84.32278481012658,84.37989314651566,82.66503783267481,83.42774344431817,40.95214970219749,41.71485531384084,40
97.5,84.82278481012658,84.80152627155373,83.05728661045615,83.85143650724176,40.95008976431197,41.74423966109758,40
100.0,85.12278481012659,85.16879153238682,83.35094439247182,84.17514619357685,40.99364533880997,41.817847139915,40
103.0,85.52278481012658,85.4912356481809,83.58579676263592,84.46063853647992,41.030597111700985,41.90543888554498,40
106.0,85.72278481012658,85.66905057949157,83.70276291712612,84.61459379223159,41.05445678725998,41.966287662365445,40
109.0,85.9227848101266,85.86905057949157,83.84525308724369,84.79214360293194,41.07690697655963,42.02379749224788,40
112.0,86.22278481012658,86.12482547506089,84.03521972997605,85.01495176582998,41.10987370923091,42.08960574508484,40
115.0,86.42278481012659,86.3140831070622,84.16643702729577,85.1750239314709,41.1390591755913,42.14764607976643,40
118.0,86.52278481012658,86.4140831070622,84.19424971217522,85.23072576318042,41.18335734388178,42.219833394886976,40
122.0,86.52278481012658,86.4140831070622,84.15639716044312,85.19743970248628,41.21664340457592,42.25768594661908,40
125.0,86.52278481012658,86.415365433677,84.13380079606692,85.19861567757113,41.21674975610587,42.281564637610074,40
128.0,86.52278481012658,86.415365433677,84.11549319288396,85.17189800014066,41.24346743353634,42.299872240793036,40
132.0,86.52278481012658,86.43834751764128,84.1238563133509,85.18464277125791,41.25370474638336,42.31449120429038,40
136.0,86.62278481012659,86.50508472728669,84.15512629431315,85.22336388831911,41.28172083896757,42.34995843297354,40
140.0,86.62278481012659,86.54013361547618,84.14362037771903,85.22211210153726,41.318021513938916,42.39651323775715,40
145.0,86.52278481012658,86.40711874585328,83.96957584087835,85.06371945776694,41.343399288086346,42.43754290497493,40
150.0,86.42278481012659,86.24161160234158,83.71345277083982,84.82816529312989,41.41344630921169,42.528158831501756,40
155.0,86.32278481012658,86.13298532291205,83.52668393295365,84.68296622796363,41.450019094948416,42.6063013899584,40
160.0,86.32278481012658,86.13298532291205,83.38396935053815,84.59170600678154,41.54127931613051,42.7490159723739,40
165.0,86.42278481012659,86.19324859111876,83.29119824390214,84.58328903985729,41.60995955126147,42.902050347216615,40
170.0,86.62278481012659,86.33685371446525,83.22921898373389,84.63632446268299,41.70052925178226,43.10763473073136,40
175.0,86.72278481012658,86.41490104385672,83.11299122107563,84.62486523797324,41.79003580588348,43.301909822781084,40
180.0,86.72278481012658,86.43685371446524,82.92424820962589,84.55363295393434,41.883220760530904,43.51260550483936,40
185.0,86.72278481012658,86.43685371446524,82.71944471877225,84.47452478152898,41.96232893293626,43.71740899569299,40
190.0,86.72278481012658,86.41490104385672,82.5215191309777,84.38150771000782,42.03339333384889,43.89338191287902,40
195.0,86.62278481012659,86.3022482057999,82.25140248529179,84.21559584993098,42.08665235586892,44.05084572050811,40
200.0,86.42278481012659,86.12426476501692,81.94449157379282,83.98997613274736,42.13428863226956,44.1797731912241,40
206.0,86.22278481012658,85.98053242010401,81.6702076836625,83.78921420539835,42.19131821470566,44.310324736441515,40
212.0,86.02278481012657,85.74471161173932,81.37147274107457,83.55605682969654,42.188654782042775,44.37323887066475,40
218.0,85.82278481012658,85.60265906252424,81.12703223692544,83.37166963709872,42.23098942542552,44.475626825598795,40
224.0,85.82278481012658,85.62320764277958,81.12469479660338,83.40349563147801,42.21971201130157,44.4985128461762,40
230.0,86.02278481012657,85.82320764277958,81.24974647490252,83.56982069567991,42.25338694709967,44.573461167877056,40
236.0,86.12278481012659,85.9136312150669,81.28352614844825,83.62476189595762,42.28886931910928,44.630105066618654,40
240.0,86.02278481012657,85.81363121506689,81.17997253728059,83.54179098632743,42.271840228739464,44.6336586777863,40
250.0,85.9227848101266,85.68108862446309,81.03266815706236,83.40258238211844,42.27850624234465,44.648420467400726,40
258.0,85.72278481012658,85.47185444458084,80.8087013834843,83.19503692818255,42.276817516398296,44.66315306109654,40
265.0,85.42278481012659,85.22874259758892,80.54562007166207,82.93715274993944,42.291589847649476,44.68312252592685,40
272.0,85.22278481012658,85.01981740720255,80.2793768543522,82.70033882502737,42.31947858217518,44.74044055285036,40
280.0,84.82278481012658,84.5987725667443,79.81463500203394,82.2616246008936,42.337147965850704,44.78413756471036,40
290.0,84.22278481012658,84.01981740720255,79.19014812133243,81.66956977594516,42.35024763125739,44.829669285870125,40
300.0,83.82278481012658,83.57557953940584,78.69185426680468,81.2260193875283,42.34956015187754,44.883725272601154,40
307.0,83.62278481012659,83.32351378104171,78.3674485211463,80.94562563897023,42.377888142071484,44.95606525989541,40
315.0,83.4227848101266,83.1235137810417,78.15822135176204,80.7753233946921,42.3481903863496,44.96529242927966,40
325.0,83.22278481012658,83.01173003860252,77.96691292848506,80.62065430648279,42.39107573211973,45.044817110117464,40
335.0,83.02278481012658,82.81173003860252,77.729425427561,80.401603108552,42.410126930050524,45.08230461104152,40
345.0,82.72278481012658,82.44153779240948,77.35431806275925,79.99816984227071,42.443367950138764,45.08721972965023,40
355.0,82.42278481012657,82.1286690809562,76.98863849856674,79.60779426833538,42.52087481262082,45.14003058238946,40
365.0,82.32278481012658,82.0488715874357,76.87824037005726,79.44001855267138,42.60885303476432,45.17063121737844,40
375.0,82.62278481012659,82.24859272010931,76.96456501883489,79.49216919365183,42.75642352645748,45.284027701274425,40
387.0,82.72278481012658,82.34809655881232,76.91202730668242,79.41867283628412,42.9294237225282,45.4360692521299,40
400.0,82.82278481012658,82.37252699846627,76.67856771165988,79.20667503381902,43.165851964647246,45.69395928680639,40
412.0,82.92278481012659,82.45267450288138,76.50978256014731,79.09311230000449,43.35956220287689,45.942891942734065,40
425.0,83.4227848101266,82.8991522418702,76.67163068253892,79.35235596079578,43.54679628107442,46.22752155933128,40
437.0,83.92278481012659,83.37987148766636,76.88932001173833,79.67407056196544,43.70580092570093,46.49055147592803,40
450.0,84.22278481012658,83.67987148766636,76.93410214774174,79.83030886479028,43.84956262287608,46.74576933992462,40
462.0,84.42278481012659,83.80243636984426,76.84035449307619,79.83042419068879,43.97201217915547,46.96208187676807,40
475.0,84.5227848101266,83.94953035550283,76.77783902199765,79.87017161973729,44.07935873576554,47.17169133350518,40
487.0,84.62278481012659,84.04953035550284,76.72484210188343,79.89069676625198,44.15883358925086,47.324688253619414,40
500.0,84.72278481012658,84.13978989561875,76.7099232495965,79.92081270686731,44.21897718875144,47.42986664602225,40
515.0,84.82278481012658,84.23978989561874,76.70418216421295,79.95517211102849,44.28461778459025,47.53560773140579,40
530.0,84.82278481012658,84.19645671980966,76.59045846687079,79.86200233601684,44.33445438379282,47.605998252938875,40
545.0,84.62278481012659,84.00964751136144,76.30480358668422,79.6167840764246,44.39286343493684,47.70484392467722,40
560.0,84.42278481012659,83.77781910987242,75.99549836905135,79.33062976238854,44.447189347483885,47.78232074082108,40
580.0,84.22278481012658,83.56878854108966,75.71852116805559,79.08693884642426,44.4818496946654,47.85026737303407,40
600.0,84.02278481012658,83.33763316037077,75.41803058712466,78.81928680471125,44.51834635565952,47.91960257324611,40
615.0,83.72278481012658,83.00161467173608,75.01473789605551,78.45685715201081,44.544757519725266,47.98687677568057,40
630.0,83.52278481012657,82.75564144462729,74.68087055368215,78.16627688006284,44.58936456456445,48.07477089094513,40
650.0,83.32278481012658,82.55997348060994,74.43524701065782,77.94777117784733,44.61220230276261,48.12472646995212,40
670.0,83.32278481012658,82.47764723241298,74.28611640081972,77.84202089075968,44.63562634165329,48.191530831593255,40
690.0,83.52278481012657,82.68305414822247,74.43371854710607,77.99493675110875,44.688117397113714,48.2493356011164,40
710.0,83.92278481012659,83.03792100501026,74.72209040466946,78.30866584799467,44.72925515701559,48.3158306003408,40
730.0,84.12278481012659,83.21840315263609,74.84946787594514,78.43604571974019,44.78235743289589,48.36893527669095,40
750.0,84.32278481012658,83.39924446002912,74.95356226263708,78.54629338610579,44.852951073923336,48.445682197392046,40
775.0,84.5227848101266,83.58711818840256,75.11843737925936,78.6884509713341,44.89866721706845,48.468680809143194,40
800.0,84.72278481012658,83.70909431852861,75.1756806142914,78.75975454094508,44.94933977758353,48.53341370423722,40
825.0,84.72278481012658,83.67300535108213,75.10937175018232,78.684822911015,44.98818244006712,48.563633600899806,40
850.0,84.82278481012658,83.72678029907586,75.13419256557873,78.72731708716415,44.9994632119117,48.592587733497126,40
875.0,85.02278481012658,83.85804095056889,75.23588160377429,78.84581953155642,45.01222141901248,48.622159346794604,40
900.0,84.92278481012657,83.7298323948157,75.07942179174792,78.70164669862064,45.02818569619507,48.65041060306778,40
925.0,84.62278481012659,83.4236611773524,74.7848562406243,78.40461183488846,45.019049342463944,48.63880493672811,40
950.0,84.42278481012659,83.20142269916865,74.55658537318995,78.20929641180636,44.99212628736228,48.6448373259787,40
975.0,84.12278481012659,82.81051048215467,74.21396429438843,77.88121064459425,44.92929983756042,48.596546187766236,40
1000.0,83.92278481012659,82.58729981531845,73.99025333407714,77.68978916152342,44.897510653795024,48.59704648124131,40
1030.0,83.52278481012657,82.24207634520758,73.62331446950202,77.3736980116709,44.86837833353668,48.61876187570556,40
1060.0,83.22278481012658,81.93578107206697,73.24409601921217,77.08098495781225,44.854796114254725,48.69168505285481,40
1090.0,82.82278481012658,81.46779024205495,72.63735121038731,76.59540551418421,44.87238472787074,48.83043903166764,40
1120.0,82.92278481012659,81.49286561544727,72.46946097143302,76.58609317314135,44.90677244230592,49.02340464401425,40
1150.0,83.12278481012659,81.59063895771605,72.48413381292318,76.71090559899284,44.879733358723215,49.10650514479288,40
1180.0,83.12278481012659,81.52671173169342,72.37423858970355,76.67877100713157,44.84794072456185,49.15247314198987,40
1220.0,83.12278481012659,81.39439094790764,72.25171579354344,76.5954807872137,44.798910160693936,49.1426751543642,40
1250.0,82.92278481012659,81.1646491879312,72.10532641161713,76.45760425989603,44.707044928035174,49.059322776314076,40
1280.0,83.02278481012658,81.25297668097355,72.36593584980915,76.67729693899129,44.575679741982256,48.8870408311644,40
1320.0,83.12278481012659,81.45129465110232,72.74475692620692,77.01517533993245,44.43611931116986,48.7065377248954,40
1360.0,83.22278481012658,81.66614417470275,73.2122785009894,77.41491537970377,44.25122879499898,48.45386567371335,40
1400.0,83.12278481012659,81.63634564249246,73.38116192674568,77.55126617911287,44.085079463379586,48.25518371574678,40
1450.0,83.12278481012659,81.71115719612858,73.58207892423275,77.76627729871876,43.94487989740982,48.129078271895835,40
1500.0,83.62278481012659,82.2661675470289,74.19874948053868,78.41445515971101,43.85171238731789,48.06741806649022,40
1550.0,84.22278481012658,82.9490221978787,74.84603260734531,79.13379704413563,43.81522515374307,48.1029895905334,40
1600.0,84.62278481012659,83.4116873227958,75.24378564422383,79.59387961578146,43.81780770701434,48.167901678571965,40
1650.0,84.72278481012658,83.46991483377855,75.20508217168596,79.62744278012859,43.842472053649956,48.26483266209259,40
1700.0,84.5227848101266,83.3181580711313,74.96837701643084,79.45126583987802,43.866892231253274,48.34978105470046,40
1750.0,84.32278481012658,83.11308712460637,74.68602585904323,79.22665356950156,43.8864335551048,48.42706126556314,40
1800.0,84.22278481012658,82.93862040616814,74.3995828891431,78.99415093303257,43.94446947313557,48.53903751702504,40
1850.0,83.92278481012659,82.6319676515081,73.98759644402772,78.63286791386969,43.99909973763842,48.64437120748039,40
1900.0,83.32278481012658,82.03391549516184,73.27925818347846,77.97579494021653,44.058120554945305,48.754657311683374,40
1950.0,82.72278481012658,81.34032345269564,72.44819585258459,77.16481851062062,44.17550494207502,48.89212760011105,40
2000.0,82.12278481012659,80.68507767476434,71.67525767112102,76.39697749812242,44.28810017664192,49.00982000364333,40
2060.0,81.82278481012658,80.34485213096174,71.2574372063562,75.93537298925806,44.409479141703684,49.08741492460554,40
2120.0,81.92278481012659,80.3920541273359,71.2648888213392,75.83079525084777,44.561258876488125,49.1271653059967,40
2180.0,82.22278481012658,80.6649458892827,71.52029593112506,75.98938601361601,44.67555987566669,49.14464995815764,40
2240.0,82.52278481012658,80.87601605556765,71.7461959327661,76.14512722828452,44.730888827283124,49.12982012280155,40
2300.0,82.82278481012658,81.20002627110635,72.12502288920854,76.43748457871713,44.76254169238922,49.075003381897815,40
2360.0,83.52278481012657,81.80225308832009,72.74673490119692,77.04812160360804,44.75413148471205,49.05551818712317,40
2400.0,83.92278481012659,82.13703077079636,73.13066480545716,77.4088962456222,44.728134525174156,49.0063659653392,40
2500.0,84.22278481012658,82.48921288310972,73.53602984935735,77.84264643697558,44.64656644613413,48.95318303375237,40
2580.0,84.72278481012658,82.97014033335323,74.03323978734052,78.38780887789143,44.5823314554618,48.93690054601271,40
2650.0,85.12278481012659,83.24379738429349,74.30446089407098,78.73924507450324,44.50455230979024,48.9393364902225,40
2720.0,85.12278481012659,83.2614242890881,74.37594375826167,78.82713762462024,44.43428666446786,48.88548053082643,40
2800.0,85.22278481012658,83.32773071621546,74.52443230461789,78.98541658446682,44.34231413174864,48.80329841159757,40
2900.0,85.02278481012658,83.22685281532871,74.57407734394138,79.01397974149057,44.21287307383814,48.65277547138733,40
