Freq,On Axis,Listening Window,Sound Power,Early Reflections,Early Reflections DI,Sound Power DI,DI offset
22.4,56.3,55.815058132844044,55.38199579178742,55.55945733694905,40.25560079589499,40.433062341056626,40
23.0,57.39999999999999,56.92599050828575,56.489265585664256,56.657323877538815,40.268666630746935,40.436724922621494,40
23.6,58.39999999999999,57.93714911533054,57.4995272486798,57.66357294058675,40.273576174743795,40.437621866650744,40
24.0,59.10000000000001,58.704002578312284,58.26043373007012,58.42612879313542,40.277873785176865,40.443568848242165,40
25.0,60.10000000000001,59.64853803691055,59.19769029459998,59.35136167922305,40.297176357687505,40.45084774231057,40
25.8,61.0,60.61547864061471,60.16148842445391,60.3174128029181,40.29806583769661,40.453990216160804,40
26.5,61.999999999999986,61.5798763157989,61.138446715152014,61.287864307314734,40.292012008484164,40.441429600646885,40
27.2,63.2,62.803734904741106,62.3562834120108,62.503752013290594,40.29998289145051,40.44745149273031,40
28.0,64.10000000000001,63.715205454788745,63.25781397126134,63.406306226477994,40.30889922831075,40.4573914835274,40
29.0,64.9,64.5470555147925,64.06499998403727,64.22408856690565,40.322966947886854,40.48205553075523,40
30.0,65.59999999999998,65.311712162495,64.85137776489545,65.01397390523067,40.29773825726433,40.46033439759955,40
30.7,66.3,65.99968405959787,65.46427885224459,65.64369615820675,40.35598790139112,40.53540520735328,40
31.5,66.90000000000002,66.62013934336741,66.08946062668328,66.27329457816803,40.34684476519938,40.530678716684136,40
32.5,67.6,67.32013934336742,66.78707214365552,66.97709253667577,40.343046806691646,40.533067199711894,40
33.5,68.3,68.15008563022269,67.55578034666455,67.7539421262997,40.396143503922985,40.59430528355814,40
34.5,69.2,68.98281885994663,68.36598127938466,68.59647326283485,40.386345597111784,40.61683758056198,40
35.5,69.8,69.62522725398195,68.99595304910662,69.24126145477514,40.383965799206806,40.62927420487533,40
36.5,70.4,70.25686156553041,69.58823111737536,69.85859301883572,40.398268546694695,40.66863044815506,40
37.5,70.89999999999999,70.75686156553041,70.04463163058773,70.32610848371503,40.43075308181538,40.712229934942684,40
38.7,71.4,71.28951489542682,70.57348135011556,70.87283127443588,40.41668362099094,40.71603354531126,40
40.0,71.99999999999999,71.91199101325601,71.18835490942169,71.51133908213585,40.400651931120166,40.72363610383432,40
41.2,72.5,72.49002197288078,71.68948594443387,72.0426350659396,40.447386906941176,40.80053602844691,40
42.5,73.00000000000001,72.9231798088008,72.13160164131635,72.495933786133,40.4272460226678,40.791578167484445,40
43.7,73.39999999999999,73.34600095967626,72.50234766365368,72.88824315877396,40.4577578009023,40.84365329602258,40
45.0,73.7,73.60127325984554,72.76603949895284,73.15121146774912,40.45006179209642,40.835233760892706,40
46.2,74.10000000000001,73.99077385642434,73.12296504571573,73.52949692137828,40.46127693504606,40.86780881070861,40
47.5,74.40000000000002,74.26870281737004,73.39884039580718,73.81798265892736,40.45072015844268,40.86986242156286,40
48.7,74.6,74.5127565270028,73.61211835032906,74.03441076533575,40.47834576166704,40.90063817667374,40
50.0,74.8,74.71275652700278,73.81214735156908,74.23419732146162,40.47855920554116,40.9006091754337,40
51.5,75.0,74.83487087961414,73.93680191532874,74.36404768375034,40.4708231958638,40.8980689642854,40
53.0,75.2,74.99055260963752,74.07497148586302,74.51121520221926,40.47933740741826,40.9155811237745,40
54.5,75.3,75.10233199747337,74.20617991714242,74.6427873602864,40.459544637186966,40.89615208033095,40
56.0,75.50000000000001,75.24680177910513,74.33813985773833,74.78638427083645,40.46041750826868,40.9086619213668,40
58.0,75.7,75.46977525513127,74.53262019204791,74.98058477605574,40.48919047907553,40.93715506308335,40
60.0,75.89999999999999,75.69133982896655,74.74101397924632,75.19589636177717,40.495443467189375,40.95032584972023,40
61.5,76.2,75.99133982896655,75.00777345920635,75.45998634099648,40.531353487970065,40.9835663697602,40
63.0,76.60000000000001,76.31433454091412,75.34558469362358,75.80159414064497,40.51274040026915,40.96874984729054,40
65.0,77.1,76.83617547066747,75.83933810291931,76.31592156946563,40.52025390120184,40.99683736774816,40
67.0,77.6,77.33617547066748,76.3141788548102,76.78198941594088,40.5541860547266,41.02199661585729,40
69.0,78.2,78.01329641458346,76.93153493731167,77.42242867175266,40.59086774283081,41.0817614772718,40
71.0,79.0,78.89003378352642,77.7578117394362,78.25894055904243,40.63109322448399,41.13222204409021,40
73.0,79.7,79.57901040403634,78.42372485110354,78.94389411174173,40.63511629229461,41.155285552932796,40
75.0,80.4,80.32344601362165,79.12360224559939,79.65947100137461,40.663975012247036,41.19984376802226,40
77.5,81.0,80.95609803813524,79.7229347293802,80.27844521599063,40.67765282214461,41.23316330875504,40
80.0,81.3,81.3119852053599,80.01751767720394,80.59230704324142,40.719678162118484,41.29446752815596,40
82.5,81.5,81.58976552271005,80.22108418506842,80.8226415367261,40.76712398598396,41.36868133764163,40
85.0,81.7,81.75710833638907,80.32564489384005,80.95778486496904,40.799323471420024,41.43146344254902,40
87.5,81.8,81.90176745571215,80.43441607562552,81.08214690527258,40.819620550439566,41.467351380086626,40
90.0,82.2,82.24600095967627,80.691316848954,81.38553532465451,40.860465635021754,41.55468411072226,40
92.5,82.6,82.64600095967629,81.01496804804546,81.74483275187589,40.901168207800396,41.631032911630825,40
95.0,83.09999999999998,83.15710833638907,81.44225302254823,82.20495863419158,40.95214970219749,41.71485531384084,40
97.5,83.6,83.57874146142714,81.83450180032958,82.62865169711517,40.95008976431197,41.744239661097566,40
100.0,83.9,83.94600672226024,82.12815958234525,82.95236138345027,40.99364533880997,41.81784713991499,40
103.0,84.3,84.26845083805433,82.36301195250935,83.23785372635334,41.030597111701,41.90543888554498,40
106.0,84.49999999999999,84.44626576936498,82.47997810699952,83.391808982105,41.05445678725998,41.96628766236546,40
109.0,84.7,84.64626576936497,82.62246827711711,83.56935879280536,41.07690697655961,42.023797492247866,40
112.0,85.0,84.90204066493432,82.81243491984947,83.7921669557034,41.109873709230925,42.08960574508485,40
115.0,85.2,85.09129829693562,82.94365221716917,83.95223912134432,41.1390591755913,42.147646079766446,40
118.0,85.3,85.19129829693561,82.97146490204862,84.00794095305382,41.183357343881795,42.21983339488699,40
122.0,85.3,85.19129829693561,82.93361235031654,83.97465489235971,41.216643404575905,42.25768594661908,40
125.0,85.3,85.19258062355043,82.91101598594035,83.97583086744456,41.21674975610587,42.281564637610074,40
128.0,85.3,85.19258062355043,82.89270838275739,83.94911319001407,41.24346743353635,42.299872240793036,40
132.0,85.3,85.21556270751469,82.90107150322432,83.96185796113134,41.25370474638335,42.31449120429038,40
136.0,85.4,85.2822999171601,82.93234148418657,84.00057907819254,41.28172083896756,42.34995843297354,40
140.0,85.4,85.3173488053496,82.92083556759245,83.99932729141067,41.31802151393893,42.39651323775715,40
145.0,85.3,85.1843339357267,82.74679103075177,83.84093464764035,41.343399288086346,42.43754290497493,40
150.0,85.2,85.018826792215,82.49066796071324,83.60538048300329,41.41344630921171,42.528158831501756,40
155.0,85.1,84.91020051278547,82.30389912282705,83.46018141783703,41.45001909494843,42.60630138995842,40
160.0,85.1,84.91020051278547,82.16118454041157,83.36892119665494,41.54127931613053,42.7490159723739,40
165.0,85.2,84.97046378099218,82.06841343377556,83.3605042297307,41.60995955126148,42.902050347216615,40
170.0,85.4,85.11406890433867,82.0064341736073,83.41353965255641,41.70052925178226,43.10763473073136,40
175.0,85.50000000000001,85.19211623373012,81.89020641094905,83.40208042784666,41.79003580588346,43.30190982278107,40
180.0,85.50000000000001,85.21406890433866,81.7014633994993,83.33084814380776,41.883220760530904,43.51260550483936,40
185.0,85.50000000000001,85.21406890433866,81.49665990864567,83.2517399714024,41.96232893293626,43.71740899569299,40
190.0,85.50000000000001,85.19211623373012,81.29873432085111,83.15872289988125,42.03339333384886,43.89338191287901,40
195.0,85.4,85.07946339567332,81.02861767516521,82.9928110398044,42.08665235586892,44.05084572050811,40
200.0,85.2,84.90147995489035,80.72170676366623,82.76719132262079,42.13428863226956,44.179773191224115,40
206.0,85.0,84.75774760997743,80.44742287353593,82.56642939527178,42.191318214705646,44.3103247364415,40
212.0,84.8,84.52192680161274,80.14868793094799,82.33327201956996,42.188654782042775,44.37323887066475,40
218.0,84.6,84.37987425239764,79.90424742679886,82.14888482697214,42.230989425425506,44.47562682559878,40
224.0,84.6,84.40042283265299,79.90190998647678,82.18071082135141,42.21971201130158,44.49851284617621,40
230.0,84.8,84.600422832653,80.02696166477592,82.34703588555332,42.25338694709967,44.57346116787707,40
236.0,84.9,84.69084640494032,80.06074133832166,82.40197708583104,42.28886931910928,44.630105066618654,40
240.0,84.8,84.59084640494031,79.95718772715401,82.31900617620086,42.27184022873945,44.6336586777863,40
250.0,84.7,84.4583038143365,79.80988334693578,82.17979757199184,42.27850624234466,44.648420467400726,40
258.0,84.49999999999999,84.24906963445424,79.58591657335772,81.97225211805598,42.27681751639827,44.66315306109652,40
265.0,84.2,84.00595778746232,79.3228352615355,81.71436793981286,42.29158984764946,44.68312252592682,40
272.0,84.0,83.79703259707597,79.05659204422562,81.47755401490079,42.31947858217518,44.740440552850345,40
280.0,83.6,83.3759877566177,78.59185019190734,81.038839790767,42.337147965850704,44.78413756471036,40
290.0,83.00000000000001,82.79703259707597,77.96736331120584,80.44678496581858,42.35024763125739,44.829669285870125,40
300.0,82.6,82.35279472927924,77.46906945667811,80.00323457740171,42.349560151877526,44.883725272601126,40
307.0,82.4,82.10072897091513,77.14466371101972,79.72284082884364,42.377888142071484,44.95606525989541,40
315.0,82.2,81.90072897091513,76.93543654163544,79.55253858456551,42.348190386349614,44.965292429279685,40
325.0,81.99999999999999,81.78894522847594,76.74412811835846,79.39786949635618,42.39107573211976,45.04481711011748,40
335.0,81.8,81.58894522847594,76.50664061743441,79.17881829842541,42.410126930050524,45.08230461104152,40
345.0,81.5,81.2187529822829,76.13153325263268,78.77538503214414,42.44336795013875,45.087219729650215,40
355.0,81.2,80.90588427082963,75.76585368844016,78.38500945820878,42.520874812620846,45.14003058238947,40
365.0,81.1,80.82608677730911,75.65545555993067,78.2172337425448,42.60885303476431,45.17063121737844,40
375.0,81.4,81.02580790998273,75.74178020870832,78.26938438352524,42.756423526457496,45.28402770127441,40
387.0,81.5,81.12531174868575,75.68924249655582,78.19588802615753,42.92942372252821,45.436069252129926,40
400.0,81.60000000000001,81.1497421883397,75.4557829015333,77.98389022369244,43.16585196464726,45.693959286806404,40
412.0,81.7,81.22988969275481,75.28699775002075,77.87032748987791,43.3595622028769,45.942891942734065,40
425.0,82.2,81.67636743174361,75.44884587241233,78.12957115066918,43.546796281074435,46.22752155933128,40
437.0,82.7,82.15708667753978,75.66653520161175,78.45128575183885,43.70580092570093,46.49055147592803,40
450.0,83.00000000000001,82.45708667753979,75.71131733761514,78.6075240546637,43.84956262287609,46.74576933992465,40
462.0,83.2,82.57965155971768,75.6175696829496,78.60763938056219,43.972012179155485,46.96208187676808,40
475.0,83.3,82.72674554537625,75.55505421187108,78.6473868096107,44.07935873576555,47.171691333505166,40
487.0,83.39999999999999,82.82674554537627,75.50205729175683,78.6679119561254,44.158833589250875,47.32468825361944,40
500.0,83.5,82.91700508549218,75.48713843946992,78.69802789674073,44.21897718875145,47.42986664602226,40
515.0,83.6,83.01700508549216,75.48139735408638,78.73238730090192,44.28461778459024,47.535607731405776,40
530.0,83.6,82.97367190968309,75.3676736567442,78.63921752589026,44.33445438379283,47.60599825293889,40
545.0,83.39999999999999,82.78686270123485,75.08201877655763,78.39399926629801,44.39286343493684,47.70484392467722,40
560.0,83.2,82.55503429974583,74.77271355892476,78.10784495226197,44.44718934748386,47.78232074082106,40
580.0,83.00000000000001,82.34600373096308,74.495736357929,77.86415403629768,44.4818496946654,47.85026737303407,40
600.0,82.8,82.11484835024417,74.19524577699808,77.59650199458467,44.5183463556595,47.919602573246095,40
615.0,82.5,81.77882986160951,73.79195308592892,77.23407234188423,44.54475751972528,47.986876775680585,40
630.0,82.3,81.53285663450072,73.45808574355559,76.94349206993626,44.58936456456446,48.07477089094513,40
650.0,82.1,81.33718867048336,73.21246220053122,76.72498636772075,44.61220230276261,48.12472646995214,40
670.0,82.1,81.2548624222864,73.06333159069312,76.61923608063312,44.63562634165328,48.19153083159327,40
690.0,82.3,81.4602693380959,73.2109337369795,76.77215194098217,44.68811739711373,48.2493356011164,40
710.0,82.7,81.81513619488366,73.49930559454289,77.08588103786809,44.72925515701557,48.315830600340774,40
730.0,82.9,81.9956183425095,73.62668306581854,77.21326090961362,44.78235743289588,48.36893527669096,40
750.0,83.09999999999998,82.17645964990255,73.73077745251048,77.32350857597922,44.852951073923336,48.445682197392074,40
775.0,83.3,82.36433337827597,73.89565256913279,77.46566616120752,44.89866721706845,48.46868080914318,40
800.0,83.5,82.48630950840203,73.95289580416483,77.5369697308185,44.94933977758353,48.533413704237205,40
825.0,83.5,82.45022054095553,73.88658694005572,77.46203810088842,44.988182440067106,48.563633600899806,40
850.0,83.6,82.50399548894927,73.91140775545216,77.50453227703757,44.9994632119117,48.59258773349711,40
875.0,83.8,82.63525614044231,74.01309679364768,77.62303472142983,45.01222141901248,48.62215934679463,40
900.0,83.7,82.50704758468912,73.85663698162134,77.47886188849405,45.02818569619507,48.65041060306778,40
925.0,83.39999999999999,82.20087636722582,73.56207143049771,77.18182702476189,45.01904934246393,48.63880493672811,40
950.0,83.2,81.97863788904206,73.33380056306338,76.9865116016798,44.99212628736227,48.644837325978685,40
975.0,82.9,81.58772567202809,72.99117948426185,76.65842583446768,44.92929983756041,48.596546187766236,40
1000.0,82.7,81.36451500519186,72.76746852395055,76.46700435139684,44.897510653795024,48.59704648124131,40
1030.0,82.3,81.019291535081,72.40052965937544,76.1509132015443,44.8683783335367,48.61876187570556,40
1060.0,81.99999999999999,80.71299626194038,72.02131120908557,75.85820014768566,44.85479611425471,48.69168505285481,40
1090.0,81.60000000000001,80.24500543192836,71.41456640026072,75.37262070405764,44.872384727870724,48.83043903166764,40
1120.0,81.7,80.27008080532069,71.24667616130644,75.36330836301478,44.90677244230591,49.02340464401425,40
1150.0,81.90000000000002,80.36785414758947,71.26134900279659,75.48812078886625,44.879733358723215,49.10650514479288,40
1180.0,81.90000000000002,80.30392692156683,71.15145377957697,75.45598619700499,44.84794072456184,49.15247314198986,40
1220.0,81.90000000000002,80.17160613778104,71.02893098341686,75.3726959770871,44.798910160693936,49.142675154364184,40
1250.0,81.7,79.94186437780462,70.88254160149056,75.23481944976945,44.707044928035174,49.05932277631406,40
1280.0,81.8,80.03019187084696,71.14315103968256,75.4545121288647,44.575679741982256,48.8870408311644,40
1320.0,81.90000000000002,80.22850984097573,71.52197211608033,75.79239052980587,44.43611931116986,48.7065377248954,40
1360.0,81.99999999999999,80.44335936457615,71.9894936908628,76.19213056957719,44.251228794998966,48.45386567371335,40
1400.0,81.90000000000002,80.41356083236589,72.1583771166191,76.3284813689863,44.085079463379586,48.25518371574678,40
1450.0,81.90000000000002,80.48837238600201,72.35929411410616,76.5434924885922,43.94487989740982,48.12907827189585,40
1500.0,82.4,81.04338273690233,72.9759646704121,77.19167034958441,43.85171238731792,48.067418066490234,40
1550.0,83.00000000000001,81.72623738775211,73.62324779721872,77.91101223400905,43.81522515374306,48.10298959053338,40
1600.0,83.39999999999999,82.18890251266923,74.02100083409725,78.37109480565488,43.81780770701435,48.16790167857198,40
1650.0,83.5,82.24713002365196,73.98229736155936,78.404657970002,43.842472053649956,48.2648326620926,40
1700.0,83.3,82.0953732610047,73.74559220630425,78.22848102975144,43.86689223125326,48.34978105470044,40
1750.0,83.09999999999998,81.8903023144798,73.46324104891664,78.00386875937498,43.886433555104816,48.427061265563154,40
1800.0,83.00000000000001,81.71583559604157,73.17679807901654,77.771366122906,43.94446947313557,48.53903751702504,40
1850.0,82.7,81.40918284138152,72.76481163390112,77.4100831037431,43.99909973763842,48.644371207480404,40
1900.0,82.1,80.81113068503525,72.05647337335188,76.75301013008995,44.058120554945305,48.754657311683374,40
1950.0,81.5,80.11753864256904,71.22541104245799,75.94203370049405,44.175504942074994,48.89212760011105,40
2000.0,80.89999999999999,79.46229286463776,70.45247286099445,75.17419268799584,44.28810017664192,49.00982000364331,40
2060.0,80.59999999999998,79.12206732083514,70.03465239622962,74.71258817913147,44.40947914170367,49.087414924605525,40
2120.0,80.7,79.16926931720931,70.04210401121261,74.60801044072119,44.561258876488125,49.1271653059967,40
2180.0,81.0,79.44216107915612,70.29751112099846,74.76660120348944,44.67555987566668,49.14464995815766,40
2240.0,81.3,79.65323124544106,70.52341112263953,74.92234241815794,44.730888827283124,49.12982012280153,40
2300.0,81.60000000000001,79.97724146097976,70.90223807908195,75.21469976859053,44.76254169238922,49.0750033818978,40
2360.0,82.3,80.57946827819352,71.52395009107033,75.82533679348145,44.75413148471206,49.055518187123184,40
2400.0,82.7,80.91424596066979,71.90787999533057,76.18611143549562,44.72813452517417,49.006365965339214,40
2500.0,83.00000000000001,81.26642807298312,72.31324503923076,76.61986162684902,44.6465664461341,48.95318303375235,40
2580.0,83.5,81.74735552322664,72.81045497721394,77.16502406776485,44.5823314554618,48.93690054601271,40
2650.0,83.9,82.0210125741669,73.0816760839444,77.51646026437665,44.504552309790256,48.9393364902225,40
2720.0,83.9,82.03863947896151,73.15315894813509,77.60435281449362,44.43428666446789,48.88548053082643,40
2800.0,84.0,82.10494590608887,73.3016474944913,77.76263177434024,44.34231413174864,48.80329841159757,40
2900.0,83.8,82.00406800520213,73.3512925338148,77.79119493136399,44.21287307383814,48.65277547138733,40
3000.0,83.3,81.6155814379493,73.16675873016631,77.58050312638703,44.03507831156227,48.448822707782995,40
3070.0,83.00000000000001,81.54727756476939,73.27037976955845,77.63780215037775,43.909475414391636,48.27689779521094,40
3150.0,82.9,81.72968394691586,73.54683544213344,77.8630926087999,43.86659133811595,48.18284850478241,40
3250.0,82.6,81.79412747871841,73.72842194047882,77.9812929415253,43.81283453719311,48.065705538239584,40
3350.0,82.4,81.89282126675033,73.95837966792767,78.16410080962966,43.72872045712067,47.93444159882266,40
3450.0,82.2,82.15171083473116,74.35569738137441,78.51367245364153,43.63803838108963,47.79601345335675,40
3550.0,81.90000000000002,82.13229488311221,74.45249485306,78.55473017205027,43.57756471106194,47.679800030052206,40
3650.0,81.7,82.18297284049034,74.54871147515739,78.61297443855564,43.5699984019347,47.63426136533295,40
3750.0,81.5,82.11298436823489,74.53494976347523,78.55129765124781,43.56168671698708,47.578034604759665,40
3870.0,81.2,82.00322169029471,74.53913744842895,78.53550871336306,43.46771297693165,47.46408424186576,40
4000.0,80.89999999999999,81.73047844371423,74.3978779808575,78.39467491495786,43.33580352875637,47.33260046285673,40
4120.0,81.0,81.73028130760613,74.44154749812499,78.43324605322904,43.29703525437709,47.288733809481144,40
4250.0,81.2,81.68682628686062,74.37819346353798,78.39082139473645,43.296004892124174,47.30863282332264,40
4370.0,81.60000000000001,81.76902691554899,74.2959586748219,78.37783320724833,43.39119370830066,47.47306824072709,40
