Freq "On Axis"
22.4 57.522784810126595
23.0 58.62278481012659
23.6 59.62278481012659
24.0 60.32278481012658
25.0 61.32278481012658
25.8 62.22278481012658
26.5 63.22278481012658
27.2 64.42278481012659
28.0 65.32278481012658
29.0 66.12278481012659
30.0 66.82278481012658
30.7 67.52278481012658
31.5 68.12278481012659
32.5 68.82278481012658
33.5 69.5227848101266
34.5 70.42278481012659
35.5 71.02278481012657
36.5 71.62278481012659
37.5 72.12278481012659
38.7 72.62278481012659
40.0 73.22278481012658
41.2 73.72278481012658
42.5 74.22278481012658
43.7 74.62278481012659
45.0 74.92278481012657
46.2 75.32278481012658
47.5 75.62278481012659
48.7 75.82278481012658
50.0 76.02278481012657
51.5 76.22278481012658
53.0 76.42278481012659
54.5 76.52278481012658
56.0 76.72278481012658
58.0 76.92278481012659
60.0 77.12278481012659
61.5 77.42278481012657
63.0 77.82278481012658
65.0 78.32278481012658
67.0 78.82278481012658
69.0 79.42278481012659
71.0 80.22278481012658
73.0 80.9227848101266
75.0 81.62278481012659
77.5 82.22278481012658
80.0 82.52278481012658
82.5 82.72278481012658
85.0 82.92278481012659
87.5 83.02278481012658
90.0 83.4227848101266
92.5 83.82278481012658
95.0 84.32278481012658
97.5 84.82278481012658
100.0 85.12278481012659
103.0 85.52278481012658
106.0 85.72278481012658
109.0 85.9227848101266
112.0 86.22278481012658
115.0 86.42278481012659
118.0 86.52278481012658
122.0 86.52278481012658
125.0 86.52278481012658
128.0 86.52278481012658
132.0 86.52278481012658
136.0 86.62278481012659
140.0 86.62278481012659
145.0 86.52278481012658
150.0 86.42278481012659
155.0 86.32278481012658
160.0 86.32278481012658
165.0 86.42278481012659
170.0 86.62278481012659
175.0 86.72278481012658
180.0 86.72278481012658
185.0 86.72278481012658
190.0 86.72278481012658
195.0 86.62278481012659
200.0 86.42278481012659
206.0 86.22278481012658
212.0 86.02278481012657
218.0 85.82278481012658
224.0 85.82278481012658
230.0 86.02278481012657
236.0 86.12278481012659
240.0 86.02278481012657
250.0 85.9227848101266
258.0 85.72278481012658
265.0 85.42278481012659
272.0 85.22278481012658
280.0 84.82278481012658
290.0 84.22278481012658
300.0 83.82278481012658
307.0 83.62278481012659
315.0 83.4227848101266
325.0 83.22278481012658
335.0 83.02278481012658
345.0 82.72278481012658
355.0 82.42278481012657
365.0 82.32278481012658
375.0 82.62278481012659
387.0 82.72278481012658
400.0 82.82278481012658
412.0 82.92278481012659
425.0 83.4227848101266
437.0 83.92278481012659
450.0 84.22278481012658
462.0 84.42278481012659
475.0 84.5227848101266
487.0 84.62278481012659
500.0 84.72278481012658
515.0 84.82278481012658
530.0 84.82278481012658
545.0 84.62278481012659
560.0 84.42278481012659
580.0 84.22278481012658
600.0 84.02278481012658
615.0 83.72278481012658
630.0 83.52278481012657
650.0 83.32278481012658
670.0 83.32278481012658
690.0 83.52278481012657
710.0 83.92278481012659
730.0 84.12278481012659
750.0 84.32278481012658
775.0 84.5227848101266
800.0 84.72278481012658
825.0 84.72278481012658
850.0 84.82278481012658
875.0 85.02278481012658
900.0 84.92278481012657
925.0 84.62278481012659
950.0 84.42278481012659
975.0 84.12278481012659
1000.0 83.92278481012659
1030.0 83.52278481012657
1060.0 83.22278481012658
1090.0 82.82278481012658
1120.0 82.92278481012659
1150.0 83.12278481012659
1180.0 83.12278481012659
1220.0 83.12278481012659
1250.0 82.92278481012659
1280.0 83.02278481012658
1320.0 83.12278481012659
1360.0 83.22278481012658
1400.0 83.12278481012659
1450.0 83.12278481012659
1500.0 83.62278481012659
1550.0 84.22278481012658
1600.0 84.62278481012659
1650.0 84.72278481012658
1700.0 84.5227848101266
1750.0 84.32278481012658
1800.0 84.22278481012658
1850.0 83.92278481012659
1900.0 83.32278481012658
1950.0 82.72278481012658
2000.0 82.12278481012659
2060.0 81.82278481012658
2120.0 81.92278481012659
2180.0 82.22278481012658
2240.0 82.52278481012658
2300.0 82.82278481012658
2360.0 83.52278481012657
2400.0 83.92278481012659
2500.0 84.22278481012658
2580.0 84.72278481012658
2650.0 85.12278481012659
2720.0 85.12278481012659
2800.0 85.22278481012658
2900.0 85.02278481012658
3000.0 84.5227848101266
3070.0 84.22278481012658
3150.0 84.12278481012659
3250.0 83.82278481012658
3350.0 83.62278481012659
3450.0 83.4227848101266
3550.0 83.12278481012659
3650.0 82.92278481012659
3750.0 82.72278481012658
3870.0 82.42278481012657
4000.0 82.12278481012659
4120.0 82.22278481012658
4250.0 82.42278481012657
4370.0 82.82278481012658
4500.0 83.22278481012658
4620.0 83.62278481012659
4750.0 84.02278481012658
4870.0 84.42278481012659
5000.0 84.72278481012658
5150.0 84.62278481012659
5300.0 84.42278481012659
5450.0 84.02278481012658
5600.0 83.62278481012659
5800.0 83.22278481012658
6000.0 82.82278481012658
6150.0 81.92278481012659
6300.0 80.9227848101266
6500.0 80.52278481012658
6700.0 81.32278481012658
6900.0 82.62278481012659
7100.0 83.4227848101266
7300.0 84.22278481012658
7500.0 85.12278481012659
7750.0 85.82278481012658
8000.0 86.42278481012659
8250.0 86.82278481012658
8500.0 86.82278481012658
8750.0 86.62278481012659
9000.0 86.42278481012659
9250.0 86.62278481012659
9500.0 86.62278481012659
9750.0 86.32278481012658
10000.0 85.9227848101266
10300.0 85.62278481012659
10600.0 85.52278481012658
10900.0 85.82278481012658
11200.0 86.62278481012659
11500.0 86.42278481012659
11800.0 86.12278481012659
12200.0 85.9227848101266
12500.0 86.22278481012658
12800.0 86.12278481012659
13200.0 85.72278481012658
13600.0 84.82278481012658
14000.0 83.12278481012659
14500.0 81.92278481012659
15000.0 81.12278481012659
15500.0 80.02278481012658
16000.0 77.22278481012658
16500.0 74.62278481012659
17000.0 75.22278481012658
17500.0 76.22278481012658
18000.0 75.82278481012658
18500.0 78.12278481012659
19000.0 77.92278481012659
19500.0 77.82278481012658
