Freq,On Axis,Listening Window,Sound Power,Early Reflections,Early Reflections DI,Sound Power DI,DI offset
22.4,-65.1,-63.226536364622376,-62.263918429325685,-62.076489352272716,38.84995298765034,39.03738206470331,40
23.0,-61.29999999999998,-59.481923589873475,-58.44094318729378,-58.29475053317876,38.81282694330528,38.95901959742031,40
23.6,-58.29999999999998,-56.4483224384193,-55.34473740315292,-55.23601598516484,38.787693546745544,38.89641496473362,40
24.0,-56.099999999999994,-54.38347876472818,-53.24420197731007,-53.18365640663583,38.80017764190765,38.86072321258189,40
25.0,-55.0,-53.49006513130885,-52.29509130413595,-52.291477713422324,38.80141258211347,38.8050261728271,40
25.8,-53.29999999999998,-52.07333088990438,-50.857764976391906,-50.939737583455525,38.86640669355114,38.78443408648752,40
26.5,-53.20000000000002,-52.39820005665297,-51.26157366552508,-51.40094971796279,39.00274966130982,38.86337360887211,40
27.2,-53.400000000000006,-52.988133958758425,-51.91902290583022,-52.14195156704042,39.153817608282,38.93088894707179,40
28.0,-48.400000000000006,-48.50627423962328,-47.604090463330266,-47.91942891979076,39.41315468016748,39.097816223706985,40
29.0,-43.70000000000002,-44.372498202734505,-43.65463185865485,-44.04969191209679,39.677193709362285,39.28213365592035,40
30.0,-40.400000000000006,-41.60846699931983,-41.05803251062787,-41.53465583744506,39.92618883812523,39.44956551130804,40
30.7,-38.900000000000006,-40.58008092658267,-40.12289054643321,-40.65972618489687,40.0796452583142,39.542809619850544,40
31.5,-36.99999999999997,-39.01591236234023,-38.483727910377496,-39.01760930748543,40.0016969451452,39.467815548037265,40
32.5,-34.79999999999998,-37.01600492590006,-36.139957241216024,-36.62346502214726,39.607460096247195,39.12395231531596,40
33.5,-35.29999999999998,-37.356306618331416,-36.06165399032702,-36.486223917938474,39.12991729960706,38.7053473719956,40
34.5,-34.099999999999994,-35.74190433234671,-35.04907608343987,-35.33410693837223,39.59220260602552,39.307171751093165,40
35.5,-33.099999999999994,-34.36380165295324,-34.50357033997838,-34.59483894631077,40.23103729335753,40.13976868702514,40
36.5,-33.099999999999994,-34.135580408957,-34.850497893901064,-34.76518599130941,40.62960558235241,40.71491748494407,40
37.5,-31.599999999999994,-32.346979203763794,-33.42397968157178,-33.209789332621995,40.8628101288582,41.077000477807985,40
38.7,-28.400000000000006,-29.003712991083717,-30.299262703042217,-29.967522716633994,40.96380972555028,41.2955497119585,40
40.0,-26.0,-26.391870065864538,-27.80028439235798,-27.40128653959931,41.009416473734774,41.40841432649344,40
41.2,-21.700000000000017,-22.01608495081672,-23.527267741220896,-23.059005227972733,41.042920277156014,41.51118279040418,40
42.5,-17.5,-17.725601370941746,-19.265776761351077,-18.75899990394285,41.033398533001105,41.54017539040933,40
43.7,-12.900000000000006,-12.964502048316973,-14.50723948143525,-13.98423423989422,41.01973219157725,41.542737433118276,40
45.0,-7.400000000000006,-7.3887095796499125,-8.911439613621923,-8.384512225614742,40.99580264596483,41.52273003397201,40
46.2,-2.200000000000017,-2.1813596653280456,-3.6296122594047233,-3.1120403819567457,40.9306807166287,41.44825259407668,40
47.5,3.799999999999983,3.919859962962022,2.5930023126367416,3.066251785998162,40.85360817696386,41.32685765032528,40
48.7,9.200000000000017,9.337026393458217,8.180014191519803,8.59301847603038,40.74400791742784,41.157012201938414,40
50.0,14.5,14.621963040669584,13.693039511482112,13.988872181604677,40.63309085906491,40.92892352918747,40
51.5,19.700000000000017,19.827200353185475,19.198053609304935,19.372475938419996,40.45472441476548,40.62914674388054,40
53.0,25.200000000000017,25.193615559630274,24.80746573160755,24.87724642740389,40.316369132226384,40.386149828022724,40
54.5,29.599999999999994,29.34322794971763,29.08476184166301,29.10602766686887,40.23720028284876,40.25846610805462,40
56.0,32.599999999999994,32.11374705922523,31.82066327109311,31.868445173732994,40.24530188549224,40.29308378813212,40
58.0,35.400000000000006,34.8145055754039,34.32841107812308,34.48813679553504,40.32636877986886,40.48609449728082,40
60.0,38.20000000000002,37.595719489412346,36.907903957499485,37.18272696272254,40.412992526689806,40.68781553191286,40
61.5,40.70000000000002,40.173516345860804,39.29632569463436,39.67416635807348,40.499349987787326,40.87719065122644,40
63.0,43.20000000000002,42.781736185554024,41.74435922776789,42.22556446551661,40.55617172003741,41.03737695778614,40
65.0,46.20000000000002,45.91151842269298,44.76872011493526,45.3176527701288,40.593865652564176,41.142798307757715,40
67.0,49.79999999999998,49.50677810062379,48.2971335346237,48.90466072466134,40.60211737596245,41.209644566000094,40
69.0,53.20000000000002,53.026130581712636,51.792275880572106,52.426767411657096,40.59936317005554,41.23385470114053,40
71.0,56.79999999999998,56.606016535844645,55.36713326696204,56.01844162680581,40.587574909038835,41.2388832688826,40
73.0,60.900000000000006,60.769950629411056,59.543114097581,60.20234860509173,40.56760202431933,41.22683653183006,40
75.0,64.6,64.48204805050541,63.28502080163531,63.927092124200385,40.55495592630503,41.1970272488701,40
77.5,68.1,68.07549648249301,66.95974990540049,67.57596284173007,40.499533640762934,41.11574657709252,40
80.0,72.0,71.91351712789091,70.84442655069954,71.40598902915556,40.50752809873535,41.069090577191375,40
82.5,75.2,75.14413250549536,74.1219559022669,74.64228206507471,40.501850440420654,41.02217660322846,40
85.0,78.0,77.95550315250959,76.94952775249132,77.42740184978993,40.52810130271966,41.00597540001827,40
87.5,80.3,80.22700292008264,79.2255862524413,79.69869971011288,40.52830320996976,41.00141666764134,40
90.0,81.9,81.77950687011969,80.71573602456411,81.21043408631729,40.5690727838024,41.06377084555558,40
92.5,83.0,82.87849019712911,81.78520811086102,82.29666001621727,40.58183018091184,41.09328208626809,40
95.0,83.7,83.61199695642736,82.46929979735536,83.00193758824724,40.61005936818012,41.142697159072,40
97.5,84.0,83.91250722304116,82.73779972256524,83.30664266711575,40.60586455592541,41.17470750047592,40
100.0,83.8,83.81250722304115,82.61415001289143,83.20713118583018,40.60537603721097,41.19835721014972,40
103.0,83.20000000000002,83.19003378352643,82.00088733794405,82.59738407500222,40.592649708524206,41.18914644558238,40
106.0,82.1,82.09003378352644,80.92498757659313,81.51815357338089,40.57188021014555,41.16504620693331,40
109.0,81.0,80.96717965375996,79.76530938278756,80.36224692593154,40.60493272782841,41.20187027097239,40
112.0,80.1,80.08925841531061,78.87712869033568,79.49239932829548,40.59685908701513,41.21212972497493,40
115.0,79.9,79.80051167804048,78.58741968772995,79.20011285238414,40.60039882565634,41.21309199031053,40
118.0,80.2,80.08951489542682,78.83733119508523,79.459279147197,40.63023574822982,41.25218370034159,40
122.0,80.70000000000002,80.64523538608283,79.36007431331777,80.00692038795805,40.638314998124784,41.285161072765064,40
125.0,81.2,81.11199101325602,79.83104949274212,80.46421643812744,40.64777457512858,41.28094152051389,40
128.0,81.4,81.28951489542683,80.02580463011006,80.65167542313246,40.637839472294374,41.263710265316774,40
132.0,81.2,81.18925841531062,79.96209166016375,80.57529148115734,40.61396693415328,41.22716675514687,40
136.0,81.0,80.98925841531062,79.75596944894069,80.35411507744976,40.63514333786085,41.233288966369926,40
140.0,80.79999999999998,80.76717965375995,79.52905953878717,80.13417945507952,40.633000198680435,41.23812011497279,40
145.0,80.79999999999998,80.76692185116049,79.51077595515574,80.13133735602673,40.635584495133756,41.25614589600475,40
150.0,81.0,80.9669218511605,79.64938782738666,80.29172564370114,40.675196207459365,41.317534023773845,40
155.0,81.3,81.2669218511605,79.92848306154687,80.5986959564864,40.66822589467411,41.33843878961363,40
160.0,81.6,81.5007674944556,80.1184163907286,80.79958516902707,40.70118232542853,41.382351103727004,40
165.0,81.5,81.46692185116049,80.07101112358616,80.74793839257714,40.71898345858335,41.39591072757433,40
170.0,81.3,81.20076749445562,79.8485559228491,80.51134786177258,40.68941963268304,41.35221157160652,40
175.0,81.0,80.90076749445562,79.51635457096839,80.18506722166212,40.7157002727935,41.38441292348723,40
180.0,80.70000000000002,80.66692185116051,79.22041922293931,79.92513787883698,40.74178397232353,41.4465026282212,40
185.0,80.70000000000002,80.66692185116051,79.15237486181123,79.90169971799124,40.765222133169274,41.514546989349284,40
190.0,80.9,80.84523538608283,79.21185094489249,80.01352807320129,40.83170731288155,41.633384441190344,40
195.0,81.0,80.94523538608283,79.29934132406869,80.12001744368779,40.82521794239504,41.645894062014136,40
200.0,81.1,81.02293110248064,79.30492062115172,80.12855892999931,40.894372172481326,41.71801048132892,40
206.0,81.1,80.96794123556501,79.25532188743335,80.08593149547943,40.88200974008558,41.71261934813165,40
212.0,81.1,81.02293110248064,79.23650688948248,80.08202817251987,40.94090292996077,41.786424212998156,40
218.0,81.3,81.2015232095018,79.31298802860601,80.20633108634723,40.99519212315457,41.888535180895786,40
224.0,81.7,81.6015232095018,79.61345471618775,80.56367466827102,41.03784854123079,41.98806849331406,40
230.0,82.1,81.967941235565,79.88737869482208,80.8700715589093,41.09786967665569,42.08056254074292,40
236.0,82.19999999999999,82.1239374262086,79.95898775339404,80.97258567839133,41.15135174781727,42.16494967281456,40
240.0,82.0,81.92393742620861,79.66821459138852,80.72125355718863,41.20268386901998,42.25572283482009,40
250.0,81.6,81.467941235565,79.06757385280923,80.18272373221623,41.28521750334876,42.40036738275576,40
258.0,81.1,80.93536100122722,78.40087742986351,79.57752320650937,41.35783779471785,42.53448357136371,40
265.0,80.6,80.51299987486317,77.82585536821396,79.06565633963402,41.44734353522915,42.687144506649204,40
272.0,80.6,80.41326089819486,77.58683581940466,78.89251071212381,41.520750186071055,42.82642507879021,40
280.0,80.9,80.79103595020584,77.77951665893093,79.16564493975983,41.62539101044601,43.01151929127491,40
290.0,81.5,81.30254628208523,78.17545867455445,79.64631545645477,41.65623082563046,43.12708760753078,40
300.0,82.19999999999999,82.08001511737862,78.75199326000816,80.31985245069525,41.76016266668337,43.32802185737046,40
307.0,82.9,82.7694641321423,79.2990076350704,80.93557853031466,41.833885601827646,43.47045649707191,40
315.0,83.1,83.03537268921484,79.49413661770856,81.17590896530287,41.85946372391197,43.541236071506276,40
325.0,83.0,82.89103024706179,79.2983624125182,81.0108714454949,41.88015880156689,43.59266783454359,40
335.0,82.7,82.61402051512339,78.94526745319106,80.71164967003071,41.902370845092676,43.66875306193232,40
345.0,82.4,82.37975235763257,78.6897645011758,80.48149051758372,41.898261840048846,43.68998785645677,40
355.0,82.3,82.21249547335428,78.47837999122557,80.27675848661649,41.935736986737794,43.734115482128715,40
365.0,81.9,81.79103595020584,78.01673572850132,79.8252295236457,41.965806426560135,43.77430022170452,40
375.0,81.2,81.04574765970298,77.18257968704482,79.05363133747333,41.99211632222965,43.86316797265816,40
387.0,80.1,79.9020406649343,75.97699352402685,77.8862871920461,42.01575347288821,43.92504714090745,40
400.0,79.1,78.88002695526927,74.91627326349666,76.83786287341181,42.042164081857464,43.96375369177261,40
412.0,79.0,78.72626845632203,74.63959025385316,76.60255931916748,42.12370913715455,44.086678202468875,40
425.0,79.30000000000001,79.04804960212527,74.9006387343216,76.86226851270331,42.185781089421965,44.14741086780367,40
437.0,79.9,79.64804960212527,75.44093300819421,77.41956113617661,42.22848846594866,44.20711659393106,40
450.0,80.6,80.3260024244545,75.94636538312031,77.99033702835993,42.33566539609457,44.37963704133419,40
462.0,81.2,80.9482909804802,76.46177861791182,78.54770974201413,42.40058123846606,44.48651236256838,40
475.0,82.0,81.68333909343386,77.09175007458364,79.23346032219354,42.44987877124032,44.591589018850215,40
487.0,82.8,82.48333909343386,77.72542730653294,79.91812262044964,42.56521647298422,44.75791178690092,40
500.0,83.5,83.18614787986763,78.3093285575047,80.54358819494962,42.64255968491801,44.876819322362934,40
515.0,83.9,83.52040181961348,78.44920289195966,80.72783831905119,42.792563500562295,45.071198927653825,40
530.0,84.0,83.52443974540958,78.24008767320043,80.58556014836238,42.938879597047205,45.284352072209145,40
545.0,83.9,83.42704378999737,77.96925704641663,80.3617046954838,43.065339094513575,45.45778674358074,40
560.0,84.0,83.52704378999736,77.88575536198684,80.31776515186323,43.20927863813414,45.641288428010526,40
580.0,84.6,84.1153313279369,78.34122535509286,80.8051014862067,43.310229841730205,45.77410597284404,40
600.0,85.2,84.67852721780692,78.84384477177856,81.3064883835339,43.37203883427301,45.83468244602835,40
615.0,85.2,84.83219426252798,79.01448884347285,81.44458254077075,43.387611721757224,45.81770541905513,40
630.0,84.9,84.5534406213663,78.862487540412,81.1855686581804,43.367871963185905,45.6909530809543,40
650.0,84.0,83.62958199680116,77.97098126116377,80.21896866799703,43.41061332880413,45.65860073563739,40
670.0,83.20000000000002,82.87609175449222,77.2452134784422,79.43013554504313,43.44595620944909,45.630878276050026,40
690.0,83.29999999999998,82.86756789535542,77.26712137471769,79.45526751047001,43.41230038488541,45.60044652063773,40
710.0,83.9,83.4208177164573,77.62930276850383,79.9659582323662,43.45485948409109,45.79151494795346,40
730.0,85.0,84.51419029802783,78.40400711964628,80.92204772931595,43.59214256871188,46.11018317838155,40
750.0,86.0,85.51313389399904,79.0562367560784,81.70311989380953,43.81001400018951,46.456897137920635,40
775.0,86.2,85.75448843092174,79.01653671047167,81.76043148507716,43.99405694584458,46.73795172045007,40
800.0,85.6,85.17486417822647,78.24385887983395,81.07765782962514,44.09720634860133,46.93100529839252,40
825.0,84.6,84.28453664744272,77.20449353923298,80.17013966623115,44.11439698121157,47.080043108209736,40
850.0,83.6,83.2864111337984,76.04298996850483,79.22632341028799,44.06008772351041,47.24342116529357,40
875.0,83.5,83.22543454287039,76.08869007682247,79.43297558326753,43.792458959602854,47.136744466047915,40
900.0,83.6,83.33969398371156,76.46409473214268,79.93524880928189,43.40444517442967,46.87559925156887,40
925.0,82.9,82.61561350641861,76.00856518265778,79.63977950107781,42.9758340053408,46.607048323760836,40
950.0,83.0,82.61833517526503,76.37980328566798,80.19729075345356,42.42104442181147,46.238531889597056,40
975.0,83.20000000000002,82.90829114059707,77.76464102028788,81.6055699237594,41.30272121683767,45.14365012030919,40
1000.0,84.2,83.8322086445491,79.7078353961226,83.33209305105837,40.50011559349073,44.124373248426494,40
1030.0,85.0,84.35555437366905,80.80692500976146,84.0876309948524,40.26792337881665,43.548629363907594,40
1060.0,84.2,83.39741689434612,80.1859259934315,83.13595171129434,40.26146518305178,43.211490900914626,40
1090.0,82.8,81.66795782621533,78.09835137799108,81.01388070001593,40.6540771261994,43.56960644822425,40
1120.0,81.0,80.0392804053738,76.19767634638453,79.27613278836242,40.763147617011384,43.841604058989276,40
1150.0,79.4,78.52802509567925,75.4282483638104,78.409673033316,40.11835206236326,43.09977673186886,40
1180.0,78.9,77.99499492052105,74.85307219148224,77.73499073771485,40.2600041828062,43.14192272903881,40
1220.0,79.6,78.75763084129848,74.88057141562355,77.8138198653721,40.94381097592638,43.87705942567493,40
1250.0,80.9,80.10755847045479,75.76074220457063,78.83689624805311,41.27066222240168,44.34681626588416,40
1280.0,82.0,81.29045739900958,76.92490319066023,80.14402472583124,41.14643267317834,44.36555420834935,40
1320.0,82.3,81.47925479959311,76.84846914423662,80.13876600697108,41.340488792622025,44.63078565535649,40
1360.0,82.1,81.3389011642557,76.13848137064437,79.51473406641304,41.82416709784266,45.20041979361133,40
1400.0,82.1,81.34844855942598,75.8271337049533,79.23835532284309,42.110093236582884,45.52131485447268,40
1450.0,82.19999999999999,81.54570619597105,75.41948085879582,79.0051673950087,42.54053880096235,46.12622533717523,40
1500.0,82.5,81.91426172174042,75.86618005698898,79.312076048415,42.60218567332542,46.048081664751436,40
1550.0,81.80000000000001,81.1747937596148,74.57654855477182,78.1327138996505,43.0420798599643,46.59824520484298,40
1600.0,80.5,79.77912867595828,72.85191420375074,76.5300141294898,43.249114546468476,46.92721447220754,40
1650.0,79.9,79.19067056765081,72.49671823155012,76.17243306030095,43.018237507349866,46.69395233610069,40
1700.0,80.6,79.62407750115635,72.30258517441021,76.38145898265958,43.24261851849677,47.32149232674614,40
1750.0,81.5,80.63466548681318,73.20229021520751,77.19589316139097,43.43877232542221,47.432375271605665,40
1800.0,82.0,81.35120801291171,73.89970152320433,77.62685218816631,43.7243558247454,47.451506489707384,40
1850.0,82.19999999999999,81.39119575850304,73.16296009213322,77.13378999057572,44.257405767927324,48.22823566636983,40
1900.0,82.0,81.10412941282446,72.97151844558589,76.81029242220608,44.29383699061839,48.13261096723858,40
1950.0,81.80000000000001,80.78634300640425,72.24989520461084,76.26065698209587,44.525686024308385,48.536447801793415,40
2000.0,81.0,79.94115676709082,71.2857420804711,75.27238895076505,44.66876781632577,48.65541468661972,40
2060.0,81.0,79.91490805772371,71.6233333539347,75.41883066603602,44.49607739168769,48.29157470378901,40
2120.0,81.4,80.36612490200224,71.58783527036651,75.59646739564084,44.7696575063614,48.77828963163573,40
2180.0,81.2,80.36517771729802,72.02024397796961,75.87461475639611,44.49056296090191,48.34493373932841,40
2240.0,81.80000000000001,80.77855500061132,71.71614270206275,75.97119755849982,44.807357442111496,49.062412298548566,40
2300.0,82.19999999999999,81.13960230622126,72.45020162853042,76.5826305909847,44.55697171523656,48.68940067769084,40
2360.0,81.7,80.47219693386438,71.20631284649349,75.7196887845034,44.75250814936098,49.26588408737089,40
2400.0,81.9,80.4471502980561,71.33148709648097,75.64056193083482,44.80658836722128,49.11566320157513,40
2500.0,82.8,81.32599470891448,71.66351109711995,76.31246556623788,45.0135291426766,49.66248361179453,40
2580.0,82.7,80.89222889219418,72.16486676017577,76.03054714923114,44.86168174296304,48.72736213201841,40
2650.0,81.9,80.44044251304825,71.28234637377848,75.43123712659039,45.009205386457865,49.15809613926977,40
2720.0,81.2,79.86676387271854,72.04191577935744,75.50332961026731,44.36343426245122,47.8248480933611,40
2800.0,80.1,78.82746424029384,70.64535188871156,74.29367077117672,44.533793469117114,48.182112351582276,40
2900.0,79.8,78.83033007359063,71.61685934567343,75.01394085777281,43.81638921581782,47.2134707279172,40
3000.0,80.79999999999998,79.70172126648333,72.52519308038372,75.86302227594061,43.838698990542724,47.17652818609962,40
3070.0,81.3,80.56223747697243,73.44902867412854,76.93319720415941,43.629040272813015,47.113208802843886,40
3150.0,80.6,80.08570190777613,73.27804695833092,76.671539780284,43.41416212749213,46.80765494944521,40
3250.0,80.4,80.11112255598454,73.39119849281258,76.83256594842062,43.278556607563914,46.71992406317196,40
3350.0,79.9,79.70728573480982,73.03281409624033,76.3910680081575,43.31621772665231,46.674471638569486,40
3450.0,81.0,81.3629084884894,74.98355645080542,78.18981191498393,43.17309657350546,46.37935203768397,40
3550.0,82.1,82.39650832724558,75.78332651632228,79.16653573504578,43.2299725921998,46.61318181092331,40
3650.0,81.6,82.13062145153084,75.30759761104154,78.94815685880994,43.182464592720905,46.8230238404893,40
3750.0,81.0,81.65982329387148,74.90401434680687,78.58386258680986,43.075960707061625,46.75580894706461,40
3870.0,80.0,80.87843350774256,74.26814244032934,77.83593379011339,43.04249971762917,46.610291067413215,40
4000.0,79.8,80.9157071060462,74.18120514885626,77.72225795119486,43.193449154851336,46.734501957189934,40
4120.0,80.79999999999998,82.24392111947503,75.16768695334781,78.83310097387113,43.41082014560391,47.07623416612722,40
