Freq "On Axis"
22.4 -65.1
23.0 -61.30000000000001
23.6 -58.30000000000001
24.0 -56.099999999999966
25.0 -55.0
25.8 -53.30000000000001
26.5 -53.19999999999999
27.2 -53.400000000000034
28.0 -48.400000000000034
29.0 -43.69999999999999
30.0 -40.400000000000006
30.7 -38.89999999999998
31.5 -37.0
32.5 -34.80000000000001
33.5 -35.30000000000001
34.5 -34.099999999999994
35.5 -33.10000000000002
36.5 -33.10000000000002
37.5 -31.599999999999994
38.7 -28.400000000000034
40.0 -26.0
41.2 -21.69999999999999
42.5 -17.5
43.7 -12.900000000000006
45.0 -7.400000000000006
46.2 -2.1999999999999886
47.5 3.8000000000000114
48.7 9.199999999999989
50.0 14.5
51.5 19.69999999999999
53.0 25.19999999999999
54.5 29.599999999999994
56.0 32.599999999999994
58.0 35.400000000000006
60.0 38.19999999999999
61.5 40.69999999999999
63.0 43.19999999999999
65.0 46.19999999999999
67.0 49.80000000000001
69.0 53.19999999999999
71.0 56.80000000000001
73.0 60.900000000000006
75.0 64.6
77.5 68.1
80.0 72.0
82.5 75.20000000000002
85.0 78.0
87.5 80.29999999999998
90.0 81.9
92.5 83.0
95.0 83.7
97.5 84.0
100.0 83.80000000000001
103.0 83.2
106.0 82.1
109.0 81.0
112.0 80.1
115.0 79.9
118.0 80.20000000000002
122.0 80.7
125.0 81.2
128.0 81.4
132.0 81.2
136.0 81.0
140.0 80.8
145.0 80.8
150.0 81.0
155.0 81.30000000000001
160.0 81.6
165.0 81.5
170.0 81.30000000000001
175.0 81.0
180.0 80.7
185.0 80.7
190.0 80.9
195.0 81.0
200.0 81.1
206.0 81.1
212.0 81.1
218.0 81.30000000000001
224.0 81.69999999999999
230.0 82.1
236.0 82.2
240.0 82.0
250.0 81.6
258.0 81.1
265.0 80.6
272.0 80.6
280.0 80.9
290.0 81.5
300.0 82.2
307.0 82.9
315.0 83.1
325.0 83.0
335.0 82.70000000000002
345.0 82.4
355.0 82.3
365.0 81.9
375.0 81.2
387.0 80.1
400.0 79.1
412.0 79.0
425.0 79.3
437.0 79.9
450.0 80.6
462.0 81.2
475.0 82.0
487.0 82.79999999999998
500.0 83.5
515.0 83.9
530.0 84.0
545.0 83.9
560.0 84.0
580.0 84.6
600.0 85.20000000000002
615.0 85.20000000000002
630.0 84.9
650.0 84.0
670.0 83.2
690.0 83.3
710.0 83.9
730.0 85.0
750.0 86.0
775.0 86.2
800.0 85.6
825.0 84.6
850.0 83.6
875.0 83.5
900.0 83.6
925.0 82.9
950.0 83.0
975.0 83.2
1000.0 84.19999999999999
1030.0 85.0
1060.0 84.19999999999999
1090.0 82.79999999999998
1120.0 81.0
1150.0 79.4
1180.0 78.9
1220.0 79.6
1250.0 80.9
1280.0 82.0
1320.0 82.3
1360.0 82.1
1400.0 82.1
1450.0 82.2
1500.0 82.5
1550.0 81.8
1600.0 80.5
1650.0 79.9
1700.0 80.6
1750.0 81.5
1800.0 82.0
1850.0 82.2
1900.0 82.0
1950.0 81.8
2000.0 81.0
2060.0 81.0
2120.0 81.4
2180.0 81.2
2240.0 81.8
2300.0 82.2
2360.0 81.69999999999999
2400.0 81.9
2500.0 82.79999999999998
2580.0 82.70000000000002
2650.0 81.9
2720.0 81.2
2800.0 80.1
2900.0 79.8
3000.0 80.8
3070.0 81.30000000000001
3150.0 80.6
3250.0 80.4
3350.0 79.9
3450.0 81.0
3550.0 82.1
3650.0 81.6
3750.0 81.0
3870.0 80.0
4000.0 79.8
4120.0 80.8
4250.0 80.8
4370.0 79.5
4500.0 80.29999999999998
4620.0 81.0
4750.0 80.7
4870.0 82.0
5000.0 82.9
5150.0 81.6
5300.0 81.2
5450.0 82.3
5600.0 82.5
5800.0 84.3
6000.0 84.9
6150.0 84.4
6300.0 84.5
6500.0 83.4
6700.0 83.9
6900.0 84.5
7100.0 84.9
7300.0 84.9
7500.0 83.1
7750.0 82.4
8000.0 82.4
8250.0 81.9
8500.0 83.0
8750.0 82.79999999999998
9000.0 82.2
9250.0 82.4
9500.0 82.0
9750.0 82.2
10000.0 83.6
10300.0 84.9
10600.0 86.30000000000001
10900.0 88.0
11200.0 88.7
11500.0 88.80000000000001
11800.0 88.3
12200.0 87.2
12500.0 85.4
12800.0 83.9
13200.0 84.19999999999999
13600.0 84.8
14000.0 86.2
14500.0 88.5
15000.0 89.19999999999999
15500.0 88.2
16000.0 89.19999999999999
16500.0 90.4
17000.0 88.7
17500.0 85.1
18000.0 79.19999999999999
18500.0 67.9
19000.0 64.7
19500.0 67.6
