Freq,Floor Bounce,Ceiling Bounce,Front Wall Bounce,Side Wall Bounce,Rear Wall Bounce,Total Early Reflection
22.4,21.336635756671896,17.904735301185767,20.823490867811742,18.823208845846736,20.984531080672056,20.173284562109544
23.0,29.90076749445562,27.96769521305295,29.403595074938934,28.35987150732585,31.09268832840219,29.49089963972706
23.6,40.76692185116049,39.403069571042536,40.445100934728245,39.629017917461184,40.34407915265972,40.147910263920934
24.0,48.06692185116053,47.035130591779804,47.81508314243884,47.25468553817932,47.63094155588395,47.576511974448536
25.0,54.3,53.335130591779816,54.04346508697897,53.55445284805187,53.575341067310646,53.77629591357852
25.8,59.23358982687998,58.33513059177983,59.02913392494288,58.54373518542292,58.30242904017578,58.705259839265764
26.5,63.133589826879984,62.368450838054315,62.943465086978975,62.553510870437464,62.210998084594664,62.65590876492186
27.2,66.2,65.56845083805432,66.05742449135815,65.72202373386214,65.32148884003324,65.78564617478969
28.0,68.6669218511605,68.10076749445561,68.52880715674527,68.261427071536,67.77524773019249,68.27802183835003
29.0,70.8,70.30076749445563,70.67166275391891,70.45120879385057,69.94470528124603,70.44387790304698
30.0,72.49999999999999,72.1669218511605,72.40000000000002,72.24096641742587,71.72958141968434,72.21550271959254
30.7,73.7669218511605,73.50076749445562,73.7,73.55051542854766,73.02056424853411,73.51549830431837
31.5,74.83358982687999,74.60076749445561,74.78585448910236,74.65051542854768,74.07489262438504,74.59736897624053
32.5,75.63358982687997,75.43358982687998,75.6,75.50046051294916,74.94464682135185,75.42944390219989
33.5,76.3669218511605,76.23358982687998,76.3,76.28041467447777,75.6766997855203,76.1785899712387
34.5,76.93358982687998,76.83358982687999,76.9,76.86027588070904,76.28230130574603,76.76852803620253
35.5,77.40000000000002,77.33358982687999,77.35742449135816,77.36027588070905,76.80401595048669,77.25671942672382
36.5,77.7669218511605,77.73358982687998,77.74313939533782,77.74027672897047,77.23468478562549,77.64843995552685
37.5,78.03358982687998,77.9669218511605,78.02880715674529,78.0204142502958,77.46645297738918,77.9086577213328
38.7,78.3,78.23358982687996,78.27199384997417,78.28087726877558,77.70984453283005,78.16497955997603
40.0,78.56692185116049,78.4669218511605,78.45775667464532,78.50115119082695,77.94805299076579,78.39376872927026
41.2,78.7669218511605,78.63358982687997,78.68651449586095,78.69102606024003,78.07460418332883,78.57762259278746
42.5,79.03358982687998,78.93358982687997,78.97199384997417,78.96188640488762,78.30118335227074,78.84868641797176
43.7,79.43358982687998,79.30076749445563,79.37199384997416,79.3516692091576,78.6608215725962,79.23281040291411
45.0,79.93358982687998,79.83358982687999,79.88651449586095,79.8516692091576,79.16899272014734,79.74392705721904
46.2,80.53358982687998,80.43358982687998,80.47199384997417,80.46142707153601,79.84732149881263,80.35676264783184
47.5,81.1669218511605,81.06692185116049,81.14313939533781,81.0808772687756,80.47280359878066,80.99365866915261
48.7,81.7,81.63358982687998,81.67166275391891,81.61056369748752,81.05447176271149,81.5406072784807
50.0,82.2,82.10076749445561,82.2,82.11056369748754,81.53313743368346,82.03597808941043
51.5,82.7,82.56692185116049,82.68585448910238,82.50114595065784,81.83829784363051,82.46977368445175
53.0,83.0,82.80076749445563,82.95742449135814,82.74165080484813,82.06183581790293,82.72515023454282
54.5,83.1,82.93358982687998,83.11508314243883,82.89217987656872,82.173072951605,82.85612608369455
56.0,83.2,83.03358982687998,83.20130813607778,82.95445284805187,82.18741782465251,82.93106444940646
58.0,83.1669218511605,83.0669218511605,83.2157312616482,82.90624703116804,82.11747054477787,82.91260751349314
60.0,83.13358982687997,83.00076749445562,83.20130813607778,82.84671626119909,82.02884894973282,82.86216371313928
61.5,83.03358982687998,82.90076749445562,83.11573126164821,82.7266064308213,81.83316091131654,82.74563439815248
63.0,82.90076749445562,82.70076749445562,83.00227231096949,82.52137140050844,81.57009230595831,82.56789099780934
65.0,82.8669218511605,82.50076749445562,82.90227231096948,82.35494411012645,81.33290591323257,82.42720105973456
67.0,82.70076749445562,82.30076749445561,82.75872300649021,82.11380965516715,81.03192036639308,82.22382646864749
69.0,82.50076749445562,82.10076749445561,82.54346508697897,81.85218617657488,80.63753337967186,81.97932716215108
71.0,82.36845083805433,81.80306957104251,82.42979499755906,81.61627156313877,80.28167686878653,81.76524839834723
73.0,82.26845083805433,81.53821129888743,82.33044092512276,81.40959089914391,79.97261772309086,81.5826065668631
75.0,81.96845083805432,81.20306957104252,82.04510093472827,81.11900068910909,79.722069818401,81.28783966916441
77.5,81.76845083805433,80.9069050103546,81.8317328344666,80.84550634218064,79.43817427763041,81.04013947411524
80.0,81.50306957104252,80.50690501035459,81.57555996882539,80.47870944055215,78.89717480149469,80.69441803133374
82.5,81.40306957104252,80.24283030471975,81.44764637045125,80.31771470285032,78.43496823239265,80.49822616302076
85.0,81.20306957104252,79.9122717831562,81.26066292152854,80.20135268130412,78.04182574165323,80.26983167468977
87.5,80.77150800786937,79.51227178315618,80.88813421139209,79.78230236838496,77.5397636183461,79.85310611549865
90.0,80.47150800786939,79.18219967332304,80.58748929892042,79.39453415821798,77.2687308238954,79.53367366090866
92.5,80.07150800786938,78.71916705502753,80.1739424030403,78.85391604395967,76.60710077570194,79.06113556109071
95.0,79.60306957104252,78.31916705502753,79.74607766783814,78.31471799513335,75.92035511498618,78.57837505247211
97.5,79.03821129888743,77.71916705502754,79.17525122642456,77.6918825431004,75.14372177640882,77.97190702285225
100.0,78.63821129888743,77.28982856673473,78.78946128786868,77.35117830950789,74.6374561875393,77.57039268771916
103.0,78.47150800786937,77.28982856673473,78.70454428904085,77.24056695244339,74.57322768631637,77.47806558396799
106.0,79.2069050103546,78.21916705502754,79.50454428904085,78.0918289936835,75.4865239857575,78.30850549962607
109.0,80.4760917544922,79.68219967332304,80.96167411306028,79.44711526866165,76.63599421105448,79.67034400866521
112.0,82.18219967332304,81.1566725593005,82.74931870409932,81.19812332006519,78.0761656935999,81.33611111509232
115.0,82.68219967332304,81.56588846059687,83.26325933618237,81.59946694842876,78.4555840630885,81.79239059114211
118.0,82.61916705502753,81.56588846059687,83.2477056434894,81.42657691508235,78.08078399341908,81.7060870439286
122.0,81.85260953202219,80.93752777300028,82.57753738070313,80.72864692484822,77.05156411940801,80.98513110586917
125.0,81.28982856673471,80.43752777300027,82.11998423401444,80.21258427279385,76.29553487177172,80.45901626743692
128.0,80.66096514237182,79.77082970284297,81.50454428904085,79.69283568409624,75.30001885247175,79.82050631285612
132.0,80.08982856673472,79.1096325668162,80.8923180901115,79.21424254524577,74.83078934244544,79.24513832158853
136.0,79.48982856673472,78.4096325668162,80.24831996303516,78.6421458490861,74.57176828230126,78.64441311532174
140.0,79.18982856673473,78.2096325668162,80.00489499373622,78.26129594100496,74.29046797372503,78.36546163886821
145.0,79.06096514237184,78.28219812790056,80.00812322241333,78.07455671496952,74.10267186378684,78.29924525629274
150.0,78.99897445130925,78.4096325668162,80.0496365298453,78.05947036590003,73.83091300615924,78.29979628147737
155.0,78.93752777300027,78.50963256681621,80.10392374556776,78.20416350538353,73.53120198312095,78.32959953229631
160.0,78.97082970284298,78.60963256681619,80.0762292462144,78.24839638829137,73.39747265939155,78.34993723331947
165.0,79.1096325668162,78.43752777300028,80.16391523505612,78.30785412999194,73.21225817641651,78.37305741428193
170.0,79.48219812790055,78.56194867563767,80.66457138257435,78.69391577802192,73.47461593823998,78.73194245583484
175.0,79.85521969308378,78.86194867563766,81.14933300911412,79.15777186001797,73.86941095350888,79.14567213481946
180.0,79.85521969308378,79.03546263134683,81.23628240487206,79.28577022888797,73.74828553849649,79.22493690748492
185.0,79.48219812790055,79.13546263134681,80.96264712636356,79.05294135057085,73.8465864593612,79.03283745976755
190.0,79.30963256681619,79.18219812790055,80.79073576156004,78.93481667223831,73.88502716343831,78.93008223785851
195.0,79.24898359150842,79.13752777300029,80.79332979173266,78.89054276746297,73.57679880661917,78.88058913440044
200.0,79.33546263134683,79.14898359150843,81.09009840257404,79.23156286704769,73.42716119601475,79.05629896375297
206.0,79.36726558859611,79.16194867563765,81.34256281437963,79.51430449690929,73.45749993178143,79.20860072774371
212.0,79.10982855556756,79.05062128010364,81.37413203945691,79.38159568903413,73.60672173912465,79.12458220536841
218.0,78.70982855556755,78.9672655885961,81.16653957825424,79.19273848870725,73.15628739428956,78.8949264214435
224.0,78.33469773360899,78.9672655885961,80.94931870409933,79.1426822384528,72.81817462036256,78.72318608421055
230.0,78.392378988098,79.0252645392885,80.86491864863072,79.0235430845293,72.50894685168392,78.67678657235847
236.0,78.492378988098,79.092378988098,80.96054334894642,78.96556798555581,72.70524826122292,78.73917730025337
240.0,78.47641629732153,78.992378988098,80.85735554182637,78.77569239362936,72.62333688206044,78.63630818951125
250.0,78.32934077441656,78.95062128010365,80.63924275721992,78.68249588288359,72.44399288896841,78.4984516166905
258.0,78.31627783177747,79.17641629732152,80.57949971036133,78.92685561609791,72.71142549795378,78.59305138914775
265.0,78.72934077441654,79.37641629732153,80.97172729776472,78.9211635613986,72.96052813543109,78.85485462578512
272.0,78.44391724861639,79.37641629732153,81.09657898342948,78.65996499178374,72.58311687074347,78.77154308785451
280.0,78.2121361197686,79.35999961744992,80.85684118520821,78.28097222611387,72.37912712478457,78.56087941413944
290.0,78.31627940083642,79.55295536787777,80.63318639800507,78.00672187223793,72.19744999920269,78.49488651113772
300.0,78.77928732607432,79.785387104659,80.72901029125602,77.80870013354685,71.89965486715553,78.6310413937966
307.0,79.24898514879551,79.75295536787779,80.9289697676504,77.65182304664297,71.87254832245695,78.76293858032419
315.0,79.47387961222819,79.92875610128313,81.16718256267644,77.45270107168984,71.81222873730447,78.90532999093179
325.0,79.43358982687998,80.18161208533421,80.90459800630047,77.06201608767924,71.39420902828948,78.80613806274008
335.0,79.76845083805433,80.08161208533421,80.47850717099269,76.75170686845253,70.95855104322365,78.670622527619
345.0,80.30228461396018,79.90330383828929,80.41824270116352,76.45968814175114,70.95064419496983,78.7136090228037
355.0,80.57071732495409,80.20330383828929,80.28086323830132,75.67875059454293,70.78727949429546,78.74454952270779
365.0,80.97071732495407,80.46136837622764,80.22916309863224,75.77107790600523,69.84874050465335,78.910883626539
375.0,81.66845083805434,80.18161208533421,80.67911490223774,75.899741317931,69.75131727426664,79.20522419066835
387.0,82.03821129888742,80.11664590330463,80.9115702207797,76.02411622989169,70.0162614158909,79.40553528310234
400.0,82.44415774934852,80.078257457041,80.74892946670913,75.85884247721958,69.0624945632254,79.47228998146916
412.0,82.52022310324253,79.82180052683974,80.90707501909841,75.7777945642111,69.0181128399464,79.48086896407372
425.0,82.46419800295965,79.28888863538653,81.08153059955207,76.04808748452022,68.41833140122641,79.41257072068518
437.0,82.63647412390415,78.46493035341094,80.90923074388337,76.0560036600648,68.31429034582136,79.28528139138508
450.0,83.00920925226937,77.85274994214359,80.90011352987436,76.14601278476307,68.70119323983343,79.3707559205056
462.0,83.05858760124326,77.83308937677076,81.0239758450447,75.9077589944354,68.18714344638197,79.39622975092318
475.0,82.74659692804833,77.53638088039143,80.96840572357529,75.77802169252075,67.79276516935182,79.17765017471434
487.0,82.36194729184086,77.56251322065519,80.67943989267374,75.71263137968042,66.68496471602137,78.90053412995772
500.0,82.15522334988609,77.43753193576904,80.55147588371922,75.46264841472245,66.17000373845465,78.72208296286446
515.0,81.99430925610405,77.14197022557482,80.24268974495222,75.00473865777987,65.3971154323098,78.46257347964107
530.0,81.63898164121285,77.05959385611935,80.2721368459843,74.9124291459418,65.60684612841571,78.29629364958281
545.0,81.38915939292242,76.6730120924441,80.42209027673685,74.90886565833992,65.21160312371718,78.17791756128072
560.0,80.9447529719088,76.20807851055699,80.5696773923752,74.78267625733434,65.65622275594092,77.97737790936797
580.0,80.63808321351722,75.73308937677078,80.47399760770898,74.85844824526642,65.17710978466458,77.76263697361627
600.0,80.18868107059241,75.52990957385144,80.02356843387847,73.7663850676828,64.90275478519033,77.28526859796973
615.0,79.44547317920926,74.7509882350122,78.82357037865448,72.41039538667404,63.84390811131081,76.31417713477633
630.0,78.49587874590274,72.93510550729974,77.65686654379738,71.20416919763923,63.26661892671622,75.1588278734799
650.0,77.66632763805379,71.7165581917717,76.70756467942947,70.54545099685465,62.492856478013096,74.2568353777847
670.0,76.80125229338914,71.21627783177748,76.4771224042946,70.33882774874921,63.038593780913615,73.74260824255538
690.0,76.22831837467518,70.9566725593005,76.65943522764702,70.46029305610354,63.094732892605464,73.57629690117427
710.0,75.76698477766233,70.7948570588317,77.10099623402778,71.16669870256648,63.788652225421586,73.673998265246
730.0,75.3950689940897,70.92022160616297,77.52267515922293,71.53813625816615,64.4048082424821,73.82125836259571
750.0,75.11472574090303,70.40497668676808,77.67140555482511,71.68030958000365,64.28664728343162,73.778597406941
775.0,74.43184464544366,70.80034112939826,77.30043362312124,71.41314015222092,63.95930766095769,73.41676813390895
800.0,73.7170985467846,71.37071732495409,76.74582038215932,70.90214603341177,63.548138299017694,72.97050623571104
825.0,72.87636529355903,71.5849349246085,76.40513248519271,70.53106676278884,62.61125308664441,72.58279567319845
850.0,72.1116927353324,71.48335937246298,76.49056510356449,70.86875672577884,63.02013202134478,72.51022895103164
875.0,71.92698400522296,71.7948570588317,77.31885374535794,71.81808523691916,63.77516329248617,73.10579249370409
900.0,72.17333854596832,72.56073506160972,77.88544971161711,72.78268488205858,64.42159691116325,73.71908072977115
925.0,72.28098974763785,72.31659062692783,77.77163897042374,72.761106044267,64.62574167813241,73.64007906064589
950.0,72.1210308381189,72.83452415393478,77.17857759246907,72.71751507620846,64.74794120659429,73.40071587695266
975.0,71.68107444645537,73.40167684604727,76.84318646724181,72.91038586377508,64.81251114059377,73.32551418012602
1000.0,71.15664821100016,74.15866027600835,77.55568106978788,73.93096175021559,65.05955117918488,73.94429045105441
1030.0,70.32457993687896,74.59317164073086,78.16602920699215,74.8815567221293,65.50534040719165,74.45448743658118
1060.0,70.57908325749932,74.35260953202219,78.33565203000146,75.29161959625898,65.73924955418904,74.60607760808925
1090.0,70.36649538425083,74.07449351030438,78.33594079872542,74.91070058522469,64.81797530888572,74.42842563349079
1120.0,70.58619881655031,73.3566725593005,78.39592126125571,74.54875347997044,63.795329065797375,74.25279683036376
1150.0,71.76777583864198,72.53639559608384,78.80684500366415,74.80087023903583,63.99005671426572,74.52232147694725
1180.0,72.18008390319221,72.61659062692783,78.74737269049886,74.75649906933448,63.701660209421235,74.53239801153012
1220.0,72.4871047400059,72.36996121118248,78.04539683518958,73.98276672699902,62.548197211530876,73.99897010190844
1250.0,72.22589410260537,71.99643568420723,77.36005136612825,73.00452870404557,61.4749391740568,73.3589820649148
1280.0,71.79863643077759,72.20519388157136,77.80490282572809,73.0316216135342,60.92734229317513,73.55670166394555
1320.0,72.35167014371133,72.06322504785601,78.2186888245243,73.25429952659279,60.80070518891618,73.87317188796642
1360.0,73.10380154449983,72.06893802673272,77.59491426107263,72.60451243933647,60.15474010548499,73.5513194836633
1400.0,73.61467735114441,71.6662123626678,76.64766170445246,71.48938529628454,58.444218322654564,72.95196217582337
1450.0,73.3822211122646,71.75666892806515,76.59298377728244,70.85651542486501,57.69501605332137,72.7956159490767
1500.0,73.09584623009796,71.35684436552908,76.74201540258649,70.59596867866591,57.30274226541333,72.70919482533553
1550.0,72.71317125706966,70.59533257014984,76.24705513552523,69.71276809112177,56.70874512547415,72.15459887109064
1600.0,72.78098748185238,70.73646113987161,75.53336935499021,68.59486290494031,55.77981577842617,71.71367383535669
1650.0,73.08318629029516,71.13916927982258,76.29820406548497,68.99653261536014,57.088413343823774,72.27508516636118
1700.0,73.62774631127796,71.30229297394156,77.24108275614164,69.55691117881923,57.965910860625456,72.97488703988745
1750.0,74.15872457742297,71.34113351361485,76.84728235108874,68.6002065650528,58.71659474839329,72.8351689577059
1800.0,74.49290042729638,70.7457764953453,76.91655525114713,68.60550261168552,60.26619726215843,72.90003255011416
1850.0,74.83094151933295,69.84191488711728,78.57671715899735,69.78324448917458,62.692094611107066,73.92648060205984
1900.0,74.68460903307208,70.06996121118247,78.97794718415074,70.59322052452424,64.7208719252228,74.24978403027441
1950.0,75.22961080363889,69.6575988212754,78.4138966933526,71.13662603250062,65.52278446066086,74.10084326824175
2000.0,75.82297690589331,69.63546091849048,78.35021023856109,72.25807613500757,66.63323715991653,74.38495701290832
2060.0,75.90990472399473,70.55498857039962,78.54181415449443,73.98179054173607,67.12809201766255,74.82906843494189
2120.0,75.821392163987,71.28021043702584,78.61868238026491,75.10764758838381,66.89456951632847,75.09737174678311
2180.0,76.12021436001322,71.89122190442485,78.51718790684767,75.37297813789321,65.52336376308766,75.19791729921803
2240.0,75.84458176269341,72.03184327978686,79.1246911857242,75.60025141572005,63.99946641660907,75.43930956977285
2300.0,75.71032757818408,72.03452415393478,79.27235047164955,75.51065545550246,61.87423278821011,75.4381782675467
2360.0,76.11838289653006,71.4281210048995,78.73181879304713,74.80730921089766,59.597013270933644,75.06889792444991
2400.0,76.31423455486664,70.20901938277,78.83749316034682,74.35187618691587,57.53737179840091,74.98620690919209
2500.0,77.03316872174294,69.21066295531776,78.63323290503426,73.6092341930642,55.99393147774451,74.91910829032561
2580.0,77.79138540383124,68.23356381474058,78.70033605101798,73.00249558830227,55.05925398949866,75.08438599236155
2650.0,78.03728798244133,67.41260020366265,78.76288643742836,72.18014905069326,53.53933211646647,75.0815122432686
2720.0,78.02568045314932,66.19198112994842,79.40153833416976,72.0109300976514,53.147289180785904,75.33653702535547
2800.0,77.79417633457008,64.53712108259995,79.43876185949344,71.344169599192,53.645816518924775,75.17866027033911
2900.0,77.17711159109155,65.32963782068197,79.1738723206867,69.965488639096,53.59930681862714,74.72592385039106
3000.0,76.06801107083919,66.52429589772314,79.77488114743288,70.11930067534023,55.24330989450782,74.78544619020128
3070.0,75.08506975681549,67.1983423755947,78.6771300101981,68.80820033437837,56.7432673083983,73.77701707345938
3150.0,74.67131751433742,66.44836970163406,79.33694309714538,69.39378290281637,57.9138925768123,74.1124426266803
3250.0,74.15934271306732,66.81910883387432,78.34157188302872,68.6100345106236,58.65289243814048,73.30892446374632
3350.0,73.67377663616932,66.12387236650287,78.58413542399025,69.28891226623152,58.27237362401954,73.37412709025082
3450.0,73.60131827952112,64.56623162211204,77.16061531058594,68.76800514081437,56.77984940888091,72.34470729442721
3550.0,73.01199476369736,64.28889049053281,77.16845811317266,68.91080923376013,54.42987507538514,72.1933600409179
