Freq "Ceiling Bounce"
22.4 46.42095453904257
23.0 46.061110362882474
23.6 45.76451532128449
24.0 45.57291858398368
25.0 45.35664046537967
25.8 45.31091651718914
26.5 45.232344164594494
27.2 45.219022443253024
28.0 45.20150608555555
29.0 45.29272568533712
30.0 45.41481232337789
30.7 45.679095874342906
31.5 46.10950361007575
32.5 46.92267832424672
33.5 48.04060580112177
34.5 49.376690373665426
35.5 50.78336528869123
36.5 52.180145771732484
37.5 53.4049022999359
38.7 54.722379010118416
40.0 56.00026341498129
41.2 57.50682851694843
42.5 58.666445904231395
43.7 59.99431072131826
45.0 61.116052112800915
46.2 62.17123188559991
47.5 63.35826233924371
48.7 64.48557670402201
50.0 65.53306762620443
51.5 66.51429189251326
53.0 67.47648345701663
54.5 68.333766567527
56.0 69.13376656752702
58.0 70.0624199458659
60.0 70.92753565507097
61.5 71.56010027634409
63.0 72.1259948901711
65.0 72.85932691445163
67.0 73.45932691445164
69.0 74.05932691445165
71.0 74.69317255774675
73.0 75.16010027634408
75.0 75.6601002763441
77.5 76.29472500918888
80.0 76.72753565507098
82.5 77.4298727788043
85.0 78.2624199458659
87.5 78.79782907061775
90.0 79.59782907061775
92.5 80.36628467551931
95.0 80.93523536801088
97.5 81.33523536801087
100.0 81.87169238936546
103.0 82.47169238936546
106.0 83.10467684644733
109.0 83.70467684644731
112.0 84.30467684644732
115.0 84.74139021208664
118.0 85.14139021208665
122.0 85.44501459531332
125.0 85.58223363002587
128.0 85.68223363002586
132.0 85.75337020566296
136.0 85.8249772437567
140.0 85.86323476613411
145.0 85.66323476613412
150.0 85.3746031911917
155.0 85.14762475637492
160.0 84.88746964364942
165.0 84.66118540325904
170.0 84.42786769463795
175.0 84.24302634339477
180.0 84.08478405138914
185.0 83.95967065188724
190.0 83.85967065188727
195.0 83.74536043116892
200.0 83.57779216795011
206.0 83.4650965165171
212.0 83.2650965165171
218.0 83.0095998076447
224.0 82.80031581892564
230.0 82.5774999213149
236.0 82.27098770338833
240.0 81.92751057059088
250.0 81.62424715708302
258.0 81.20355822060746
265.0 80.73294007506937
272.0 80.18321122919157
280.0 79.45367986877032
290.0 78.72462541120346
300.0 77.95663821280444
307.0 77.75080923054091
315.0 77.63562032677494
325.0 77.32142710137875
335.0 76.67484464666536
345.0 75.62175770098966
355.0 73.98523453316669
365.0 72.31686213975205
375.0 71.25090853933571
387.0 70.9547146521851
400.0 71.21929982422013
412.0 72.14736475572396
425.0 72.82937512473632
437.0 72.93448280466258
450.0 73.87085312346805
462.0 72.54749996507178
475.0 73.4242700075586
487.0 74.25947512188964
500.0 73.47005643797256
515.0 73.7644348774712
530.0 74.5284114281627
545.0 75.98941551035442
560.0 78.93091972834428
580.0 80.19229060669109
600.0 81.44760867232529
615.0 82.37256891005843
630.0 82.72671643347111
650.0 82.59508444490953
670.0 81.86252058362048
690.0 80.9930465457632
710.0 80.46677964155555
730.0 79.09052252082738
750.0 77.89734147444895
775.0 77.32220205952956
800.0 77.43686935267259
825.0 77.80590421207961
850.0 78.374387078832
875.0 78.72909424441299
900.0 78.92304080897968
925.0 79.03410528314842
950.0 79.05012228880501
975.0 79.01309331350585
1000.0 79.1092913633593
1030.0 79.20160810148845
1060.0 79.35932234660831
1090.0 79.38881549385741
1120.0 79.2492494288202
1150.0 78.99729854449971
1180.0 78.54268116106074
1220.0 78.10404248710485
1250.0 77.6712340531936
1280.0 77.26952907139584
1320.0 76.89540015224809
1360.0 76.44284514857192
1400.0 75.86186551121506
1450.0 75.34911851293164
1500.0 75.01297785666333
1550.0 74.51476328043641
1600.0 73.48707320791982
1650.0 72.22878970607822
1700.0 71.96852362860828
1750.0 72.42936518923482
1800.0 72.50276939791233
1850.0 72.22549241718623
1900.0 73.03513803753626
1950.0 74.71883804071622
2000.0 75.8089650564672
2060.0 76.10184459994342
2120.0 75.85435235513201
2180.0 75.22509121866908
2240.0 74.4126266694541
2300.0 74.06646833332871
2360.0 73.76819837409082
2400.0 73.3385084064599
2500.0 73.39904379756943
2580.0 73.26695563699222
2650.0 72.74759726347382
2720.0 72.48658139786122
2800.0 72.30162831895966
2900.0 71.68656291189883
3000.0 71.83432321108214
3070.0 72.34218130204856
3150.0 72.14664370999019
3250.0 72.26492627070108
3350.0 71.63829067014761
3450.0 71.03592376799908
3550.0 70.57471156285956
3650.0 70.36186551121504
3750.0 70.0688063075811
3870.0 69.69364133530395
4000.0 69.98323476688844
4120.0 70.72886620316275
4250.0 72.24319365542227
4370.0 72.01866994079202
4500.0 70.79378241369986
4620.0 70.1790958743429
4750.0 70.89493480151872
4870.0 72.15080923054093
5000.0 72.5695166543827
5150.0 71.26776521646103
5300.0 71.085336448473
5450.0 71.04141593708141
5600.0 69.18686223065953
5800.0 69.31642993355136
6000.0 70.72328509743436
6150.0 69.91380523710461
6300.0 65.40881101366301
6500.0 67.38547999793447
6700.0 69.88596032671802
6900.0 68.36537174027754
7100.0 64.27847532393132
7300.0 68.29205945606292
7500.0 69.28209800551713
7750.0 67.03507335622115
8000.0 63.64960611568554
8250.0 64.67304567990277
8500.0 65.6619960963716
8750.0 64.20412832282726
9000.0 62.002654549303415
9250.0 69.736519482697
9500.0 70.04239226201685
9750.0 66.08730767701374
10000.0 69.25863668540318
10300.0 66.45788800308931
10600.0 64.98884074749837
10900.0 65.99973815167104
11200.0 64.3109205652906
11500.0 65.60619503084703
11800.0 68.22495132651487
12200.0 65.02418455539755
12500.0 67.66997233708763
12800.0 68.15257088342516
13200.0 68.238991275137
13600.0 67.49522696943971
14000.0 66.31667942736179
14500.0 64.43817729808765
15000.0 63.578356934340746
15500.0 63.56049999927379
16000.0 67.4885921350003
16500.0 65.84369890128114
17000.0 65.59906852135698
17500.0 60.62038641057411
18000.0 57.79634809826426
18500.0 55.2822583046089
19000.0 49.747117657220954
19500.0 54.27430904276427
