Freq "Rear Wall Bounce"
22.4 63.78890766182457
23.0 63.56277434251099
23.6 63.41101526261647
24.0 63.393790951705185
25.0 63.41272181037816
25.8 63.43616706060571
26.5 63.42722225470864
27.2 63.430080930643285
28.0 63.24755273619279
29.0 62.97739991412669
30.0 62.6047282404259
30.7 62.12208093127917
31.5 61.59163043957635
32.5 61.06843544045772
33.5 60.881862288535544
34.5 60.74183323094702
35.5 60.641404301728116
36.5 60.6275321875752
37.5 60.642964868501295
38.7 60.80634519947465
40.0 61.05943735091573
41.2 61.49884860120618
42.5 61.969300193183884
43.7 62.743703451527225
45.0 63.44202424731206
46.2 64.15444260492153
47.5 65.06803376094099
48.7 65.93403534207008
50.0 66.71654584470049
51.5 67.48841364200551
53.0 68.17486425880425
54.5 68.89296947372416
56.0 69.5296249193803
58.0 70.31751446586432
60.0 71.04244955260616
61.5 71.61093001757554
63.0 72.0731891777669
65.0 72.69067770341071
67.0 73.20160673132455
69.0 73.65992048493386
71.0 74.1408645311723
73.0 74.53656076685382
75.0 74.90749412960108
77.5 75.39203082451625
80.0 75.7297512911987
82.5 76.28495638381338
85.0 76.98329045138358
87.5 77.48166182258274
90.0 78.19544406719038
92.5 78.85069052392085
95.0 79.41545018994576
97.5 79.82016280841042
100.0 80.35446035741423
103.0 80.95830295658268
106.0 81.61062117744753
109.0 82.22616428109708
112.0 82.97259792872224
115.0 83.57259792872223
118.0 84.11836931822101
122.0 84.54936147333349
125.0 84.90726302253928
128.0 85.13340614654454
132.0 85.35474479897836
136.0 85.52427888922517
140.0 85.64210833810942
145.0 85.51130621236128
150.0 85.31303942737345
155.0 85.08320822512438
160.0 84.79464735745651
165.0 84.50529586441164
170.0 84.19608692264843
175.0 83.88393827402321
180.0 83.58953047184252
185.0 83.38019949523343
190.0 83.23330230506485
195.0 83.07118424265241
200.0 82.9538277234302
206.0 82.84444406231763
212.0 82.78950467108858
218.0 82.656274892431
224.0 82.60432754310095
230.0 82.53322808375391
236.0 82.45172189455424
240.0 82.33646641983633
250.0 82.24117942369786
258.0 82.10123073878478
265.0 81.90907389470568
272.0 81.67124411781819
280.0 81.40644285387116
290.0 81.19650852976018
300.0 81.03467111506517
307.0 80.8267566315409
315.0 80.46063078888287
325.0 79.89907285154494
335.0 79.06781095285017
345.0 77.92610562643598
355.0 76.27080122504667
365.0 74.54500006749002
375.0 73.56401567288641
387.0 73.74290610624801
400.0 74.69501683109472
412.0 76.44443497112472
425.0 77.59500720311365
437.0 78.02015214721446
450.0 77.96238142338042
462.0 77.65383681754314
475.0 76.96945453283804
487.0 76.03456104226832
500.0 75.02881233987979
515.0 73.84557104755827
530.0 72.54676959611588
545.0 71.41006853268517
560.0 71.08806378239747
580.0 71.54127201543328
600.0 72.8239774580586
615.0 74.06580399405046
630.0 74.92317495999605
650.0 75.2215586712331
670.0 74.94379992816876
690.0 74.06893892175042
710.0 72.75010077558093
730.0 71.06696472323527
750.0 69.15985895950371
775.0 67.53045846380677
800.0 66.03045382755212
825.0 65.06508303900537
850.0 64.77116698973136
875.0 64.8274751965595
900.0 65.05426783543722
925.0 65.43558577862986
950.0 65.88966137097054
975.0 66.43067930877342
1000.0 66.83468998071073
1030.0 66.92837731896863
1060.0 66.8492912065105
1090.0 66.66919555298226
1120.0 66.3766056109879
1150.0 66.06906763198403
1180.0 65.68170935919223
1220.0 65.50372128058527
1250.0 65.40417257708037
1280.0 65.27326046446883
1320.0 65.09597328971155
1360.0 64.56302622997526
1400.0 63.56080287648889
1450.0 63.04406024636762
1500.0 63.768712791190026
1550.0 64.83027141689148
1600.0 65.06987955765443
1650.0 64.36754734358816
1700.0 63.26489911251075
1750.0 62.42899580638179
1800.0 61.99677778425628
1850.0 62.22191820651177
1900.0 63.06164991163898
1950.0 63.880779346821626
2000.0 64.44688073312804
2060.0 64.89764282218128
2120.0 65.02667034667502
2180.0 64.69300877997388
2240.0 63.90452274646668
2300.0 62.86702330414329
2360.0 61.583785166839945
2400.0 60.296027114487444
2500.0 59.02904019873863
2580.0 58.217472841227746
2650.0 57.678373208973184
2720.0 57.35000409153899
2800.0 57.89554151372549
2900.0 59.28616312946393
3000.0 61.72062108337998
3070.0 63.68810269846581
3150.0 64.67963905292014
3250.0 64.34659450802832
3350.0 62.38348949912408
3450.0 59.33461752255941
3550.0 56.13521250041565
3650.0 54.08752002284051
3750.0 54.280093224476204
3870.0 55.41934307867247
4000.0 56.7869197577654
4120.0 58.681051723659024
4250.0 60.77171589120904
4370.0 61.68095674495986
4500.0 61.42355064140325
4620.0 60.299288017930664
4750.0 58.53160147874006
4870.0 56.37520762198692
5000.0 54.21022127935855
5150.0 53.10003413725339
5300.0 56.34447029756147
5450.0 58.43254745594304
5600.0 59.50379290168537
5800.0 59.09427521357513
6000.0 56.84278706811092
6150.0 53.07753183049395
6300.0 47.998775820562926
6500.0 54.36184558477213
6700.0 56.14338336113339
6900.0 55.18703883792075
7100.0 54.51971539390517
7300.0 54.276477265860294
7500.0 52.903722079176234
7750.0 47.155180845246846
8000.0 46.82375887199102
8250.0 51.37955077245881
8500.0 54.74041971984339
8750.0 51.811973547495015
9000.0 46.23843652622371
9250.0 45.063009088756914
9500.0 52.35706779174397
9750.0 52.55198255097763
10000.0 49.39408206232993
10300.0 46.804108916390234
10600.0 51.06353212428546
10900.0 47.0223571415642
11200.0 50.53348374523908
11500.0 46.49614629716264
11800.0 45.56530856354938
12200.0 47.74563936061777
12500.0 50.09573085694295
12800.0 48.491229157953896
13200.0 45.63173258521287
13600.0 40.95304016499871
14000.0 39.80727408524349
14500.0 43.60895685384865
15000.0 43.59149128030289
15500.0 41.31302964406764
16000.0 43.36767195664085
16500.0 42.10983522046074
17000.0 44.40289803713286
17500.0 46.22851305682492
18000.0 38.27519513501569
18500.0 36.79591872365343
19000.0 38.10001485936213
19500.0 32.828311376109966
