Freq "Ceiling Bounce"
22.4 25.561947291840852
23.0 26.1575988212754
23.6 29.17960121433461
24.0 31.46668408046665
25.0 32.1292653088357
25.8 32.71852635130014
26.5 33.28239860760772
27.2 33.47383110211925
28.0 31.47383110211922
29.0 31.201318279521132
30.0 32.766685527900194
30.7 34.794857058831695
31.5 37.794857058831695
32.5 41.59485705883171
33.5 45.32349685065981
34.5 48.523496850659825
35.5 51.15260953202218
36.5 53.55260953202216
37.5 55.515926922267056
38.7 57.31592692226707
40.0 59.012271783156194
41.2 60.74576719438468
42.5 62.409866286723286
43.7 64.40986628672329
45.0 65.7098662867233
46.2 66.67977745790569
47.5 67.9098662867233
48.7 69.0098662867233
50.0 70.0457671943847
51.5 71.0457671943847
53.0 72.08219967332305
54.5 73.08219967332305
56.0 74.21916705502754
58.0 75.31916705502753
60.0 76.81916705502752
61.5 78.11916705502753
63.0 79.11916705502753
65.0 80.11916705502753
67.0 81.11916705502752
69.0 82.01916705502754
71.0 82.81916705502753
73.0 83.58219967332303
75.0 84.24898514879551
77.5 84.88219967332304
80.0 85.28219967332305
82.5 85.48219967332304
85.0 85.61916705502753
87.5 85.61916705502753
90.0 85.41916705502754
92.5 85.15260953202217
95.0 84.71916705502753
97.5 84.41916705502754
100.0 84.21916705502754
103.0 84.11916705502753
106.0 84.15260953202218
109.0 84.31916705502752
112.0 84.44898514879551
115.0 84.51916705502754
118.0 84.58219967332305
122.0 84.55260953202216
125.0 84.55260953202216
128.0 84.48982856673473
132.0 84.38982856673474
136.0 84.28982856673473
140.0 84.08982856673472
145.0 83.98982856673472
150.0 83.92758719283592
155.0 83.82758719283594
160.0 83.82758719283594
165.0 83.82758719283594
170.0 83.78982856673473
175.0 83.72758719283593
180.0 83.58982856673472
185.0 83.32758719283592
190.0 82.89897445130926
195.0 82.49897445130925
200.0 82.07662798253905
206.0 81.74898359150842
212.0 81.64898359150841
218.0 81.72179738688895
224.0 81.92179738688895
230.0 82.02179738688895
236.0 82.0950645803583
240.0 82.0950645803583
250.0 81.99506458035829
258.0 81.93546263134681
265.0 81.93546263134681
272.0 82.13546263134683
280.0 82.29506458035829
290.0 82.33546263134683
300.0 82.26194867563765
307.0 82.23546263134682
315.0 82.20942248426019
325.0 82.03546263134683
335.0 81.86194867563765
345.0 81.73546263134682
355.0 81.70942248426019
365.0 81.5094224842602
375.0 81.6094224842602
387.0 81.7252645392885
400.0 81.66726558859611
412.0 81.58538710465898
425.0 81.40497668676808
437.0 81.20497668676808
450.0 81.32875610128315
462.0 81.57269145322596
475.0 81.72602452356692
487.0 82.02643297742509
500.0 82.19780984381858
515.0 82.88343461029552
530.0 83.63753193576905
545.0 83.93753193576904
560.0 84.0590626365751
580.0 83.85906263657509
600.0 83.4625132206552
615.0 83.21638770313007
630.0 82.91638770313007
650.0 82.54985150686699
670.0 81.97083383381351
690.0 81.56941986366729
710.0 80.81395652088274
730.0 80.38098490550679
750.0 79.77245249207644
775.0 78.84520516099383
800.0 78.20432912249856
825.0 77.61664590330462
850.0 76.61664590330462
875.0 76.03638088039145
900.0 76.10330383828929
925.0 77.00034112939827
950.0 77.88915630129642
975.0 79.16283617001537
1000.0 81.0369601259437
1030.0 81.92699787697725
1060.0 80.86226919657724
1090.0 78.60901938276999
1120.0 75.77455057370108
1150.0 73.02253333882662
1180.0 73.06322504785601
1220.0 74.82180052683972
1250.0 76.78715219471242
1280.0 77.59218730938166
1320.0 77.87082970284297
1360.0 78.29913536951437
1400.0 78.08064061661163
1450.0 77.30724699916735
1500.0 77.0944886893229
1550.0 76.91832544184973
1600.0 75.79075278653531
1650.0 74.40722417372365
1700.0 74.23392832814568
1750.0 74.57914160383162
1800.0 74.725722007486
1850.0 75.43704885425271
1900.0 76.84171952330976
1950.0 74.8549399124869
2000.0 75.49257011413609
2060.0 78.53855083142048
2120.0 78.11753803239935
2180.0 75.04240010667203
2240.0 76.84179998067982
2300.0 77.88910480561007
2360.0 76.09691915590437
2400.0 76.56560861109917
2500.0 76.78633240679167
2580.0 73.87697211958266
2650.0 75.39553639353302
2720.0 77.24171952330977
2800.0 75.87697211958266
2900.0 74.58844930757088
3000.0 75.16183854930743
3070.0 71.96380046507488
3150.0 74.8602463116381
3250.0 73.6175335999225
3350.0 70.85538847472371
3450.0 69.10219203555889
3550.0 66.80702691858943
3650.0 68.60460793981963
3750.0 67.81719468318569
3870.0 71.45242311342379
4000.0 71.61544134645223
4120.0 74.68062611782793
4250.0 76.73308937677078
4370.0 77.39606317683779
4500.0 75.21185905036133
4620.0 73.61124970721758
4750.0 70.24860698050821
4870.0 70.75664821100017
5000.0 72.04195058596993
5150.0 72.0132079932454
5300.0 72.24817574255783
5450.0 73.13060038152963
5600.0 73.37266776373735
5800.0 73.48928066966269
6000.0 73.59066301838192
6150.0 73.48915939292242
6300.0 72.1328809265652
6500.0 69.1725617053905
6700.0 67.29293138518186
6900.0 68.9657819002546
7100.0 72.00874768185137
7300.0 76.03403046914814
7500.0 75.72406634433557
7750.0 71.12842011477167
8000.0 69.02364704950978
8250.0 68.02002361533637
8500.0 70.23112342273669
8750.0 73.50072921332074
9000.0 72.5730120924441
9250.0 71.86921935575968
9500.0 69.34611039943478
9750.0 69.26443680503087
10000.0 70.67020661250203
10300.0 74.1997337321117
10600.0 75.1749601494493
10900.0 70.15791897084482
11200.0 67.06553633385725
11500.0 68.90752380785644
11800.0 75.99188145404554
12200.0 73.07968156940396
12500.0 67.40920303819732
12800.0 73.32699787697726
13200.0 74.57860251331152
13600.0 76.82503415250727
14000.0 71.55953166004181
14500.0 72.01753803239933
15000.0 75.83134715397037
15500.0 70.69983306661128
16000.0 70.75603736524559
16500.0 72.40500125539945
17000.0 69.69365387530115
17500.0 69.45083765907144
18000.0 73.22536375559062
18500.0 75.27926068829234
19000.0 69.48509820479185
19500.0 73.93699851572948
