Freq "Front Wall Bounce"
22.4 27.244782776872455
23.0 27.758737953277347
23.6 30.73012930082683
24.0 33.030129300826815
25.0 33.64445718403786
25.8 34.1590700361194
26.5 34.68882407968417
27.2 34.85907003611942
28.0 32.78882407968416
29.0 32.53175513861905
30.0 34.03175513861905
30.7 36.10229476693692
31.5 39.03175513861905
32.5 42.846751503753524
33.5 46.63175513861907
34.5 49.83175513861909
35.5 52.475251226424575
36.5 54.83175513861909
37.5 56.83175513861906
38.7 58.63175513861907
40.0 60.35907003611939
41.2 62.08748929892042
42.5 63.85907003611942
43.7 65.8590700361194
45.0 67.1590700361194
46.2 68.05907003611941
47.5 69.31508314243884
48.7 70.38748929892041
50.0 71.40229476693693
51.5 72.40229476693693
53.0 73.43175513861907
54.5 74.43175513861907
56.0 75.60229476693692
58.0 76.70229476693692
60.0 78.20229476693693
61.5 79.50229476693691
63.0 80.53175513861906
65.0 81.48748929892041
67.0 82.48748929892041
69.0 83.38748929892043
71.0 84.18748929892043
73.0 84.8874892989204
75.0 85.50229476693693
77.5 86.13175513861907
80.0 86.53175513861906
82.5 86.80229476693692
85.0 86.93175513861907
87.5 86.93175513861907
90.0 86.83175513861907
92.5 86.63175513861907
95.0 86.23175513861906
97.5 85.93175513861907
100.0 85.73175513861908
103.0 85.57525122642457
106.0 85.57525122642457
109.0 85.67525122642456
112.0 85.84675150375355
115.0 85.94675150375355
118.0 85.94675150375355
122.0 85.97525122642458
125.0 86.00229476693693
128.0 85.93175513861907
132.0 85.83175513861906
136.0 85.70229476693693
140.0 85.53175513861906
145.0 85.46035311823195
150.0 85.43175513861907
155.0 85.4048949937362
160.0 85.4048949937362
165.0 85.37525122642455
170.0 85.31998423401444
175.0 85.24675150375354
180.0 85.1048949937362
185.0 84.80489499373621
190.0 84.41998423401444
195.0 84.06528715999552
200.0 83.69366590096783
206.0 83.45491760385289
212.0 83.43924275721992
218.0 83.55491760385289
224.0 83.63924275721993
230.0 83.65491760385288
236.0 83.62940676691628
240.0 83.58336396340042
250.0 83.63924275721993
258.0 83.61363940606881
265.0 83.57602210108666
272.0 83.57602210108666
280.0 83.78336396340042
290.0 83.91998423401444
300.0 83.96528715999551
307.0 83.89366590096782
315.0 83.84865957364794
325.0 83.71998423401445
335.0 83.43924275721992
345.0 83.22940676691627
355.0 83.12940676691628
365.0 83.1600593685791
375.0 83.27602210108665
387.0 83.46005936857911
400.0 83.53516047995821
412.0 83.458217088195
425.0 83.28242230727827
437.0 83.058217088195
450.0 83.02683455312959
462.0 83.058217088195
475.0 83.03443179205895
487.0 83.25086213388187
500.0 83.65086213388186
515.0 84.21068966302632
530.0 84.7106896630263
545.0 84.94218865688731
560.0 84.83443179205895
580.0 84.65968554741491
600.0 84.45378373474549
615.0 84.23156734312867
630.0 84.05378373474547
650.0 83.85378373474548
670.0 83.85968554741491
690.0 83.99485763696346
710.0 84.01106138014495
730.0 83.9596855474149
750.0 83.78147278830733
775.0 83.37983775130111
800.0 83.30521502270679
825.0 83.41913795500015
850.0 83.40098676922554
875.0 83.38969515549682
900.0 83.04273131524616
925.0 82.74273131524617
950.0 82.19326599014053
975.0 81.65923203800298
1000.0 81.7489647863668
1030.0 81.80969433514349
1060.0 81.92611266914517
1090.0 82.2066916966184
1120.0 82.21526553589034
1150.0 82.01522148513216
1180.0 82.20619289148777
1220.0 82.74733305442548
1250.0 83.30619289148777
1280.0 83.68317516021497
1320.0 83.55512285460244
1360.0 82.90453485950545
1400.0 82.35452247721607
1450.0 82.36936669196376
1500.0 82.19208119849624
1550.0 81.69867804133935
1600.0 80.7899856038755
1650.0 80.07551797202292
1700.0 80.08155836773406
1750.0 80.48096191012547
1800.0 80.82163457381297
1850.0 80.69248837581529
1900.0 80.26720473512827
1950.0 80.41073246515836
2000.0 80.82230288159805
2060.0 80.88141154108963
2120.0 80.56621017917603
2180.0 80.6537352331568
2240.0 81.05091370021394
2300.0 81.33730850448947
2360.0 81.28116700807662
2400.0 81.82687780402584
2500.0 82.19012403401558
2580.0 81.56610345572196
2650.0 81.73506843223245
2720.0 81.69261491272532
2800.0 81.61170137270108
2900.0 81.3659233733446
3000.0 81.48840608869048
3070.0 81.86802577239271
3150.0 81.36201810086945
3250.0 81.20692067641775
3350.0 80.91564851869515
3450.0 80.60162843647768
3550.0 80.83439032346755
3650.0 80.66140716198888
3750.0 80.26212329520519
3870.0 80.7747854987633
4000.0 81.88262441950613
4120.0 83.52807420973011
4250.0 84.30622334750122
4370.0 85.22940483250122
4500.0 84.52247870340142
4620.0 83.35068904434314
4750.0 82.30629997760718
4870.0 81.54793014111567
5000.0 81.14261087474843
5150.0 81.05508634111592
5300.0 81.25683682523416
5450.0 82.28577563599917
5600.0 82.75922955330617
5800.0 83.29320329093477
6000.0 83.2234215992642
6150.0 82.16929568452177
6300.0 79.87297523511398
6500.0 78.07709349443029
6700.0 77.96418084199988
6900.0 79.41835626689026
7100.0 81.90930769172635
7300.0 84.90314332304959
7500.0 84.01340390119171
7750.0 80.9579758257535
8000.0 79.48999127300692
8250.0 79.41729159477657
8500.0 81.09560628872117
8750.0 85.06384570168436
9000.0 84.89928057174578
9250.0 82.31490019916725
9500.0 80.49907172209885
9750.0 80.8925113011683
10000.0 82.28528261469711
10300.0 84.93982942663001
10600.0 86.38026758839705
10900.0 83.0125476317166
11200.0 79.80096325749297
11500.0 82.6177610555037
11800.0 87.2708515659161
12200.0 83.5408471024146
12500.0 81.10047381189659
12800.0 83.78721278746622
13200.0 87.71806227355161
13600.0 85.08448511853297
14000.0 83.28544240920446
14500.0 81.58763034463466
15000.0 85.99883211718056
15500.0 81.07236492286279
16000.0 77.97587810999386
16500.0 81.09072971975128
17000.0 79.73319798969497
17500.0 78.19447831126324
18000.0 82.49204022983923
18500.0 81.62504167914672
19000.0 79.47021469880325
19500.0 82.38905274000737
