Freq "Estimated In-Room Response"
22.4 -15.09243158642559
23.0 -12.656550958180532
23.6 -8.30641366257052
24.0 -7.156465597729863
25.0 -4.639648461294996
25.8 -1.1118765438611717
26.5 5.255476288532265
27.2 8.528343276998527
28.0 11.134564296323873
29.0 13.754157503786246
30.0 16.377596803613784
30.7 18.6891029148874
31.5 20.570878831047395
32.5 22.649972721927583
33.5 25.91769868627955
34.5 28.799547319202304
35.5 32.988159316337004
36.5 36.666526256180305
37.5 39.30394937373458
38.7 42.67647520555377
40.0 43.84110991101355
41.2 45.47175138536139
42.5 48.178755588495505
43.7 51.281264853621224
45.0 53.800274602812834
46.2 55.57688218696883
47.5 57.53249210040738
48.7 60.32363030383864
50.0 62.629814320618934
51.5 63.169329584240046
53.0 63.49159924698736
54.5 64.46749953208978
56.0 65.69301728950124
58.0 66.94236058313385
60.0 68.12943723043198
61.5 69.29909022668113
63.0 70.49902988072671
65.0 71.63055753795284
67.0 72.38439722216276
69.0 73.10397282203638
71.0 73.7855388336504
73.0 74.39951809623162
75.0 74.9208802013232
77.5 75.24425726373174
80.0 75.56322920844848
82.5 76.00665094283227
85.0 76.19844043670807
87.5 76.13841070903104
90.0 76.04607861727567
92.5 75.90043645100691
95.0 75.91749038417029
97.5 75.79489435264117
100.0 75.65374061824828
103.0 75.35144885921567
106.0 75.35862934091297
109.0 75.29774887046857
112.0 75.32618780231418
115.0 75.13815764654638
118.0 75.10316111269402
122.0 75.07986771321832
125.0 75.00190981825489
128.0 74.91887784229398
132.0 74.88040119479587
136.0 74.8137685820281
140.0 74.76615008661007
145.0 74.74681098498031
150.0 74.734038296851
155.0 74.70230844416085
160.0 74.66700851592252
165.0 74.63206345818351
170.0 74.56781591818746
175.0 74.5641192585616
180.0 74.4754538034379
185.0 74.39149281103278
190.0 74.2424019603801
195.0 74.10622621327357
200.0 73.96306864411861
206.0 73.82590321323633
212.0 73.85623065957131
218.0 73.92279933161078
224.0 73.837130667831
230.0 73.64780992102777
236.0 73.28031405604783
240.0 72.86156779013601
250.0 72.52097552091496
258.0 72.27439954181521
265.0 72.43211680675006
272.0 72.57314030794517
280.0 72.8979727005259
290.0 73.28906051139543
300.0 73.54401360197548
307.0 73.40640796297217
315.0 73.24005943646526
325.0 73.08553643416096
335.0 73.03305205485731
345.0 73.14996913734659
355.0 73.46977555630681
365.0 73.78443505910958
375.0 73.98939908104752
387.0 74.65155123109456
400.0 75.30612496594233
412.0 75.5058519478442
425.0 75.80408857050615
437.0 75.84040560374577
450.0 75.55639880784946
462.0 75.64371032755054
475.0 75.61841499247728
487.0 75.60660943173217
500.0 75.46884113361996
515.0 74.7705049930775
530.0 74.27092909951045
545.0 73.69954702767686
560.0 73.39593115538383
580.0 73.07879751754373
600.0 72.77748440359049
615.0 72.34914379069478
630.0 72.28351417473853
650.0 73.11360262900224
670.0 73.9224830632057
690.0 74.30697267571453
710.0 74.13404310308492
730.0 73.33378242381953
750.0 72.9113551174554
775.0 72.95741580303299
800.0 73.37002845656639
825.0 73.75575275078349
850.0 74.13039272650003
875.0 74.33885652514422
900.0 74.2840548790534
925.0 73.74149303184362
950.0 73.41918912179244
975.0 73.28882077561234
1000.0 73.84636964813653
1030.0 74.54536095676201
1060.0 75.39727431320456
1090.0 76.1148684174604
1120.0 76.56118356373342
1150.0 76.9490726982497
1180.0 77.2071424020352
1220.0 77.50422830879452
1250.0 77.54281136261915
1280.0 77.69951786371013
1320.0 77.84122031197457
1360.0 77.65458125642022
1400.0 77.3176083569578
1450.0 76.99132220477308
1500.0 77.02724415291001
1550.0 76.79600678365793
1600.0 76.81312864226364
1650.0 76.56638290311079
1700.0 76.56340321089667
1750.0 76.26494975700325
1800.0 76.30881716754416
1850.0 76.22093747779931
1900.0 76.33245993042291
1950.0 76.21775410410996
2000.0 75.89046711773646
2060.0 75.68227825148277
2120.0 75.70998319033906
2180.0 76.0382617297351
2240.0 76.04067374548325
2300.0 75.83562876263875
2360.0 75.65512260578822
2400.0 75.35070417794854
2500.0 75.17029955349545
2580.0 75.56630588569432
2650.0 76.14377954130255
2720.0 76.47594152157427
2800.0 76.73304637239266
2900.0 76.6789819744123
3000.0 76.7136286160327
3070.0 76.97098677427958
3150.0 77.27545898702253
3250.0 77.4082484868296
3350.0 77.3317104278554
3450.0 77.03376311047522
3550.0 76.93303987124331
3650.0 77.09485032455179
3750.0 77.15243898037156
3870.0 77.20943554099527
4000.0 76.87456833605864
4120.0 76.77144454683744
4250.0 76.96341231637646
4370.0 77.02974732487016
4500.0 77.06837448906813
4620.0 76.80246906060788
4750.0 76.98052831133069
4870.0 77.26204290448571
5000.0 77.41853857747928
5150.0 77.40611041278927
5300.0 77.2609836430643
5450.0 77.26971300630308
5600.0 77.40554224554317
5800.0 77.51926365538041
6000.0 77.82611753654666
6150.0 77.98324577652
6300.0 77.9709669654761
6500.0 78.56634863935759
6700.0 78.99653031207265
6900.0 78.99610626772105
7100.0 79.23378481912151
7300.0 79.32245253052596
7500.0 79.14694110723245
7750.0 79.15411163794082
8000.0 79.12026418617309
8250.0 79.47598608630686
8500.0 79.37573930112052
8750.0 78.88800748350491
9000.0 79.19151538480891
9250.0 79.12625844589488
9500.0 79.15242149743207
9750.0 79.40007102385331
10000.0 79.68511498690425
10300.0 79.94833842374406
10600.0 80.33221567033172
10900.0 80.74840609564751
11200.0 81.27877254233148
11500.0 81.2951602637084
11800.0 82.17392284226409
12200.0 81.810148189604
12500.0 82.25518247380116
12800.0 81.75515997957308
13200.0 81.69359902992547
13600.0 81.30701622337602
14000.0 81.24986170794385
14500.0 82.25071353115617
15000.0 83.12505285722213
15500.0 82.98140499926117
16000.0 82.05851817044547
16500.0 81.25359294150897
17000.0 79.93061499351302
17500.0 77.94333133897219
18000.0 75.26573727779615
18500.0 73.42864083827605
19000.0 72.56396664267355
19500.0 72.11135281100168
