Freq "Estimated In-Room Response"
22.4 -18.215216396552165
23.0 -15.779335768307106
23.6 -11.429198472697067
24.0 -10.279250407856438
25.0 -7.762433271421571
25.8 -4.234661353987718
26.5 2.132691478405661
27.2 5.405558466871952
28.0 8.011779486197298
29.0 10.6313726936597
30.0 13.254811993487209
30.7 15.566318104760796
31.5 17.44809402092082
32.5 19.527187911801036
33.5 22.794913876152975
34.5 25.676762509075758
35.5 29.86537450621043
36.5 33.54374144605373
37.5 36.181164563608036
38.7 39.55369039542725
40.0 40.71832510088697
41.2 42.34896657523487
42.5 45.05597077836893
43.7 48.15848004349465
45.0 50.67748979268626
46.2 52.45409737684227
47.5 54.40970729028082
48.7 57.200845493712094
50.0 59.50702951049237
51.5 60.046544774113485
53.0 60.36881443686079
54.5 61.344714721963214
56.0 62.57023247937468
58.0 63.8195757730073
60.0 65.00665242030541
61.5 66.17630541655457
63.0 67.37624507060013
65.0 68.50777272782629
67.0 69.26161241203619
69.0 69.98118801190982
71.0 70.66275402352383
73.0 71.27673328610506
75.0 71.79809539119663
77.5 72.12147245360518
80.0 72.44044439832192
82.5 72.88386613270569
85.0 73.0756556265815
87.5 73.01562589890446
90.0 72.92329380714912
92.5 72.77765164088036
95.0 72.79470557404375
97.5 72.6721095425146
100.0 72.53095580812172
103.0 72.2286640490891
106.0 72.23584453078641
109.0 72.174964060342
112.0 72.20340299218763
115.0 72.01537283641981
118.0 71.98037630256746
122.0 71.95708290309177
125.0 71.87912500812831
128.0 71.79609303216742
132.0 71.7576163846693
136.0 71.69098377190156
140.0 71.64336527648352
145.0 71.62402617485377
150.0 71.61125348672444
155.0 71.57952363403427
160.0 71.54422370579596
165.0 71.50927864805695
170.0 71.4450311080609
175.0 71.44133444843504
180.0 71.35266899331135
185.0 71.26870800090622
190.0 71.11961715025353
195.0 70.983441403147
200.0 70.84028383399203
206.0 70.70311840310977
212.0 70.73344584944476
218.0 70.80001452148423
224.0 70.71434585770446
230.0 70.5250251109012
236.0 70.15752924592128
240.0 69.73878298000943
250.0 69.39819071078838
258.0 69.15161473168867
265.0 69.3093319966235
272.0 69.4503554978186
280.0 69.77518789039934
290.0 70.16627570126887
300.0 70.4212287918489
307.0 70.2836231528456
315.0 70.1172746263387
325.0 69.96275162403438
335.0 69.91026724473075
345.0 70.02718432722003
355.0 70.34699074618027
365.0 70.66165024898304
375.0 70.86661427092096
387.0 71.52876642096801
400.0 72.18334015581577
412.0 72.38306713771765
425.0 72.68130376037959
437.0 72.7176207936192
450.0 72.4336139977229
462.0 72.52092551742396
475.0 72.49563018235072
487.0 72.48382462160562
500.0 72.34605632349341
515.0 71.64772018295093
530.0 71.1481442893839
545.0 70.5767622175503
560.0 70.27314634525726
580.0 69.95601270741717
600.0 69.65469959346393
615.0 69.22635898056822
630.0 69.16072936461198
650.0 69.99081781887568
670.0 70.79969825307914
690.0 71.18418786558799
710.0 71.01125829295836
730.0 70.21099761369297
750.0 69.78857030732884
775.0 69.83463099290643
800.0 70.2472436464398
825.0 70.63296794065693
850.0 71.00760791637347
875.0 71.21607171501766
900.0 71.16127006892683
925.0 70.61870822171706
950.0 70.2964043116659
975.0 70.16603596548578
1000.0 70.72358483800997
1030.0 71.42257614663544
1060.0 72.274489503078
1090.0 72.99208360733383
1120.0 73.43839875360686
1150.0 73.82628788812313
1180.0 74.08435759190864
1220.0 74.38144349866796
1250.0 74.4200265524926
1280.0 74.57673305358357
1320.0 74.718435501848
1360.0 74.53179644629365
1400.0 74.19482354683126
1450.0 73.86853739464654
1500.0 73.90445934278345
1550.0 73.67322197353135
1600.0 73.69034383213707
1650.0 73.44359809298425
1700.0 73.4406184007701
1750.0 73.14216494687669
1800.0 73.1860323574176
1850.0 73.09815266767275
1900.0 73.20967512029637
1950.0 73.09496929398341
2000.0 72.76768230760992
2060.0 72.55949344135621
2120.0 72.5871983802125
2180.0 72.91547691960852
2240.0 72.91788893535669
2300.0 72.7128439525122
2360.0 72.53233779566166
2400.0 72.22791936782198
2500.0 72.04751474336891
2580.0 72.44352107556776
2650.0 73.02099473117599
2720.0 73.35315671144771
2800.0 73.61026156226609
2900.0 73.55619716428572
3000.0 73.59084380590613
3070.0 73.84820196415302
3150.0 74.15267417689597
3250.0 74.28546367670306
3350.0 74.20892561772885
3450.0 73.91097830034867
3550.0 73.81025506111675
3650.0 73.97206551442522
3750.0 74.02965417024501
3870.0 74.08665073086871
4000.0 73.75178352593208
4120.0 73.64865973671088
4250.0 73.84062750624992
4370.0 73.9069625147436
4500.0 73.94558967894157
4620.0 73.67968425048133
4750.0 73.85774350120413
4870.0 74.13925809435916
5000.0 74.29575376735272
5150.0 74.28332560266271
5300.0 74.13819883293775
5450.0 74.14692819617653
5600.0 74.28275743541661
5800.0 74.39647884525387
6000.0 74.7033327264201
6150.0 74.86046096639343
6300.0 74.84818215534952
6500.0 75.44356382923104
6700.0 75.8737455019461
6900.0 75.87332145759449
7100.0 76.11100000899495
7300.0 76.19966772039939
7500.0 76.02415629710589
7750.0 76.03132682781424
8000.0 75.99747937604653
8250.0 76.3532012761803
8500.0 76.25295449099394
8750.0 75.76522267337836
9000.0 76.06873057468235
9250.0 76.00347363576832
9500.0 76.02963668730553
9750.0 76.27728621372675
10000.0 76.5623301767777
10300.0 76.8255536136175
10600.0 77.20943086020517
10900.0 77.62562128552094
11200.0 78.15598773220492
11500.0 78.17237545358185
11800.0 79.05113803213753
12200.0 78.68736337947745
12500.0 79.13239766367457
12800.0 78.63237516944652
13200.0 78.5708142197989
13600.0 78.18423141324945
14000.0 78.12707689781729
14500.0 79.1279287210296
15000.0 80.00226804709557
15500.0 79.8586201891346
16000.0 78.9357333603189
16500.0 78.13080813138241
17000.0 76.80783018338646
17500.0 74.82054652884563
18000.0 72.14295246766959
18500.0 70.30585602814949
19000.0 69.44118183254699
19500.0 68.98856800087512
