Freq,Floor Bounce,Ceiling Bounce,Front Wall Bounce,Side Wall Bounce,Rear Wall Bounce,Total Early Reflection
20.0,-2.2602307025413353,-2.924779537981024,-2.98611141025755,-2.8239309832161013,-0.35130356529198536,-2.144972271113474
20.2909,2.408888254980681,1.5587616427081485,1.4957155486576,1.667833035878644,4.137599297766641,2.378062768161172
20.586,5.525240554336435,4.489067493762221,4.430968836840734,4.613786336208435,7.079868886182609,5.353485163512104
20.8855,7.755491033266097,6.535185440442561,6.487970846286586,6.683534182470723,9.144385852044863,7.449695766612834
21.1893,9.301547356508152,7.908533222192901,7.880715973628824,8.088769005570285,10.543361856533451,8.876596300802547
21.4975,10.422559539893953,8.869852812259793,8.867146195462894,9.088198795331678,11.534978804526148,9.892760821779447
21.8102,11.208258877176903,9.512942802614546,9.540488135735856,9.772449751981767,12.210703614020773,10.589504651824981
22.1274,11.721079309150511,9.902841498651199,9.966364572444249,10.208530446093349,12.63617834634043,11.03158788026353
22.4492,12.043581964608691,10.127950340227514,10.229908363888669,10.479649657799015,12.896517971825247,11.303464758007195
22.7758,12.309696811951298,10.326636000675492,10.468650453833945,10.723790640749158,13.12839669402156,11.541549966106189
23.1071,12.743763918560418,10.72689469306259,10.908716942470207,11.165112103552914,13.557088252650729,11.971115300102682
23.4432,13.622626993764797,11.608705690049746,11.828947340955963,12.082793501552956,14.461850021276561,12.870842765559601
23.7841,15.001470343837681,13.034339653597002,13.287990665833192,13.53518557820344,15.900971750117222,14.299060344858802
24.1301,16.53137741233239,14.65172434011275,14.933387099333501,15.168834025266861,17.52191966349484,15.904284232193575
24.4811,17.923560532318973,16.174132505293628,16.474724403403158,16.69572269450383,19.035994304365758,17.398330154395026
24.8372,19.063171080241474,17.48418779706772,17.796725934957053,17.997612327205175,20.32681966531048,18.665398406616973
25.1984,19.984756428446573,18.61385990310471,18.928306593608184,19.106870878660246,21.425820863550044,19.738022524242623
25.5649,20.82157890720849,19.68885904705529,19.99683635675349,20.149297438201856,22.460274607331016,20.74483669281723
25.9368,21.70990516350615,20.837881298175674,21.131684656037677,21.256474797315192,23.56085344309504,21.81774283470328
26.3141,22.69591907375228,22.093643429265754,22.36754020382456,22.462584229685845,24.763106600987882,22.993794796962945
26.6968,23.706371856424553,23.37050710176821,23.621375732581427,23.68682238031026,25.98437138776943,24.191853660698555
27.0851,24.63414881281595,24.54514742931208,24.770875672891336,24.806978673956095,27.104016295525483,25.292395322596846
27.4791,25.411278503746203,25.531525807656934,25.734928221691533,25.74327046161956,28.04110492927471,26.215470943285837
27.8788,26.05935297671705,26.33495445365817,26.519633881487337,26.50389954640103,28.803740087118754,26.969912930622357
28.2843,26.68002312910319,27.045349716289977,27.217482360672406,27.18147028080942,29.48369765118251,27.64840260694497
28.6957,27.384608033833345,27.769271111997583,27.938074294986123,27.886794318591924,30.1910402817076,28.360233874218764
29.1131,28.25194067522169,28.58503835709037,28.760221489120866,28.700118614733626,31.005285763795044,29.18453668874737
29.5365,29.280684979330786,29.498621221933874,29.69041809946792,29.62744135413108,31.93217263809059,30.126391088283285
29.9661,30.408169810714057,30.45798735469897,30.677138506586076,30.61800407054581,32.91991965302371,31.132894292615234
30.402,31.55931863801429,31.401521720671965,31.657745530937362,31.60920768464605,33.90544841567363,32.139911829711664
30.8442,32.675541793231886,32.28965961433995,32.59185958683072,32.56206821738688,34.848722781309974,33.10482060075812
31.2929,33.74409325451985,33.12749851634878,33.480499877973486,33.47498372044997,35.74924985287272,34.02609940478821
31.748,34.76831487895514,33.93450525076891,34.33913457910457,34.36334171324644,36.62105555091627,34.917079094780675
32.2098,35.75502682460389,34.73044020686392,35.18401404457195,35.24113299949916,37.480169393591,35.7919932340326
32.6783,36.70706500660911,35.53898596592795,36.03139139139695,36.12432176224628,38.3418423849112,36.66480729202543
33.1536,37.62948883952073,36.36675814516836,36.885232886742,37.01430380619196,39.209281546026816,37.538966958748986
33.6359,38.51952642413944,37.215295075660364,37.74464540992743,37.90848480190273,40.08022318928529,38.41255289454888
34.1251,39.37596695272025,38.09107505035682,38.611336294043795,38.80625981999323,40.95506961361413,39.28647267891158
34.6215,40.20676779261056,38.99529300451793,39.48730111121519,39.70843478082203,41.835897811548435,40.16370581573828
35.125,41.02720308204012,39.93088170926423,40.379268199588026,40.621024127486194,42.72835531257907,41.051907638770714
35.6359,41.843325646965084,40.894212548504086,41.286391716477695,41.54063343872549,43.629908445278815,41.95048119575954
36.1543,42.65345944304387,41.86376139744924,42.193404344974525,42.454079608179896,44.52694087738,42.84690123678611
36.6802,43.456437631683414,42.81897570621079,43.08744878402557,43.346946339720276,45.405072627501326,43.72862208523712
37.2137,44.26441210280906,43.753978652146046,43.96822120969044,44.221638164414614,46.264609124054914,44.597322401158394
37.755,45.10289229887141,44.68146033959239,44.85399958858518,45.097734834839784,47.12459991218465,45.47195131872736
38.3041,45.996819235527184,45.61440451612954,45.76349913451885,45.99543228432091,48.00345324543542,46.37140423893044
38.8613,46.93805500136331,46.54907613409783,46.69142899307593,46.91170067716742,48.8982064237066,47.29114372819707
39.4265,47.90665294000084,47.468741718851945,47.62367156282606,47.834531808298735,49.79447866463005,48.215898610318945
40.0,48.8776045191545,48.36171900720102,48.5429424389681,48.74911391593962,50.67757647780225,49.12921347007298
40.5818,49.82832713386935,49.22103554057301,49.439539558582624,49.64565076238553,51.53887964149277,50.01981191208188
41.1721,50.73861259122434,50.04574507832653,50.302888006439446,50.51494559641584,52.37012133635214,50.877802417928294
41.771,51.58632488451269,50.826909170008236,51.11865757521652,51.340996688711485,53.15748803018083,51.687996595240506
42.3785,52.33495395028902,51.54421411679526,51.85636324362913,52.09384522844567,53.87361148774241,52.421259790189865
42.9949,52.98381255760546,52.20096182995486,52.51681799601428,52.769701853371004,54.518635915124676,53.07739404548576
43.6203,53.55085807661078,52.81576207909288,53.11270469804201,53.38259111904428,55.10804529153849,53.672122377611416
44.2548,54.05454194769847,53.40097496544534,53.65975697148188,53.9421166106183,55.65436059251809,54.21920764399424
44.8985,54.5007781045482,53.94765290239994,54.15289566277261,54.44308886524924,56.153613548107955,54.71546042222509
45.5515,54.884440781845484,54.432853907571356,54.57791446056794,54.86931964270431,56.588186835623574,55.14568899904036
46.2141,55.216065934862215,54.84993066104427,54.93805953406975,55.223012344079805,56.958295124954134,55.5117738203235
46.8863,55.52147121402791,55.20705005289592,55.252363838408286,55.52378357013232,57.27911956502702,55.83109551029693
47.5683,55.80646076445669,55.503529892530764,55.52653891109655,55.779025968745174,57.55424936450956,56.10790653203324
48.2602,56.05459732496128,55.72310256975625,55.749916788714785,55.97974024132242,57.768169448652955,56.32842705737188
48.9621,56.264180710001455,55.87288298454993,55.93038483881786,56.13666854838321,57.926764647423056,56.498636663590446
49.6743,56.45818951590465,55.989299297042706,56.09870838214867,56.28375774195739,58.06157995093953,56.64969969871699
50.3968,56.646284275825835,56.09862367032592,56.27400560315262,56.44173349566684,58.191994499817895,56.800594542922894
51.1299,56.810063967548246,56.19938768931311,56.4428892718759,56.59974564337351,58.30723041892834,56.94020499750829
51.8736,56.94286071014356,56.29663136369324,56.59680282496615,56.7493812870635,58.404407931574255,57.064197914848904
52.6281,57.05644971654608,56.40881076974979,56.74398478071835,56.89870335085941,58.49670553369023,57.184492802491874
53.3936,57.15347317932449,56.535040602155576,56.875626905524726,57.04036726397467,58.58275277491377,57.29810445197133
54.1702,57.2311988680398,56.66343117008631,56.980940146051324,57.15985073109708,58.654613097328806,57.39568917439195
54.9581,57.30557734217898,56.79126797062793,57.063399566920964,57.2606107049494,58.72056567644975,57.48336913834734
55.7575,57.37716565935054,56.90398798935101,57.12006587384214,57.33746044521622,58.7754954349991,57.555879438127334
56.5685,57.43694172758458,56.978524081962604,57.14329619092106,57.38137888562278,58.809352596430486,57.601740056445166
57.3914,57.490375464958774,57.01494611623532,57.14557098034025,57.40274364535787,58.826692186500125,57.62742333255069
58.2261,57.541241384298104,57.02091258976367,57.14434921896516,57.4153448790596,58.83734509800199,57.64333593175748
59.073,57.58434478065617,57.00102790802447,57.149278010220755,57.42656956393948,58.84218115973222,57.65263635267702
59.9323,57.627705448036664,56.979053169626255,57.1783434416774,57.452619177853066,58.85414984169584,57.67071232269133
60.804,57.688585914362065,56.98659013152594,57.25307299412246,57.51487924389615,58.89481497853424,57.7199770869036
61.6884,57.77046742866867,57.043140393263414,57.37535867410861,57.61573035274374,58.96852838086494,57.80636841334699
62.5857,57.86927511291877,57.149202805650745,57.53052268041951,57.745965587946685,59.06983008043511,57.92331858123879
63.496,57.97137620131524,57.290313311104555,57.69134453439254,57.88137621631478,59.17994737229246,58.05121135454776
64.4196,58.062664365120085,57.44002311100999,57.82810664486641,57.99956746321321,59.27992250283269,58.168157494349714
65.3566,58.15647723425178,57.59860285979518,57.94756859793617,58.10993416470586,59.379361820768764,58.28236124910808
66.3073,58.25574345719565,57.75337951381776,58.04986586832443,58.21368174793909,59.477440192871725,58.392277552864954
67.2717,58.35376286870694,57.887688462247795,58.13172730723693,58.308015601982575,59.56647302521985,58.49059494594319
68.2502,58.46399534674127,58.01303173767913,58.22151098653451,58.41355977715375,59.66276959687576,58.59523874523666
69.2429,58.59330658248827,58.14135854591852,58.335361311868425,58.540946731074186,59.77434961578514,58.71664427239325
70.2501,58.732953971799375,58.27041473340748,58.472799924295074,58.68557819889142,59.89509929278769,58.85017616894136
71.2719,58.87143312636809,58.4018578427402,58.62638695251228,58.83642990055927,60.01700407310982,58.988377226027964
72.3086,59.006645082507006,58.538843630961125,58.78641759087422,58.986480289800326,60.137443484638226,59.12760999036651
73.3603,59.13410944248078,58.677884938321895,58.939317453043486,59.127695361131316,60.25188456488813,59.26119596394666
74.4274,59.24766145522602,58.807832646633344,59.06733942318455,59.248886732163626,60.351397477042,59.37827206537045
75.5099,59.35163398554073,58.92573193227021,59.17178098215625,59.35545851649444,60.43971080101734,59.48137163254607
76.6083,59.47634682348102,59.054684640254095,59.28139747755189,59.474632616782245,60.54389235361124,59.597833047664395
77.7226,59.63056879396299,59.20236415927222,59.41389259839866,59.621394315542204,60.67435757508093,59.739512491049
78.8531,59.80972471967176,59.368725880755534,59.57479904373733,59.79337436759941,60.828099600500806,59.90533033103789
80.0,60.013994886757715,59.56310707419432,59.77237328113979,59.99298758712469,61.00828227250312,60.09975464691294
81.1636,60.19523080802462,59.743840678331054,59.959468696923025,60.17221868258588,61.16713347124728,60.2760909538752
82.3442,60.366324799433315,59.92787823434065,60.14484926537834,60.34402802608126,61.31961363997645,60.44771815830913
83.5419,60.56814597292366,60.149195296077764,60.35707145770294,60.54319950247502,61.5024723013732,60.64980593416898
84.757,60.748198459907684,60.351474810092995,60.53800753243651,60.719168500521334,61.66380433063857,60.82865201613602
85.9899,60.91920863984207,60.5394145793107,60.70068797174433,60.88576606857592,61.815873591638294,60.995701771300915
87.2406,61.099166330778175,60.73070979535608,60.870701549309004,61.0669877988489,61.98236579832255,61.17284516729049
88.5096,61.295422348800855,60.93537906707033,61.06776180821895,61.2744448578146,62.17515281681918,61.37212489477339
89.797,61.487407666739,61.13413713531074,61.276661657405086,61.48893774826122,62.374965098295206,61.574780945681894
91.1031,61.647992942477785,61.30064879217338,61.46579851034177,61.67578771398786,62.54836663654096,61.750014307259946
92.4282,61.738816807049616,61.39177681677778,61.585887580475614,61.788347010778736,62.64775708741222,61.852722770682945
93.7726,61.817240562111536,61.46203738631249,61.67766995243866,61.871867707742595,62.71635464273365,61.93084364875709
95.1366,61.935234126241355,61.569843387734565,61.78776007261207,61.978839624813546,62.80589280070514,62.036534156764844
96.5204,62.09087806190787,61.719743460098485,61.91974447228726,62.11402597880961,62.92085737379868,62.172952855901244
97.9243,62.29375786194818,61.93109922863981,62.09947933226907,62.30058963589563,63.08649643962947,62.36095745327408
99.3486,62.50175379046762,62.15976791799571,62.29837773608732,62.506178471467436,63.27304207777365,62.56546218305881
100.794,62.698172842909855,62.37574311730904,62.50325464886093,62.71283127933458,63.463761532067664,62.76772061147332
102.26,62.876032906105095,62.56005895062562,62.70052972193342,62.90627032946276,63.64415342634851,62.95409145993163
103.747,63.04796508700913,62.71902861614235,62.88963688176857,63.086853673821906,63.81186928212918,63.12763081845232
105.256,63.22533556786986,62.87633903757181,63.07334144596682,63.26520243140375,63.97364691247098,63.29910376502076
106.787,63.40685426701491,63.04866792007171,63.251512773642716,63.4451625854375,64.13357190213951,63.47297356609003
108.34,63.56238364264536,63.21701451104566,63.403828653128954,63.605554331422056,64.27145744203362,63.6270871099254
109.916,63.69873741060228,63.38106854257573,63.5451193070935,63.754764457615266,64.40049823691656,63.77029813466203
111.515,63.8328875197402,63.54109254989136,63.69395622208842,63.90436108383426,64.53538648889014,63.915228263664744
113.137,63.981176933068056,63.697353482341214,63.853469929303714,64.05735170204957,64.6793968178985,64.06706808838409
114.783,64.13185216030375,63.83701503505989,64.00156969575671,64.19615260642804,64.81355399973268,64.20906107361414
116.452,64.27473180845372,63.96274346009848,64.12615278522316,64.31557135011649,64.92807045824368,64.33411632787893
118.146,64.42839757720147,64.10837975689452,64.2586374829727,64.44861125508703,65.05290569336746,64.47156349537862
119.865,64.5773752284857,64.26570549452455,64.40470085516624,64.59524375439453,65.18597964441473,64.61742629172137
121.608,64.71677160934563,64.42574482169184,64.56587044852598,64.75206278380877,65.32522117083393,64.76821951157494
123.377,64.8496494664548,64.58435463115681,64.73189732462828,64.91287090107464,65.46369310243306,64.91903870391842
125.171,64.9679511182793,64.72203693818294,64.86946956501869,65.0502550889324,65.57967894341813,65.04791846166205
126.992,65.07535083425601,64.83712366828016,64.9718512262867,65.16044750357169,65.67203724580594,65.15294718128082
128.839,65.17035224031417,64.92840653463644,65.05210376132695,65.24946288613269,65.75020326310688,65.23943883580694
130.713,65.23351661856694,64.97867911936142,65.1092551212577,65.30944922912803,65.80177350720736,65.29580867890296
132.615,65.25533638839283,64.98435793133744,65.13494807218613,65.33204291910177,65.8146153212357,65.31351351537735
134.543,65.29632094706783,65.01943079374952,65.17688102146593,65.37166511251674,65.84176415485449,65.35020848980403
136.5,65.3508154291845,65.08182040601336,65.22853777566944,65.42147526888806,65.88101303871568,65.40127147672686
138.486,65.35529556172084,65.10074839308254,65.23453434742935,65.4236520162177,65.87793224115978,65.40658212891663
140.5,65.36172133513647,65.11568757932943,65.24973500150294,65.4316036774189,65.88302984868619,65.41629402712185
142.544,65.39641344402297,65.14702542556392,65.28692023431262,65.46635810308976,65.910663810904,65.44928205130608
144.617,65.41567553895696,65.16407279731226,65.29546538591727,65.4801439007886,65.91275494834683,65.46115215148426
146.721,65.44435367133924,65.20279739329874,65.31370166568983,65.50634023771933,65.92482257385237,65.48552147508367
148.855,65.50432256150886,65.27608382586891,65.37453569047963,65.57075964698853,65.97593617826269,65.54709312718353
151.02,65.5119134082409,65.28469296294112,65.38795778072468,65.58200921299472,65.97689606266853,65.55527020472667
153.217,65.4838405036301,65.24900299397865,65.35595754823338,65.54585373094524,65.92875146733212,65.51896553578317
155.445,65.4800319900778,65.25200829311974,65.3485395979456,65.5322511844844,65.89926303737029,65.50814169574201
157.706,65.41727203023326,65.21402910968851,65.30044529988132,65.4766279268599,65.82629298396463,65.4520989137577
160.0,65.2812618462191,65.10169096356174,65.19163478715073,65.36303724197309,65.70350744491853,65.33322698287954
162.327,65.26221639509579,65.08334755143618,65.18062388050909,65.3518525990407,65.69556636311432,65.3198737831606
164.688,65.27668420683563,65.08470293438222,65.17776585927585,65.35221419222226,65.69546579567792,65.32248744726893
167.084,65.37249852397544,65.17804202712229,65.25560128425774,65.43558371303281,65.75693852630452,65.4043830057205
169.514,65.3151051705339,65.14735023782188,65.20213820519666,65.38917511099974,65.68036452975566,65.35089679031266
171.98,65.14898710575105,65.011102806697,65.05454272193761,65.23736611187128,65.52149151324319,65.19852104529302
174.481,65.07384467278166,64.93549922330124,65.00014050882571,65.16198054476943,65.45287484211612,65.12866734630882
177.019,65.05390472021735,64.89538753320979,65.00023757731802,65.14039252049459,65.425842707089,65.10691744111988
179.594,65.06297501368225,64.90300161198614,65.01380517983132,65.15126937035971,65.42426223915463,65.11466279683944
182.206,65.11342105758017,64.98005194414318,65.03620267866006,65.18877511527457,65.46289999665035,65.15958656777762
184.856,65.18467876604562,65.0580242390172,65.08655653748477,65.23836297997316,65.51207326984458,65.21898703663362
187.545,65.23747332831158,65.090364434377,65.15438156634987,65.2908163722857,65.54213165977431,65.2658451224185
190.273,65.31675688710727,65.15968333869851,65.24377588960432,65.38295056715897,65.61066309003792,65.3454899951628
193.041,65.36011037222936,65.21566914877663,65.26449774714534,65.42594123833867,65.65112431895164,65.38616893187418
195.849,65.372600404554,65.24634764311664,65.2643511501238,65.4343742891419,65.65568319169437,65.39720681317327
198.697,65.39084881490174,65.28539129988295,65.29470904482115,65.45120391317984,65.66039952113391,65.4186788647059
201.587,65.29630998674152,65.20803198311114,65.2048521342114,65.34821352281246,65.55686161214449,65.3247869405756
204.52,65.1825564878895,65.09003750201202,65.09499154334128,65.2362084552969,65.44496165334435,65.21170859710688
207.494,65.06950598031908,64.96205542692843,64.99783187208722,65.13977976746148,65.33276129257749,65.10238622798984
210.512,65.00194406489597,64.89072086513313,64.93070847143903,65.06731347201793,65.24716057662218,65.02939110209056
213.574,64.91762904016538,64.81767414038856,64.83855331356132,64.96390396260244,65.13803789611023,64.9366764916516
216.681,64.87277314315236,64.79202542556393,64.800829346414,64.92494562925765,65.08562346769067,64.89656521698015
219.833,64.82873665093132,64.7653872413099,64.77279962144729,64.89195615387678,65.04598151654696,64.8622041856459
223.03,64.87575459858378,64.8143656903175,64.82538155947893,64.93036157690044,65.08234849169968,64.90674361610127
226.274,64.8330305029453,64.77259408198506,64.76278258212446,64.89081007392512,65.0171066041399,64.85626778557535
229.565,64.80209844935906,64.75053935545041,64.71447541169505,64.86640862879118,64.98200573891513,64.8241374455046
