Freq,Floor Bounce,Ceiling Bounce,Front Wall Bounce,Side Wall Bounce,Rear Wall Bounce,Total Early Reflection
20.0,-4.58029359562309,-5.244842431062779,-5.306174303339304,-5.143993876297856,-2.6713664583737398,-4.465035164195228
20.2909,0.08882536189892676,-0.7613012503736059,-0.8243473444241545,-0.6522298572031104,1.817536404684887,0.05799987507941751
20.586,3.2051776612546803,2.1690046006804664,2.110905943758979,2.29372344312668,4.759805993100855,3.03342227043035
20.8855,5.435428140184342,4.2151225473608065,4.167907953204832,4.363471289388968,6.8243229589631085,5.129632873531079
21.1893,6.981484463426398,5.588470329111146,5.56065308054707,5.76870611248853,8.223298963451697,6.556533407720792
21.4975,8.102496646812199,6.549789919178039,6.5470833023811394,6.768135902249924,9.214915911444393,7.572697928697693
21.8102,8.888195984095148,7.192879909532792,7.220425242654102,7.452386858900013,9.890640720939018,8.269441758743227
22.1274,9.401016416068757,7.582778605569445,7.6463016793624945,7.888467553011594,10.316115453258675,8.711524987181775
22.4492,9.723519071526937,7.8078874471457596,7.909845470806914,8.159586764717261,10.576455078743493,8.98340186492544
22.7758,9.989633918869544,8.006573107593738,8.14858756075219,8.403727747667403,10.808333800939806,9.221487073024434
23.1071,10.423701025478664,8.406831799980836,8.588654049388452,8.84504921047116,11.237025359568975,9.651052407020927
23.4432,11.302564100683043,9.288642796967991,9.508884447874209,9.762730608471202,12.141787128194807,10.550779872477847
23.7841,12.681407450755927,10.714276760515247,10.967927772751437,11.215122685121685,13.580908857035467,11.978997451777047
24.1301,14.211314519250635,12.331661447030996,12.613324206251747,12.848771132185107,15.201856770413087,13.58422133911182
24.4811,15.603497639237219,13.854069612211873,14.154661510321404,14.375659801422074,16.715931411284004,15.078267261313272
24.8372,16.74310818715972,15.164124903985964,15.476663041875298,15.67754943412342,18.006756772228727,16.34533551353522
25.1984,17.66469353536482,16.293797010022956,16.60824370052643,16.78680798557849,19.10575797046829,17.41795963116087
25.5649,18.501516014126736,17.368796153973534,17.676773463671736,17.8292345451201,20.14021171424926,18.424773799735476
25.9368,19.389842270424396,18.51781840509392,18.811621762955923,18.936411904233438,21.240790550013287,19.497679941621527
26.3141,20.375856180670525,19.773580536184,20.047477310742806,20.14252133660409,22.443043707906128,20.67373190388119
26.6968,21.3863089633428,21.050444208686457,21.301312839499673,21.366759487228506,23.664308494687674,21.8717907676168
27.0851,22.314085919734197,22.225084536230327,22.45081277980958,22.48691578087434,24.78395340244373,22.97233242951509
27.4791,23.09121561066445,23.21146291457518,23.41486532860978,23.423207568537805,25.721042036192955,23.895408050204082
27.8788,23.739290083635296,24.014891560576416,24.199570988405583,24.183836653319275,26.483677194037,24.649850037540602
28.2843,24.359960236021436,24.725286823208222,24.89741946759065,24.861407387727667,27.163634758100756,25.328339713863215
28.6957,25.06454514075159,25.449208218915828,25.61801140190437,25.56673142551017,27.870977388625846,26.04017098113701
29.1131,25.931877782139935,26.264975464008614,26.44015859603911,26.38005572165187,28.68522287071329,26.864473795665617
29.5365,26.960622086249032,27.17855832885212,27.370355206386165,27.307378461049325,29.612109745008837,27.80632819520153
29.9661,28.088106917632302,28.137924461617217,28.35707561350432,28.297941177464054,30.599856759941957,28.81283139953348
30.402,29.239255744932535,29.08145882759021,29.337682637855607,29.289144791564297,31.585385522591878,29.81984893662991
30.8442,30.355478900150132,29.9695967212582,30.271796693748968,30.242005324305126,32.52865988822822,30.784757707676363
31.2929,31.4240303614381,30.807435623267025,31.16043698489173,31.154920827368215,33.42918695979097,31.706036511706458
31.748,32.448251985873384,31.614442357687153,32.01907168602281,32.04327882016469,34.30099265783451,32.59701620169892
32.2098,33.434963931522134,32.41037731378216,32.8639511514902,32.9210701064174,35.160106500509244,33.47193034095085
32.6783,34.38700211352736,33.218923072846195,33.7113284983152,33.80425886916453,36.02177949182945,34.344744398943675
33.1536,35.30942594643898,34.04669525208661,34.56516999366025,34.69424091311021,36.88921865294506,35.21890406566723
33.6359,36.19946353105769,34.89523218257861,35.424582516845675,35.588421908820976,37.76016029620354,36.09249000146713
34.1251,37.05590405963849,35.77101215727507,36.29127340096204,36.486196926911475,38.635006720532374,36.966409785829825
34.6215,37.88670489952881,36.67523011143618,37.167238218133434,37.38837188774028,39.51583491846668,37.84364292265653
35.125,38.70714018895836,37.61081881618247,38.05920530650627,38.30096123440444,40.408292419497315,38.73184474568896
35.6359,39.52326275388333,38.57414965542233,38.96632882339594,39.22057054564374,41.30984555219706,39.63041830267778
36.1543,40.33339654996212,39.543698504367484,39.87334145189277,40.13401671509814,42.206877984298245,40.526838343704355
36.6802,41.13637473860166,40.49891281312904,40.767385890943814,41.02688344663852,43.08500973441957,41.408559192155366
37.2137,41.94434920972731,41.43391575906429,41.648158316608686,41.90157527133286,43.94454623097316,42.27725950807664
37.755,42.782829405789656,42.36139744651064,42.53393669550343,42.77767194175803,44.804537019102895,43.15188842564561
38.3041,43.67675634244543,43.294341623047785,43.4434362414371,43.67536939123916,45.68339035235367,44.051341345848684
38.8613,44.617992108281555,44.22901324101608,44.37136609999418,44.59163778408566,46.57814353062484,44.971080835115316
39.4265,45.586590046919085,45.14867882577019,45.30360866974431,45.51446891521698,47.474415771548294,45.89583571723719
40.0,46.55754162607275,46.04165611411926,46.22287954588634,46.42905102285786,48.35751358472049,46.80915057699123
40.5818,47.5082642407876,46.90097264749126,47.11947666550087,47.325587869303774,49.218816748411015,47.69974901900012
41.1721,48.418549698142584,47.72568218524478,47.98282511335769,48.19488270333409,50.05005844327039,48.55773952484654
41.771,49.26626199143094,48.50684627692648,48.79859468213476,49.02093379562973,50.837425137099075,49.36793370215875
42.3785,50.014891057207265,49.224151223713505,49.53630035054738,49.77378233536392,51.553548594660654,50.10119689710811
42.9949,50.663749664523706,49.88089893687311,50.19675510293253,50.44963896028925,52.19857302204292,50.75733115240401
43.6203,51.230795183529025,50.49569918601112,50.792641804960255,51.062528225962524,52.787982398456734,51.35205948452966
44.2548,51.73447905461671,51.08091207236359,51.33969407840013,51.622053717536545,53.334297699436334,51.899144750912484
44.8985,52.18071521146645,51.62759000931818,51.83283276969085,52.12302597216748,53.8335506550262,52.39539752914334
45.5515,52.56437788876373,52.1127910144896,52.257851567486185,52.54925674962256,54.26812394254182,52.825626105958605
46.2141,52.89600304178046,52.529867767962514,52.617996640988,52.90294945099805,54.63823223187238,53.19171092724174
46.8863,53.20140832094616,52.88698715981417,52.93230094532653,53.20372067705057,54.95905667194526,53.51103261721518
47.5683,53.48639787137493,53.18346699944901,53.2064760180148,53.45896307566342,55.234186471427805,53.787843638951486
48.2602,53.734534431879524,53.403039676674496,53.42985389563303,53.65967734824066,55.4481065555712,54.00836416429013
48.9621,53.9441178169197,53.55282009146818,53.6103219457361,53.81660565530146,55.6067017543413,54.17857377050869
49.6743,54.138126622822895,53.66923640396095,53.77864548906692,53.96369484887563,55.74151705785778,54.32963680563523
50.3968,54.32622138274408,53.77856077724417,53.95394271007086,54.121670602585084,55.87193160673614,54.48053164984114
51.1299,54.49000107446649,53.87932479623136,54.122826378794144,54.279682750291755,55.98716752584659,54.620142104426535
51.8736,54.62279781706181,53.97656847061148,54.27673993188439,54.429318393981745,56.0843450384925,54.74413502176715
52.6281,54.73638682346433,54.08874787666804,54.423921887636595,54.57864045777765,56.17664264060848,54.86442990941012
53.3936,54.83341028624274,54.21497770907382,54.55556401244297,54.72030437089292,56.26268988183202,54.97804155888957
54.1702,54.91113597495804,54.34336827700456,54.66087725296957,54.839787838015326,56.33455020424705,55.07562628131019
54.9581,54.985514449097224,54.47120507754617,54.74333667383921,54.940547811867646,56.400502783368,55.16330624526559
55.7575,55.057102766268784,54.583925096269255,54.80000298076038,55.01739755213447,56.45543254191735,55.23581654504558
56.5685,55.11687883450283,54.65846118888085,54.82323329783931,55.061315992541026,56.48928970334873,55.28167716336341
57.3914,55.17031257187702,54.69488322315357,54.8255080872585,55.08268075227612,56.50662929341837,55.30736043946894
58.2261,55.22117849121635,54.700849696681914,54.824286325883406,55.09528198597785,56.517282204920235,55.32327303867572
59.073,55.26428188757441,54.680965014942714,54.829215117139,55.106506670857726,56.522118266650466,55.33257345959527
59.9323,55.30764255495491,54.6589902765445,54.858280548595644,55.13255628477131,56.53408694861409,55.350649429609575
60.804,55.36852302128031,54.66652723844419,54.93301010104071,55.19481635081439,56.57475208545249,55.39991419382184
61.6884,55.45040453558691,54.72307750018166,55.05529578102686,55.295667459661985,56.648465487783184,55.48630552026523
62.5857,55.54921221983702,54.82913991256899,55.210459787337754,55.42590269486493,56.749767187353356,55.603255688157034
63.496,55.65131330823348,54.9702504180228,55.37128164131079,55.56131332323302,56.859884479210706,55.731148461466006
64.4196,55.74260147203833,55.11996021792824,55.508043751784655,55.679504570131456,56.959859609750936,55.84809460126796
65.3566,55.83641434117003,55.278539966713424,55.627505704854414,55.78987127162411,57.05929892768701,55.962298356026324
66.3073,55.935680564113895,55.43331662073601,55.72980297524268,55.89361885485734,57.15737729978997,56.0722146597832
67.2717,56.03369997562518,55.56762556916604,55.811664414155175,55.98795270890082,57.246410132138095,56.17053205286143
68.2502,56.14393245365952,55.692968844597374,55.90144809345276,56.093496884071996,57.34270670379401,56.2751758521549
69.2429,56.27324368940651,55.82129565283677,56.01529841878667,56.22088383799243,57.45428672270339,56.3965813793115
70.2501,56.41289107871762,55.95035184032572,56.15273703121332,56.365515305809666,57.57503639970594,56.530113275859605
71.2719,56.551370233286335,56.081794949658445,56.30632405943052,56.51636700747751,57.69694118002806,56.66831433294621
72.3086,56.68658218942525,56.21878073787937,56.46635469779247,56.66641739671857,57.81738059155647,56.807547097284754
73.3603,56.81404654939902,56.35782204524014,56.61925455996173,56.80763246804956,57.931821671806375,56.94113307086491
74.4274,56.92759856214427,56.48776975355159,56.747276530102795,56.92882383908187,58.031334583960245,57.0582091722887
75.5099,57.031571092458975,56.605669039188456,56.851718089074495,57.03539562341268,58.11964790793559,57.16130873946432
76.6083,57.15628393039927,56.73462174717234,56.96133458447014,57.15456972370049,58.22382946052949,57.27777015458264
77.7226,57.31050590088124,56.88230126619047,57.09382970531691,57.30133142246045,58.35429468199918,57.419449597967244
78.8531,57.48966182659001,57.04866298767378,57.254736150655575,57.47331147451766,58.50803670741905,57.585267437956134
80.0,57.69393199367596,57.243044181112566,57.45231038805804,57.67292469404293,58.68821937942137,57.77969175383119
81.1636,57.875167914942864,57.4237777852493,57.63940580384127,57.852155789504124,58.84707057816553,57.95602806079344
82.3442,58.04626190635156,57.6078153412589,57.824786372296586,58.02396513299951,58.9995507468947,58.127655265227375
83.5419,58.248083079841905,57.82913240299601,58.03700856462119,58.223136609393265,59.18240940829145,58.32974304108723
84.757,58.42813556682593,58.03141191701124,58.217944639354755,58.39910560743958,59.343741437556815,58.508589123054264
85.9899,58.599145746760314,58.21935168622895,58.380625078662575,58.565703175494164,59.49581069855654,58.67563887821916
87.2406,58.77910343769642,58.41064690227432,58.55063865622725,58.746924905767145,59.66230290524079,58.852782274208735
88.5096,58.9753594557191,58.615316173988575,58.74769891513719,58.954381964732846,59.855089923737424,59.05206200169164
89.797,59.16734477365725,58.81407424222898,58.95659876432333,59.16887485517947,60.05490220521345,59.25471805260014
91.1031,59.32793004939603,58.98058589909162,59.145735617260016,59.355724820906104,60.22830374345921,59.42995141417819
92.4282,59.41875391396786,59.071713923696024,59.26582468739386,59.46828411769698,60.32769419433046,59.53265987760119
93.7726,59.49717766902978,59.141974493230734,59.35760705935691,59.55180481466084,60.396291749651894,59.610780755675336
95.1366,59.6151712331596,59.24978049465281,59.46769717953032,59.65877673173179,60.48582990762338,59.71647126368309
96.5204,59.77081516882612,59.39968056701673,59.59968157920551,59.79396308572785,60.60079448071693,59.85288996281949
97.9243,59.973694968866425,59.611036335558055,59.779416439187315,59.98052674281388,60.76643354654772,60.04089456019233
99.3486,60.18169089738586,59.839705024913954,59.97831484300556,60.18611557838568,60.9529791846919,60.24539928997706
100.794,60.3781099498281,60.05568022422729,60.18319175577918,60.392768386252826,61.14369863898591,60.44765771839157
102.26,60.55597001302334,60.23999605754386,60.38046682885167,60.586207436381,61.324090533266755,60.63402856684988
103.747,60.72790219392738,60.3989657230606,60.56957398868681,60.76679078074015,61.491806389047426,60.80756792537056
105.256,60.90527267478811,60.556276144490056,60.753278552885064,60.945139538321996,61.65358401938923,60.979040871939006
106.787,61.08679137393315,60.72860502698995,60.93144988056096,61.12509969235575,61.81350900905775,61.15291067300828
108.34,61.2423207495636,60.89695161796391,61.0837657600472,61.2854914383403,61.95139454895187,61.307024216843644
109.916,61.37867451752052,61.06100564949398,61.225056414011746,61.43470156453351,62.08043534383481,61.45023524158027
111.515,61.51282462665844,61.221029656809606,61.37389332900666,61.584298190752506,62.215323595808385,61.59516537058299
113.137,61.6611140399863,61.37729058925946,61.53340703622196,61.73728880896782,62.35933392481675,61.747005195302336
114.783,61.811789267222,61.51695214197814,61.68150680267496,61.87608971334629,62.49349110665092,61.88899818053238
116.452,61.95466891537197,61.642680567016725,61.8060898921414,61.99550845703473,62.60800756516193,62.01405343479718
118.146,62.10833468411971,61.78831686381277,61.93857458989095,62.128548362005276,62.73284280028571,62.15150060229686
119.865,62.25731233540395,61.9456426014428,62.084637962084486,62.275180861312776,62.865916751332975,62.29736339863962
121.608,62.39670871626387,62.10568192861008,62.24580755544423,62.43199989072701,63.00515827775217,62.448156618493186
123.377,62.52958657337305,62.26429173807506,62.411834431546524,62.592808007992886,63.1436302093513,62.59897581083666
125.171,62.64788822519755,62.401974045101184,62.549406671936936,62.73019219585065,63.259616050336376,62.727855568580296
126.992,62.75528794117426,62.5170607751984,62.65178833320495,62.840384610489934,63.351974352724184,62.83288428819907
128.839,62.85028934723242,62.60834364155468,62.73204086824519,62.929399993050936,63.43014037002513,62.91937594272518
130.713,62.913453725485184,62.65861622627966,62.78919222817595,62.98938633604628,63.4817106141256,62.9757457858212
132.615,62.93527349531108,62.66429503825569,62.81488517910438,63.01198002602001,63.49455242815395,62.9934506222956
134.543,62.97625805398607,62.69936790066777,62.85681812838418,63.05160221943498,63.52170126177273,63.03014559672228
136.5,63.03075253610274,62.76175751293161,62.90847488258768,63.101412375806305,63.560950145633925,63.08120858364511
138.486,63.03523266863908,62.780685500000786,62.91447145434759,63.10358912313595,63.55786934807803,63.08651923583487
140.5,63.04165844205471,62.79562468624768,62.92967210842119,63.11154078433715,63.56296695560444,63.096231134040096
142.544,63.076350550941214,62.82696253248217,62.96685734123086,63.146295210008006,63.59060091782224,63.12921915822433
144.617,63.09561264587521,62.844009904230504,62.975402492835514,63.16008100770685,63.592692055265076,63.1410892584025
146.721,63.12429077825749,62.88273450021698,62.99363877260808,63.186277344637574,63.60475968077061,63.16545858200192
148.855,63.1842596684271,62.956020932787155,63.05447279739788,63.25069675390678,63.65587328518093,63.227030234101775
151.02,63.191850515159146,62.96463006985937,63.06789488764292,63.261946319912965,63.656833169586776,63.23520731164491
153.217,63.16377761054835,62.928940100896895,63.03589465515162,63.225790837863485,63.608688574250365,63.19890264270141
155.445,63.15996909699605,62.93194540003799,63.02847670486385,63.21218829140264,63.579200144288535,63.18807880266026
157.706,63.09720913715151,62.893966216606756,62.98038240679956,63.15656503377815,63.50623009088288,63.13203602067594
160.0,62.96119895313734,62.78162807047998,62.87157189406898,63.042974348891335,63.383444551836774,63.01316408979778
162.327,62.94215350201404,62.76328465835442,62.860560987427334,63.03178970595894,63.37550347003257,62.99981089007885
164.688,62.95662131375387,62.76464004130047,62.8577029661941,63.03215129914051,63.375402902596164,63.00242455418717
167.084,63.05243563089368,62.857979134040534,62.93553839117598,63.11552081995106,63.43687563322277,63.08432011263875
169.514,62.99504227745214,62.82728734474013,62.88207531211491,63.06911221791799,63.36030163667391,63.030833897230906
171.98,62.82892421266929,62.69103991361524,62.734479828855854,62.91730321878953,63.20142862016144,62.878458152211266
174.481,62.75378177969991,62.61543633021948,62.680077615743954,62.84191765168768,63.13281194903436,62.80860445322706
177.019,62.73384182713559,62.57532464012803,62.68017468423626,62.82032962741283,63.10577981400725,62.78685454803812
179.594,62.742912120600494,62.58293871890439,62.69374228674957,62.83120647727796,63.104199346072875,62.794599903757685
182.206,62.793358164498414,62.65998905106143,62.71613978557831,62.86871222219281,63.142837103568596,62.83952367469587
184.856,62.86461587296387,62.737961345935446,62.76649364440301,62.918300086891406,63.19201037676282,62.89892414355187
187.545,62.917410435229826,62.77030154129524,62.834318673268115,62.97075347920395,63.22206876669256,62.94578222933674
190.273,62.99669399402552,62.83962044561676,62.92371299652257,63.06288767407722,63.29060019695616,63.02542710208104
193.041,63.0400474791476,62.89560625569487,62.94443485406359,63.10587834525691,63.33106142586989,63.06610603879243
195.849,63.05253751147225,62.92628475003488,62.94428825704205,63.114311396060145,63.33562029861261,63.077143920091515
198.697,63.07078592181999,62.96532840680119,62.97464615173939,63.131141020098084,63.34033662805216,63.09861597162414
201.587,62.976247093659765,62.88796909002939,62.88478924112964,63.0281506297307,63.23679871906273,63.00472404749385
204.52,62.862493594807745,62.76997460893027,62.774928650259525,62.91614556221515,63.124898760262596,62.89164570402512
207.494,62.749443087237324,62.641992533846675,62.677768979005464,62.81971687437972,63.01269839949573,62.782323334908085
210.512,62.68188117181421,62.57065797205138,62.61064557835728,62.747250578936175,62.927097683540424,62.7093282090088
213.574,62.597566147083626,62.49761124730681,62.518490420479566,62.64384106952069,62.81797500302848,62.61661359856984
216.681,62.552710250070604,62.47196253248218,62.48076645333225,62.604882736175895,62.76556057460891,62.576502323898396
219.833,62.508673757849564,62.44532434822814,62.45273672836554,62.57189326079502,62.725918623465205,62.54214129256414
223.03,62.55569170550203,62.49430279723575,62.50531866639717,62.610298683818684,62.76228559861792,62.58668072301951
226.274,62.51296760986355,62.45253118890331,62.442719689042704,62.57074718084337,62.69704371105814,62.5362048924936
