Freq "Front Wall Bounce"
20.0 -2.98611141025755
20.2909 1.4957155486576
20.586 4.430968836840734
20.8855 6.487970846286586
21.1893 7.880715973628824
21.4975 8.867146195462894
21.8102 9.540488135735856
22.1274 9.966364572444249
22.4492 10.229908363888669
22.7758 10.468650453833945
23.1071 10.908716942470207
23.4432 11.828947340955963
23.7841 13.287990665833192
24.1301 14.933387099333501
24.4811 16.474724403403158
24.8372 17.796725934957053
25.1984 18.928306593608184
25.5649 19.99683635675349
25.9368 21.131684656037677
26.3141 22.36754020382456
26.6968 23.621375732581427
27.0851 24.770875672891336
27.4791 25.734928221691533
27.8788 26.519633881487337
28.2843 27.217482360672406
28.6957 27.938074294986123
29.1131 28.760221489120866
29.5365 29.69041809946792
29.9661 30.677138506586076
30.402 31.657745530937362
30.8442 32.59185958683072
31.2929 33.480499877973486
31.748 34.33913457910457
32.2098 35.18401404457195
32.6783 36.03139139139695
33.1536 36.885232886742
33.6359 37.74464540992743
34.1251 38.611336294043795
34.6215 39.48730111121519
35.125 40.379268199588026
35.6359 41.286391716477695
36.1543 42.193404344974525
36.6802 43.08744878402557
37.2137 43.96822120969044
37.755 44.85399958858518
38.3041 45.76349913451885
38.8613 46.69142899307593
39.4265 47.62367156282606
40.0 48.5429424389681
40.5818 49.439539558582624
41.1721 50.302888006439446
41.771 51.11865757521652
42.3785 51.85636324362913
42.9949 52.51681799601428
43.6203 53.11270469804201
44.2548 53.65975697148188
44.8985 54.15289566277261
45.5515 54.57791446056794
46.2141 54.93805953406975
46.8863 55.252363838408286
47.5683 55.52653891109655
48.2602 55.749916788714785
48.9621 55.93038483881786
49.6743 56.09870838214867
50.3968 56.27400560315262
51.1299 56.4428892718759
51.8736 56.59680282496615
52.6281 56.74398478071835
53.3936 56.875626905524726
54.1702 56.980940146051324
54.9581 57.063399566920964
55.7575 57.12006587384214
56.5685 57.14329619092106
57.3914 57.14557098034025
58.2261 57.14434921896516
59.073 57.149278010220755
59.9323 57.1783434416774
60.804 57.25307299412246
61.6884 57.37535867410861
62.5857 57.53052268041951
63.496 57.69134453439254
64.4196 57.82810664486641
65.3566 57.94756859793617
66.3073 58.04986586832443
67.2717 58.13172730723693
68.2502 58.22151098653451
69.2429 58.335361311868425
70.2501 58.472799924295074
71.2719 58.62638695251228
72.3086 58.78641759087422
73.3603 58.939317453043486
74.4274 59.06733942318455
75.5099 59.17178098215625
76.6083 59.28139747755189
77.7226 59.41389259839866
78.8531 59.57479904373733
80.0 59.77237328113979
81.1636 59.959468696923025
82.3442 60.14484926537834
83.5419 60.35707145770294
84.757 60.53800753243651
85.9899 60.70068797174433
87.2406 60.870701549309004
88.5096 61.06776180821895
89.797 61.276661657405086
91.1031 61.46579851034177
92.4282 61.585887580475614
93.7726 61.67766995243866
95.1366 61.78776007261207
96.5204 61.91974447228726
97.9243 62.09947933226907
99.3486 62.29837773608732
100.794 62.50325464886093
102.26 62.70052972193342
103.747 62.88963688176857
105.256 63.07334144596682
106.787 63.251512773642716
108.34 63.403828653128954
109.916 63.5451193070935
111.515 63.69395622208842
113.137 63.853469929303714
114.783 64.00156969575671
116.452 64.12615278522316
118.146 64.2586374829727
119.865 64.40470085516624
121.608 64.56587044852598
123.377 64.73189732462828
125.171 64.86946956501869
126.992 64.9718512262867
128.839 65.05210376132695
130.713 65.1092551212577
132.615 65.13494807218613
134.543 65.17688102146593
136.5 65.22853777566944
138.486 65.23453434742935
140.5 65.24973500150294
142.544 65.28692023431262
144.617 65.29546538591727
146.721 65.31370166568983
148.855 65.37453569047963
151.02 65.38795778072468
153.217 65.35595754823338
155.445 65.3485395979456
157.706 65.30044529988132
160.0 65.19163478715073
162.327 65.18062388050909
164.688 65.17776585927585
167.084 65.25560128425774
169.514 65.20213820519666
171.98 65.05454272193761
174.481 65.00014050882571
177.019 65.00023757731802
179.594 65.01380517983132
182.206 65.03620267866006
184.856 65.08655653748477
187.545 65.15438156634987
190.273 65.24377588960432
193.041 65.26449774714534
195.849 65.2643511501238
198.697 65.29470904482115
201.587 65.2048521342114
204.52 65.09499154334128
207.494 64.99783187208722
210.512 64.93070847143903
213.574 64.83855331356132
216.681 64.800829346414
219.833 64.77279962144729
223.03 64.82538155947893
226.274 64.76278258212446
229.565 64.71447541169505
232.905 64.6987190162272
236.292 64.72902061055734
239.729 64.74158426129918
243.216 64.82788374622992
246.754 64.89390576704112
250.343 64.8980377174403
253.984 64.91873414636738
257.678 64.89516176232844
261.426 64.90230870865902
265.229 64.87929678794292
269.087 64.81501605495968
273.001 64.72860864706836
276.972 64.38029109698981
281.0 64.26129136263745
285.088 64.38000838620502
289.234 64.55372706606427
293.441 64.69700272926124
297.709 64.715729902874
302.04 64.63758937280579
306.433 64.48858991564198
310.89 64.67031664652124
315.412 64.60875505456633
320.0 64.54847792224804
324.655 64.55419496913399
329.377 64.68362537688274
334.168 64.7630760512115
339.028 64.76552463763245
343.959 64.74945459980624
348.962 64.83705346370438
354.038 64.98153976043254
359.188 65.08799341278852
364.412 65.03545020047959
369.713 64.99606802313986
375.09 65.00565038439447
380.546 65.11052021643555
386.081 65.16157462340843
391.697 65.13781662367307
397.394 65.10415721249753
403.175 64.97316191224998
409.039 64.98460712036908
414.989 64.9270317336884
421.025 64.93664339745763
427.149 64.8739940706724
433.362 64.83296465334567
439.665 64.7826897239804
446.06 64.70149356389427
452.548 64.66925685799781
459.131 64.64709294169046
465.809 64.67965674976908
472.584 64.59044124227097
479.458 64.54189156888465
486.432 64.54573518214669
493.507 64.51971162855399
500.686 64.53626102855034
507.968 64.60245290140128
515.357 64.6780083872482
522.853 64.78305200915038
530.458 64.92387299774526
538.174 65.08719655702785
546.002 65.26394767384018
553.943 65.46892816648518
562.001 65.68946170114735
570.175 65.92335684212075
578.469 66.15331076507309
586.883 66.38509558515756
595.419 66.60337009481897
604.08 66.8138439879754
612.866 67.00879133491384
621.78 67.20115114357206
630.824 67.36303820037699
640.0 67.50244396062708
649.309 67.61512256261712
658.753 67.70994728351211
668.335 67.76821422247626
678.056 67.80142702195968
687.919 67.79944543418266
697.925 67.76455552578982
708.077 67.70636936912803
718.376 67.6157581137535
728.825 67.50295301755477
739.426 67.36221671749016
750.181 67.21220673541339
761.093 67.06253966531308
772.163 66.92543097272448
783.394 66.81344398842633
794.789 66.74645556823093
806.349 66.73785459312668
818.078 66.80193972358204
829.977 66.94113286847524
842.05 67.15497835080158
854.298 67.4295384086293
866.724 67.74655750344296
879.33 68.09262476565841
892.12 68.44459710515413
905.097 68.78752442867687
918.262 69.10912291825666
931.618 69.39322648322175
945.169 69.63385343610497
958.917 69.82587624323143
972.864 69.9682713218984
987.015 70.0580750016632
1001.37 70.08837618465074
1015.94 70.07060653910068
1030.71 70.00490105171403
1045.71 69.89661227147802
1060.92 69.74588563965578
1076.35 69.56597333150769
1092.0 69.3578749098424
1107.89 69.12523379909652
1124.0 68.8798664497411
1140.35 68.62417758635195
1156.94 68.36538883856367
1173.77 68.11523420997787
1190.84 67.88657384572788
1208.16 67.70597615233085
1225.73 67.5923773549941
1243.56 67.57604707251512
1261.65 67.67674014409626
1280.0 67.90159988871476
1298.62 68.23793441527465
1317.51 68.64736258974987
1336.67 69.08954456135957
1356.11 69.53677895898245
1375.84 69.95301244795276
1395.85 70.31644707990247
1416.15 70.60940604333702
1436.75 70.83187792196647
1457.65 70.98957026315018
1478.85 71.09016872780154
1500.36 71.14021288392911
1522.19 71.15288118908232
1544.33 71.13991462571629
1566.79 71.10815041446945
1589.58 71.06186204947896
1612.7 71.00367513223739
1636.16 70.94118951366283
1659.95 70.87701730447222
1684.1 70.82125550422595
1708.6 70.77048044425102
1733.45 70.72419163202852
1758.66 70.66934457705004
1784.24 70.58518047103738
1810.19 70.45071703906304
1836.52 70.25965370787284
1863.24 70.01579531192642
1890.34 69.75157308556263
1917.83 69.5138214925014
1945.73 69.35353283118441
1974.03 69.29005035922263
2002.74 69.29316124827393
2031.87 69.29742629164566
2061.43 69.23577740474802
2091.41 69.0664271350127
2121.83 68.80315001268404
2152.69 68.52009996584881
2184.01 68.30469564783434
2215.77 68.21633402995943
2248.0 68.23085266036837
2280.7 68.2580277465346
2313.87 68.21531850305087
2347.53 68.08926055000492
2381.68 67.92736378340713
2416.32 67.80979663631472
2451.46 67.77289071491141
2487.12 67.76824416661198
2523.3 67.7167896835175
2560.0 67.58442194889425
2597.24 67.43247846457835
2635.01 67.36260065133648
2673.34 67.4263229841258
2712.23 67.55151192628698
2751.68 67.62383316749809
2791.7 67.59426550682686
2832.31 67.5287351208812
2873.5 67.54284311024634
2915.3 67.67938533261523
2957.7 67.86530111805126
3000.72 68.00936699811146
3044.37 68.09306083216205
3088.65 68.15484748992
3133.58 68.22911157857342
3179.16 68.29141284757033
3225.4 68.29514730986357
3272.31 68.227660519755
3319.91 68.1203199992799
3368.2 68.00989926194482
3417.19 67.92032963067682
3466.89 67.87852242862608
3517.32 67.90617746044983
3568.48 68.00429706811
3620.39 68.14143552197582
3673.05 68.24882700880632
3726.47 68.23062427025263
3780.67 68.03802846171436
3835.67 67.75743467843634
3891.46 67.58779446725896
3948.06 67.59093667044779
4005.49 67.61032283949476
4063.75 67.53010305883882
4122.86 67.43591736069115
4182.82 67.41868479673037
4243.66 67.42187424481828
4305.39 67.3899408186435
4368.01 67.37820691586403
4431.55 67.42294288815866
4496.01 67.48873840914135
4561.4 67.52206671883049
4627.75 67.50830622307859
4695.06 67.49561371556014
4763.35 67.46440817368254
4832.64 67.28933868968137
4902.93 67.03718774628082
4974.24 66.89016929145227
5046.6 66.74821627254697
5120.0 66.58491715564621
5194.47 66.59782150133198
5270.03 66.53866912063695
5346.68 66.12862313165769
5424.45 65.48926252052259
5503.35 64.5739277423262
5583.4 63.57404206022926
5664.61 62.92993052205075
5747.01 62.22397561011827
5830.6 61.449761305544726
5915.41 60.802057494187196
6001.45 59.7388856902685
6088.74 58.59980175005214
6177.3 57.71026346698652
6267.15 57.04054066812283
6358.31 57.26531995922586
6450.8 58.8358101741415
6544.62 60.80134109467069
6639.82 63.024252743817485
6736.4 65.20148970728498
6834.38 66.6436241802514
6933.79 67.51664560758182
7034.64 67.98664178621814
7136.96 67.90424304638128
7240.77 67.64200399846553
7346.09 67.51599766914097
7452.94 67.41856600217062
7561.35 67.34894252304717
7671.33 67.41502701172158
7782.91 67.55020751176919
7896.12 67.83067224229356
8010.97 68.11016529620625
8127.49 68.45079844557915
8245.71 68.82085134166095
8365.65 69.27190587385725
8487.33 69.75189281820356
8610.78 70.07251749693268
8736.03 70.11185562574427
8863.09 69.78717685333393
8992.01 69.3853343911666
9122.8 69.06412097654639
9255.5 68.89075098443959
9390.12 68.8407593200437
9526.7 68.85638112325283
9665.27 68.95492091130664
9805.86 69.12975188171713
9948.49 69.40029060449884
10093.2 69.57755902584556
10240.0 69.45979722860322
10388.9 69.27119384757725
10540.1 69.14881669213743
10693.4 69.08917172962879
10848.9 69.15622765459206
11006.7 69.34168545514679
11166.8 69.6240354029937
11329.2 69.87314472127187
11494.0 70.02492213458545
11661.2 70.11256598588524
11830.8 70.40050562721044
12002.9 70.27924362555632
12177.5 69.93752181166509
12354.6 69.90437757459225
12534.3 69.96958830590467
12716.6 69.94710989050138
12901.6 69.90790016362426
13089.2 69.84808714465966
13279.6 69.71493242499592
13472.8 69.5101430889494
13668.8 69.22649708095618
13867.6 68.90315191377819
14069.3 68.46766097239544
14273.9 67.9468489651867
14481.5 67.86189009108156
14692.2 68.07746619514903
14905.9 68.41630345681473
15122.7 68.61896871968621
15342.7 68.74554247004973
15565.8 68.82089467197603
15792.2 68.8809369563929
16021.9 68.8612166838448
16255.0 68.86090800194603
16491.4 68.8964812056011
16731.3 68.94324064534905
16974.7 68.88158899359615
17221.6 68.63195874602617
17472.1 68.29527091225614
17726.2 67.93399909903609
17984.0 67.40769009803616
18245.6 66.75263916881852
18511.0 66.20732527647725
18780.2 65.77556720407416
19053.4 65.38211894283602
19330.5 64.87853022086327
19611.7 64.4089290140363
19897.0 64.16597481718479
