Freq "Rear Wall Bounce"
20.0 -0.35130356529198536
20.2909 4.137599297766641
20.586 7.079868886182609
20.8855 9.144385852044863
21.1893 10.543361856533451
21.4975 11.534978804526148
21.8102 12.210703614020773
22.1274 12.63617834634043
22.4492 12.896517971825247
22.7758 13.12839669402156
23.1071 13.557088252650729
23.4432 14.461850021276561
23.7841 15.900971750117222
24.1301 17.52191966349484
24.4811 19.035994304365758
24.8372 20.32681966531048
25.1984 21.425820863550044
25.5649 22.460274607331016
25.9368 23.56085344309504
26.3141 24.763106600987882
26.6968 25.98437138776943
27.0851 27.104016295525483
27.4791 28.04110492927471
27.8788 28.803740087118754
28.2843 29.48369765118251
28.6957 30.1910402817076
29.1131 31.005285763795044
29.5365 31.93217263809059
29.9661 32.91991965302371
30.402 33.90544841567363
30.8442 34.848722781309974
31.2929 35.74924985287272
31.748 36.62105555091627
32.2098 37.480169393591
32.6783 38.3418423849112
33.1536 39.209281546026816
33.6359 40.08022318928529
34.1251 40.95506961361413
34.6215 41.835897811548435
35.125 42.72835531257907
35.6359 43.629908445278815
36.1543 44.52694087738
36.6802 45.405072627501326
37.2137 46.264609124054914
37.755 47.12459991218465
38.3041 48.00345324543542
38.8613 48.8982064237066
39.4265 49.79447866463005
40.0 50.67757647780225
40.5818 51.53887964149277
41.1721 52.37012133635214
41.771 53.15748803018083
42.3785 53.87361148774241
42.9949 54.518635915124676
43.6203 55.10804529153849
44.2548 55.65436059251809
44.8985 56.153613548107955
45.5515 56.588186835623574
46.2141 56.958295124954134
46.8863 57.27911956502702
47.5683 57.55424936450956
48.2602 57.768169448652955
48.9621 57.926764647423056
49.6743 58.06157995093953
50.3968 58.191994499817895
51.1299 58.30723041892834
51.8736 58.404407931574255
52.6281 58.49670553369023
53.3936 58.58275277491377
54.1702 58.654613097328806
54.9581 58.72056567644975
55.7575 58.7754954349991
56.5685 58.809352596430486
57.3914 58.826692186500125
58.2261 58.83734509800199
59.073 58.84218115973222
59.9323 58.85414984169584
60.804 58.89481497853424
61.6884 58.96852838086494
62.5857 59.06983008043511
63.496 59.17994737229246
64.4196 59.27992250283269
65.3566 59.379361820768764
66.3073 59.477440192871725
67.2717 59.56647302521985
68.2502 59.66276959687576
69.2429 59.77434961578514
70.2501 59.89509929278769
71.2719 60.01700407310982
72.3086 60.137443484638226
73.3603 60.25188456488813
74.4274 60.351397477042
75.5099 60.43971080101734
76.6083 60.54389235361124
77.7226 60.67435757508093
78.8531 60.828099600500806
80.0 61.00828227250312
81.1636 61.16713347124728
82.3442 61.31961363997645
83.5419 61.5024723013732
84.757 61.66380433063857
85.9899 61.815873591638294
87.2406 61.98236579832255
88.5096 62.17515281681918
89.797 62.374965098295206
91.1031 62.54836663654096
92.4282 62.64775708741222
93.7726 62.71635464273365
95.1366 62.80589280070514
96.5204 62.92085737379868
97.9243 63.08649643962947
99.3486 63.27304207777365
100.794 63.463761532067664
102.26 63.64415342634851
103.747 63.81186928212918
105.256 63.97364691247098
106.787 64.13357190213951
108.34 64.27145744203362
109.916 64.40049823691656
111.515 64.53538648889014
113.137 64.6793968178985
114.783 64.81355399973268
116.452 64.92807045824368
118.146 65.05290569336746
119.865 65.18597964441473
121.608 65.32522117083393
123.377 65.46369310243306
125.171 65.57967894341813
126.992 65.67203724580594
128.839 65.75020326310688
130.713 65.80177350720736
132.615 65.8146153212357
134.543 65.84176415485449
136.5 65.88101303871568
138.486 65.87793224115978
140.5 65.88302984868619
142.544 65.910663810904
144.617 65.91275494834683
146.721 65.92482257385237
148.855 65.97593617826269
151.02 65.97689606266853
153.217 65.92875146733212
155.445 65.89926303737029
157.706 65.82629298396463
160.0 65.70350744491853
162.327 65.69556636311432
164.688 65.69546579567792
167.084 65.75693852630452
169.514 65.68036452975566
171.98 65.52149151324319
174.481 65.45287484211612
177.019 65.425842707089
179.594 65.42426223915463
182.206 65.46289999665035
184.856 65.51207326984458
187.545 65.54213165977431
190.273 65.61066309003792
193.041 65.65112431895164
195.849 65.65568319169437
198.697 65.66039952113391
201.587 65.55686161214449
204.52 65.44496165334435
207.494 65.33276129257749
210.512 65.24716057662218
213.574 65.13803789611023
216.681 65.08562346769067
219.833 65.04598151654696
223.03 65.08234849169968
226.274 65.0171066041399
229.565 64.98200573891513
232.905 64.95893733163929
236.292 64.96192669132682
239.729 64.95177052286246
243.216 65.02829368996318
246.754 65.07993321925848
250.343 65.05429829742118
253.984 65.05897733937151
257.678 65.02795303501624
261.426 65.01531688932404
265.229 64.97507369394049
269.087 64.90144804488635
273.001 64.79660006043518
276.972 64.41401086650889
281.0 64.27017042175693
285.088 64.37588371275034
289.234 64.51590460674188
293.441 64.63283813885154
297.709 64.63144530898026
302.04 64.50695316673695
306.433 64.33988853707113
310.89 64.48238579429733
315.412 64.39856751902946
320.0 64.30298429444696
324.655 64.27476883205708
329.377 64.37409600990101
334.168 64.40842847439205
339.028 64.36329783195764
343.959 64.30444521498391
348.962 64.34101516532108
354.038 64.44493823960421
359.188 64.49714561284627
364.412 64.38779910061996
369.713 64.27234294138246
375.09 64.22432920352634
380.546 64.25586734047342
386.081 64.21611377119952
391.697 64.10004615208132
397.394 63.97839981867763
403.175 63.74033336924556
409.039 63.64618378988487
414.989 63.467063334521455
421.025 63.34002805942201
427.149 63.14960118687917
433.362 62.97020804456359
439.665 62.74438865392155
446.06 62.506982734090414
452.548 62.3038581463491
459.131 62.10846283077339
465.809 61.94761233070294
472.584 61.666930307629286
479.458 61.441455484816814
486.432 61.2749600253037
493.507 61.088430674270256
500.686 60.97468928422329
507.968 60.92562539849477
515.357 60.919859780512894
522.853 60.9772220658332
530.458 61.1012951881536
538.174 61.26462953918083
546.002 61.47879203243197
553.943 61.71287619186842
562.001 61.986784908767945
570.175 62.27747684641025
578.469 62.56364483117768
586.883 62.83898865481224
595.419 63.1032931009499
604.08 63.34087357023469
612.866 63.555771206728906
621.78 63.746359022598966
630.824 63.893913335661665
640.0 64.00302841253169
649.309 64.06266686248728
658.753 64.08067925833741
668.335 64.04446311620612
678.056 63.951898713244276
687.919 63.79893667038246
697.925 63.57686663221243
708.077 63.30088957473407
718.376 62.96449816435204
728.825 62.571412882840846
739.426 62.13640349961112
750.181 61.694349454159735
761.093 61.29782550033582
772.163 61.021867667420935
783.394 60.95259352605004
794.789 61.14303056602189
806.349 61.60198682709877
818.078 62.29148988199573
829.977 63.12190610561582
842.05 64.01249351222278
854.298 64.90149302284787
866.724 65.73035597319343
879.33 66.50037596356646
892.12 67.19244239062179
905.097 67.78843682668001
918.262 68.29455685503751
931.618 68.70386552444576
945.169 69.0150581055219
958.917 69.23164446628401
972.864 69.35338167498807
987.015 69.37442695026712
1001.37 69.29387654868167
1015.94 69.11453716618345
1030.71 68.84086266163285
1045.71 68.46842591287292
1060.92 67.9960683488442
1076.35 67.44212860642
1092.0 66.80974276583689
1107.89 66.10806233698489
1124.0 65.3631931136977
1140.35 64.5976792739212
1156.94 63.83657482333035
1173.77 63.10652099956023
1190.84 62.4442924514518
1208.16 61.837644610103396
1225.73 61.305646602481545
1243.56 60.87080402665508
1261.65 60.57576268215962
1280.0 60.46703391877027
1298.62 60.597323316039024
1317.51 60.94904374557231
1336.67 61.47494855401253
1356.11 62.08041857943073
1375.84 62.65775872129531
1395.85 63.1377630221713
1416.15 63.45817797103115
1436.75 63.58943665105444
1457.65 63.52217412747294
1478.85 63.2586777747933
1500.36 62.826538486535114
1522.19 62.27577914806338
1544.33 61.706907838069895
1566.79 61.241222740820206
1589.58 60.984903098354465
1612.7 60.95964121888153
1636.16 61.081927925485644
1659.95 61.224719633526846
1684.1 61.28980953636271
1708.6 61.221828954897205
1733.45 61.05019952257351
1758.66 60.818267563799765
1784.24 60.62495505838952
1810.19 60.52925636875132
1836.52 60.5385067622604
1863.24 60.5804856670175
1890.34 60.55903945384733
1917.83 60.40818612635093
1945.73 60.12480560630756
1974.03 59.764951665192896
2002.74 59.44940710794587
2031.87 59.29997185620668
2061.43 59.333549520774554
2091.41 59.43664180993849
2121.83 59.47033961618165
2152.69 59.34672164720898
2184.01 59.069768007076235
2215.77 58.726689300435524
2248.0 58.46524229882887
2280.7 58.3804560716607
2313.87 58.42195296379957
2347.53 58.46245723706018
2381.68 58.39994859543927
2416.32 58.234344338821046
2451.46 58.03612268519623
2487.12 57.90664459041186
2523.3 57.86107704662025
2560.0 57.83687331750747
2597.24 57.77432383698077
2635.01 57.65202707796975
2673.34 57.53403427422704
2712.23 57.45235618671062
2751.68 57.368142974666924
2791.7 57.2400026903607
2832.31 57.07297482811772
2873.5 56.98675925514682
2915.3 57.0772793028069
2957.7 57.278633291774824
3000.72 57.41041124189189
3044.37 57.34035522459415
3088.65 57.13117652258019
3133.58 56.93315333717625
3179.16 56.843926668870125
3225.4 56.79696211992123
3272.31 56.69603349256205
3319.91 56.571374128256664
3368.2 56.55237426072462
3417.19 56.65054320556365
3466.89 56.75014432027048
3517.32 56.76213062738094
3568.48 56.6801115992164
3620.39 56.535026383245324
3673.05 56.30756310654074
3726.47 56.066073590317146
3780.67 55.96244329774977
3835.67 55.990679460311625
3891.46 55.975373333732335
3948.06 55.789003997248116
4005.49 55.52561043512084
4063.75 55.326541954413656
4122.86 55.19459545979986
4182.82 55.05817506786788
4243.66 54.85425495140031
4305.39 54.57460787958145
4368.01 54.22267278762803
4431.55 53.966893557809854
4496.01 53.8794097924343
4561.4 53.74385226613214
4627.75 53.297114766309846
4695.06 52.592489924071884
4763.35 51.86509538619303
4832.64 51.34184410762374
4902.93 51.386431431989806
4974.24 51.71814523699206
5046.6 51.53348751293193
5120.0 51.14783836498968
5194.47 51.435864852034896
5270.03 51.979692474355275
5346.68 52.757549665663376
5424.45 53.86431821593193
5503.35 54.471622870352164
5583.4 54.735234362189914
5664.61 55.19437422204098
5747.01 55.58828118349231
5830.6 55.89164375039569
5915.41 56.061372606195974
6001.45 56.024045177863826
6088.74 56.0703052170785
6177.3 55.95106069529767
6267.15 55.6367524786551
6358.31 55.442539355211
6450.8 55.33338268291857
6544.62 55.466092303806974
6639.82 55.71672249696054
6736.4 55.65679942879612
6834.38 55.23393429878932
6933.79 54.90426914778817
7034.64 54.479428967803244
7136.96 53.721886028557776
7240.77 53.393183188391475
7346.09 53.04522193518608
7452.94 53.193148614888244
7561.35 52.93147105131611
7671.33 52.014841946327635
7782.91 51.860896749054504
7896.12 51.42874958191206
8010.97 51.19040468776363
8127.49 51.03136398659056
8245.71 50.748700255291496
8365.65 50.54468889824774
8487.33 50.35213611421405
8610.78 50.20229396924098
8736.03 50.0483115073401
8863.09 50.72358639195025
8992.01 51.231433247538845
9122.8 51.25109680368773
9255.5 50.90574831591515
9390.12 50.88104160859265
9526.7 50.74915445730525
9665.27 50.97460268475223
9805.86 51.03451356625166
9948.49 50.90534165023507
10093.2 50.6631226296595
10240.0 51.20015349900818
10388.9 51.50880573983595
10540.1 51.35100031334156
10693.4 51.28025623702413
10848.9 50.81370478477031
11006.7 50.4936888304499
11166.8 50.026054208196925
11329.2 49.64224323127168
11494.0 49.463628037988485
11661.2 49.47365102229405
11830.8 49.21346365008134
12002.9 49.26905256465601
12177.5 49.676075676355524
12354.6 50.10380189475123
12534.3 49.8945399607331
12716.6 49.49775898213038
12901.6 48.64113018508722
13089.2 47.74103696873857
13279.6 46.69301663698485
13472.8 46.37504132564992
13668.8 46.26493244631206
13867.6 45.37921859106832
14069.3 43.486940796565776
14273.9 41.67607168191573
14481.5 40.243665084322274
14692.2 39.54469561715841
14905.9 39.08724313012324
15122.7 39.03890934984541
15342.7 39.55184947075402
15565.8 39.97974494694871
15792.2 40.3680140757714
16021.9 40.32194283692739
16255.0 40.04179361158994
16491.4 39.78057300399267
16731.3 39.81646891815312
16974.7 39.905572587235824
17221.6 39.55960738444399
17472.1 39.46620080672487
17726.2 39.33193172723195
17984.0 39.09641891113269
18245.6 38.753623892698855
18511.0 38.715413628713875
18780.2 38.58341344250222
19053.4 38.32112315436986
19330.5 37.725099151490795
19611.7 37.23396862925968
19897.0 37.037938111454295
