Freq "Side Wall Bounce"
20.0 -5.143993876297856
20.2909 -0.6522298572031104
20.586 2.29372344312668
20.8855 4.363471289388968
21.1893 5.76870611248853
21.4975 6.768135902249924
21.8102 7.452386858900013
22.1274 7.888467553011594
22.4492 8.159586764717261
22.7758 8.403727747667403
23.1071 8.84504921047116
23.4432 9.762730608471202
23.7841 11.215122685121685
24.1301 12.848771132185107
24.4811 14.375659801422074
24.8372 15.67754943412342
25.1984 16.78680798557849
25.5649 17.8292345451201
25.9368 18.936411904233438
26.3141 20.14252133660409
26.6968 21.366759487228506
27.0851 22.48691578087434
27.4791 23.423207568537805
27.8788 24.183836653319275
28.2843 24.861407387727667
28.6957 25.56673142551017
29.1131 26.38005572165187
29.5365 27.307378461049325
29.9661 28.297941177464054
30.402 29.289144791564297
30.8442 30.242005324305126
31.2929 31.154920827368215
31.748 32.04327882016469
32.2098 32.9210701064174
32.6783 33.80425886916453
33.1536 34.69424091311021
33.6359 35.588421908820976
34.1251 36.486196926911475
34.6215 37.38837188774028
35.125 38.30096123440444
35.6359 39.22057054564374
36.1543 40.13401671509814
36.6802 41.02688344663852
37.2137 41.90157527133286
37.755 42.77767194175803
38.3041 43.67536939123916
38.8613 44.59163778408566
39.4265 45.51446891521698
40.0 46.42905102285786
40.5818 47.325587869303774
41.1721 48.19488270333409
41.771 49.02093379562973
42.3785 49.77378233536392
42.9949 50.44963896028925
43.6203 51.062528225962524
44.2548 51.622053717536545
44.8985 52.12302597216748
45.5515 52.54925674962256
46.2141 52.90294945099805
46.8863 53.20372067705057
47.5683 53.45896307566342
48.2602 53.65967734824066
48.9621 53.81660565530146
49.6743 53.96369484887563
50.3968 54.121670602585084
51.1299 54.279682750291755
51.8736 54.429318393981745
52.6281 54.57864045777765
53.3936 54.72030437089292
54.1702 54.839787838015326
54.9581 54.940547811867646
55.7575 55.01739755213447
56.5685 55.061315992541026
57.3914 55.08268075227612
58.2261 55.09528198597785
59.073 55.106506670857726
59.9323 55.13255628477131
60.804 55.19481635081439
61.6884 55.295667459661985
62.5857 55.42590269486493
63.496 55.56131332323302
64.4196 55.679504570131456
65.3566 55.78987127162411
66.3073 55.89361885485734
67.2717 55.98795270890082
68.2502 56.093496884071996
69.2429 56.22088383799243
70.2501 56.365515305809666
71.2719 56.51636700747751
72.3086 56.66641739671857
73.3603 56.80763246804956
74.4274 56.92882383908187
75.5099 57.03539562341268
76.6083 57.15456972370049
77.7226 57.30133142246045
78.8531 57.47331147451766
80.0 57.67292469404293
81.1636 57.852155789504124
82.3442 58.02396513299951
83.5419 58.223136609393265
84.757 58.39910560743958
85.9899 58.565703175494164
87.2406 58.746924905767145
88.5096 58.954381964732846
89.797 59.16887485517947
91.1031 59.355724820906104
92.4282 59.46828411769698
93.7726 59.55180481466084
95.1366 59.65877673173179
96.5204 59.79396308572785
97.9243 59.98052674281388
99.3486 60.18611557838568
100.794 60.392768386252826
102.26 60.586207436381
103.747 60.76679078074015
105.256 60.945139538321996
106.787 61.12509969235575
108.34 61.2854914383403
109.916 61.43470156453351
111.515 61.584298190752506
113.137 61.73728880896782
114.783 61.87608971334629
116.452 61.99550845703473
118.146 62.128548362005276
119.865 62.275180861312776
121.608 62.43199989072701
123.377 62.592808007992886
125.171 62.73019219585065
126.992 62.840384610489934
128.839 62.929399993050936
130.713 62.98938633604628
132.615 63.01198002602001
134.543 63.05160221943498
136.5 63.101412375806305
138.486 63.10358912313595
140.5 63.11154078433715
142.544 63.146295210008006
144.617 63.16008100770685
146.721 63.186277344637574
148.855 63.25069675390678
151.02 63.261946319912965
153.217 63.225790837863485
155.445 63.21218829140264
157.706 63.15656503377815
160.0 63.042974348891335
162.327 63.03178970595894
164.688 63.03215129914051
167.084 63.11552081995106
169.514 63.06911221791799
171.98 62.91730321878953
174.481 62.84191765168768
177.019 62.82032962741283
179.594 62.83120647727796
182.206 62.86871222219281
184.856 62.918300086891406
187.545 62.97075347920395
190.273 63.06288767407722
193.041 63.10587834525691
195.849 63.114311396060145
198.697 63.131141020098084
201.587 63.0281506297307
204.52 62.91614556221515
207.494 62.81971687437972
210.512 62.747250578936175
213.574 62.64384106952069
216.681 62.604882736175895
219.833 62.57189326079502
223.03 62.610298683818684
226.274 62.57074718084337
229.565 62.54634573570942
232.905 62.49883483627413
236.292 62.50138073639461
239.729 62.52102318305792
243.216 62.6102215849067
246.754 62.6610538356111
250.343 62.65243357946876
253.984 62.67440030856851
257.678 62.64458264592433
261.426 62.65379523552181
265.229 62.621800475086815
269.087 62.5361884900349
273.001 62.451976052678646
276.972 62.09277053238536
281.0 61.957558347066396
285.088 62.07455063321332
289.234 62.23276889043501
293.441 62.368761324664476
297.709 62.37513961222888
302.04 62.27234970551213
306.433 62.12536707986223
310.89 62.274179018042986
315.412 62.20520678418217
320.0 62.117302609348144
324.655 62.10274497272657
329.377 62.22255304776026
334.168 62.28407446612948
339.028 62.2550804524482
343.959 62.22138163798782
348.962 62.276210937758734
354.038 62.398718410911655
359.188 62.47030079574208
364.412 62.405614279095815
369.713 62.33296734518295
375.09 62.31602612565602
380.546 62.39517444916234
386.081 62.40444969955077
391.697 62.34923026966548
397.394 62.28624686035231
403.175 62.12256603919833
409.039 62.10805971905883
414.989 62.02036304715898
421.025 61.993679635538626
427.149 61.89895754976668
433.362 61.84056940727291
439.665 61.75862935586534
446.06 61.66990063142187
452.548 61.63165629936552
459.131 61.59751299887445
465.809 61.632948298477146
472.584 61.538520879764945
479.458 61.51240134014205
486.432 61.53205959842953
493.507 61.53012672073466
500.686 61.60322988507721
507.968 61.679361846078706
515.357 61.780815657169725
522.853 61.9094643740836
530.458 62.0825191208732
538.174 62.25144714061915
546.002 62.439178824705834
553.943 62.64096887136765
562.001 62.85173828462774
570.175 63.05768634403013
578.469 63.26241390738832
586.883 63.452472479927025
595.419 63.625303029081834
604.08 63.77867114704216
612.866 63.91754997800703
621.78 64.04174206440146
630.824 64.13651865587056
640.0 64.20736270388288
649.309 64.2516596517759
658.753 64.27040946020908
668.335 64.26342228536576
678.056 64.22991463768719
687.919 64.17371691696117
697.925 64.10218092767485
708.077 64.00904937352554
718.376 63.90301812242399
728.825 63.78961983038707
739.426 63.68837164960112
750.181 63.59245729776299
761.093 63.51088523887279
772.163 63.46663302724809
783.394 63.453074008037106
794.789 63.47237662583734
806.349 63.53444793246135
818.078 63.62288538967019
829.977 63.73936160113195
842.05 63.864953535450766
854.298 63.99360535066265
866.724 64.11715285549198
879.33 64.2186897342047
892.12 64.2933363564126
905.097 64.33649115104038
918.262 64.34133851551852
931.618 64.31237275476924
945.169 64.2570187938744
958.917 64.18505242213786
972.864 64.10818652442609
987.015 64.04195470807147
1001.37 64.00360225344923
1015.94 64.01619886399388
1030.71 64.08062775744713
1045.71 64.19818291426844
1060.92 64.3559564264918
1076.35 64.52053463326621
1092.0 64.67178905887742
1107.89 64.78502638032451
1124.0 64.83283069070853
1140.35 64.79618749576568
1156.94 64.65686375480449
1173.77 64.40772994339176
1190.84 64.05619470539185
1208.16 63.63054397244069
1225.73 63.16823685012673
1243.56 62.759141572759745
1261.65 62.511116791153896
1280.0 62.52199868195359
1298.62 62.801352598025474
1317.51 63.28698612891591
1336.67 63.86084574304668
1356.11 64.4360409321381
1375.84 64.91912124742629
1395.85 65.28237426986018
1416.15 65.50285405081785
1436.75 65.58716977247812
1457.65 65.56088926287481
1478.85 65.45962755243619
1500.36 65.32726690044788
1522.19 65.21164802987313
1544.33 65.15026757860751
1566.79 65.14932957340358
1589.58 65.19548966037355
1612.7 65.25568129178711
1636.16 65.296181194223
1659.95 65.29311939611294
1684.1 65.24856602106159
1708.6 65.17305658599912
1733.45 65.08976023176466
1758.66 65.01440245296577
1784.24 64.94191620468607
1810.19 64.85542055212727
1836.52 64.716510948043
1863.24 64.50974896267917
1890.34 64.23320993343559
1917.83 63.92453286911076
1945.73 63.639665937680164
1974.03 63.44765898425595
2002.74 63.368345865173694
2031.87 63.36152980862781
2061.43 63.34975623070076
2091.41 63.266868741017035
2121.83 63.097279659430185
2152.69 62.879488393515615
2184.01 62.681598825119266
2215.77 62.556878165957926
2248.0 62.49966417304819
2280.7 62.44589514727704
2313.87 62.34600122525583
2347.53 62.20477128136429
2381.68 62.10329737892104
2416.32 62.11812485806607
2451.46 62.24261792290537
2487.12 62.37086473436831
2523.3 62.38632323024453
2560.0 62.250015431912544
2597.24 62.066110551533825
2635.01 61.997061287316185
2673.34 62.13545683607158
2712.23 62.38944544148373
2751.68 62.573171948663
2791.7 62.57943570116011
2832.31 62.44553333080226
2873.5 62.30993770271395
2915.3 62.28989121849146
2957.7 62.38716923005616
3000.72 62.51712559218501
3044.37 62.632799628148035
3088.65 62.742798602649955
3133.58 62.85430379253842
3179.16 62.941761916705346
3225.4 62.98477047468968
3272.31 63.01879043369949
3319.91 63.09058609366993
3368.2 63.18093177376558
3417.19 63.21882119473109
3466.89 63.189578860677244
3517.32 63.18162017620659
3568.48 63.28085908580398
3620.39 63.44192571281229
3673.05 63.52544496109935
3726.47 63.443810888449036
3780.67 63.242794564972996
3835.67 63.02715905352707
3891.46 62.83812068169959
3948.06 62.64263847905802
4005.49 62.42262006375827
4063.75 62.22753619528466
4122.86 62.083207154117986
4182.82 61.90207957148482
4243.66 61.60193664181499
4305.39 61.256968426305264
4368.01 60.997493687186974
4431.55 60.81137997509836
4496.01 60.54085357493841
4561.4 60.098256673960435
4627.75 59.64986669443695
4695.06 59.478630587214184
4763.35 59.51560223153088
4832.64 59.572858675912016
4902.93 59.78473599429745
4974.24 59.963294170558015
5046.6 59.69991030614517
5120.0 59.49690573614191
5194.47 59.9015032967541
5270.03 60.289116049300816
5346.68 60.59440886465238
5424.45 61.10620552596579
5503.35 61.52936250371263
5583.4 61.87286731090839
5664.61 62.16438368949093
5747.01 62.356268549475956
5830.6 62.549601990583625
5915.41 62.53918424178288
6001.45 62.50902999343961
6088.74 62.52845718564038
6177.3 62.217981157095096
6267.15 61.961701655125125
6358.31 61.862762956529195
6450.8 61.88769542566412
6544.62 62.126020950103225
6639.82 62.36317970867353
6736.4 62.519429600395696
6834.38 62.30396845761783
6933.79 61.85765049719741
7034.64 61.470082099411655
7136.96 61.04859779799753
7240.77 60.71422778384698
7346.09 60.24627632541254
7452.94 59.839982650701984
7561.35 59.52583903027471
7671.33 59.15923705300641
7782.91 58.8544878830172
7896.12 58.66953635592114
8010.97 58.394627405678364
8127.49 58.17383905345869
8245.71 57.22285353221601
8365.65 56.22196848887822
8487.33 55.8359611943155
8610.78 56.56397776031616
8736.03 57.746293914314066
8863.09 58.3486281650961
8992.01 58.55990317498285
9122.8 58.4670696597762
9255.5 58.39693530863447
9390.12 58.4762638724205
9526.7 58.59773861886197
9665.27 58.806005988609996
9805.86 58.78771039642808
9948.49 58.514669507276764
10093.2 58.84245658033767
10240.0 60.0748252196999
10388.9 60.96621520626837
10540.1 61.14345745088076
10693.4 61.119309022270514
10848.9 60.95918426983961
11006.7 60.734165763363706
11166.8 60.547538761315764
11329.2 60.48591923459581
11494.0 60.47186919319513
11661.2 60.66398823762958
11830.8 60.84740902342453
12002.9 61.29220837904825
12177.5 61.6110498546105
12354.6 61.713402116544245
12534.3 61.827999026133426
12716.6 61.82869241957481
12901.6 61.66126700292152
13089.2 61.4021591809294
13279.6 61.16277007898752
13472.8 60.95448703362699
13668.8 60.80050902715
13867.6 60.60433734551299
14069.3 60.21410281982192
14273.9 59.514783085529245
14481.5 58.79604148808639
14692.2 58.01054355051333
14905.9 57.4740280113525
15122.7 57.237039263684764
15342.7 57.14507127327762
15565.8 56.97187484417047
15792.2 56.6989311402028
16021.9 56.34041494075666
16255.0 55.79867252848675
16491.4 55.30681498903556
16731.3 54.69313111740156
16974.7 53.942539775055266
17221.6 52.99404061290585
17472.1 52.20559306734181
17726.2 51.4510403771402
17984.0 50.749845702241785
18245.6 49.95669907827015
18511.0 49.00522756020695
18780.2 48.17781191055596
19053.4 47.37177715318535
19330.5 46.93922394476449
19611.7 46.57138898514978
19897.0 45.83373094320312
