Freq,On Axis,Listening Window,Sound Power,Early Reflections,Early Reflections DI,Sound Power DI,DI offset
20.5078,55.8934,55.547025455958405,62.73957389535529,58.90360863415442,36.64341682180398,32.80745156060311,40
21.9727,59.96070000000002,59.812318233664755,65.31604299500559,62.16439530359948,37.64792293006528,34.496275238659166,40
23.4375,62.061099999999996,61.9091476605022,66.53490606469452,63.606492482741274,38.302655177760926,35.374241595807675,40
24.9023,65.89710000000001,65.81732555362167,69.19540021406418,66.89034993104865,38.926975622573025,36.62192533955749,40
26.3672,67.8542,67.76612255013742,70.42479171701531,68.5354330233554,39.23068952678203,37.341330833122115,40
27.832,69.53519999999999,69.46615913631106,71.96383115238046,70.19047795018137,39.27568118612969,37.5023279839306,40
29.2969,72.2986,72.26650210038748,74.69147956992437,73.05330226930549,39.213199831081994,37.575022530463116,40
30.7617,74.3097,74.29427040836133,76.78551992654846,75.13023532824964,39.16403508011169,37.50875048181287,40
32.2266,76.6321,76.63671405502184,78.93432116187837,77.42530083811005,39.211413216911794,37.70239289314347,40
33.6914,78.6895,78.7041588769829,80.73952176883064,79.4096195003262,39.2945393766567,37.96463710815226,40
35.1562,80.2431,80.2595959198861,82.0565288547361,80.86644269444149,39.39315322544461,38.203067065149995,40
36.6211,81.2513,81.27176553962688,82.94379876916885,81.83903453264105,39.43273100698583,38.32796677045803,40
38.0859,82.00770000000001,82.03218017393941,83.61827513801413,82.57431315005856,39.45786702388085,38.41390503592528,40
39.5508,82.48869999999998,82.52215285421754,84.11940331269192,83.0916111905694,39.43054166364814,38.40274954152562,40
41.0156,83.3306,83.36261189216683,84.75347832104576,83.85375397897717,39.50885791318966,38.60913357112106,40
42.4805,83.70050000000002,83.73370507850198,85.03331293953066,84.1888712329923,39.544833845509686,38.700392138971324,40
43.9453,83.9797,84.01246078794914,85.21142359638367,84.42730814952338,39.585152638425754,38.80103719156547,40
45.4102,84.36149999999999,84.39320718435569,85.48704524582048,84.76437452159165,39.62883266276404,38.906161938535206,40
46.875,84.7024,84.7321344453636,85.72691484943486,85.05980121352299,39.67233323184061,39.005219595928736,40
48.3398,84.966,84.99452213121789,85.9013883370396,85.28763076100893,39.706891370208965,39.093133794178286,40
51.2695,85.61819999999999,85.64771338555927,86.50244548501253,85.92876419177875,39.71894919378052,39.14526790054674,40
52.7344,85.7942,85.82523861896264,86.66794583656863,86.10830319851387,39.71693542044878,39.15729278239401,40
54.1992,86.015,86.04615145842983,86.85280076531787,86.31777877783178,39.728372680598056,39.19335069311197,40
55.6641,86.3195,86.34978758988002,87.10166168578382,86.60084724757719,39.74894034230283,39.2481259040962,40
58.5938,86.77999999999999,86.8098572151772,87.48847570003223,87.03629125765265,39.77356595752455,39.32138151514498,40
60.0586,86.9549,86.98382706887428,87.62031697938255,87.1924587537022,39.79136831517208,39.363510089491726,40
62.9883,87.2802,87.30784873511894,87.8783536034582,87.4912431358149,39.81660559930404,39.429495131660744,40
64.4531,87.41510000000001,87.44217360546179,87.9839018093004,87.61503604350963,39.827137561952156,39.458271796161384,40
67.3828,87.7134,87.73793023734669,88.2065934032065,87.87933137291712,39.85859886442957,39.53133683414019,40
68.8477,87.9013,87.9244818842008,88.35339533103394,88.04908307639828,39.875398807802526,39.571086553166865,40
71.7773,88.1761,88.19556407513261,88.5231559416009,88.27524597167074,39.92031810346187,39.672408133531704,40
74.707,88.4469,88.4676236080089,88.76803159646596,88.54273438541652,39.924889222592384,39.69959201154295,40
77.6367,88.6127,88.63327462461163,88.9134533417762,88.7051350346526,39.92813958995903,39.719821282835426,40
79.1016,88.6638,88.68377488670664,88.94801406703087,88.75016284568183,39.933612041024816,39.735760819675775,40
82.0312,88.74570000000001,88.76414209257338,88.98691860953033,88.8130497577972,39.95109233477618,39.777223483043045,40
84.9609,88.8279,88.84571595205945,89.05550981425577,88.89229412057809,39.953421831481364,39.79020613780368,40
87.8906,88.8046,88.81936342449148,88.98020276297237,88.84303198562229,39.976331438869195,39.83916066151912,40
90.8203,88.78169999999999,88.79412587082906,88.91086693528523,88.79679505725852,39.99733081357054,39.883258935543836,40
95.2148,88.68570000000001,88.69578146759295,88.78335343261702,88.68589290887006,40.00988855872289,39.91242803497593,40
98.1445,88.5873,88.59494764707556,88.64398848611128,88.56733566699201,40.02761198008355,39.950959160964274,40
101.074,88.4467,88.44976213512429,88.42651941720426,88.38446354030434,40.06529859481995,40.02324271792003,40
105.469,88.571,88.56544910488932,88.34470457092307,88.40796973966306,40.157479365226266,40.220744533966254,40
108.398,88.85509999999998,88.84823810696109,88.58557444728561,88.67474712166069,40.173490985300404,40.26266365967548,40
112.793,88.7121,88.70865172387714,88.51090680270615,88.5634090827521,40.14524264112504,40.197744921170994,40
117.188,88.56440000000002,88.56188345170989,88.36570863394682,88.42413673456349,40.1377467171464,40.196174817763065,40
120.117,88.5422,88.54010297017487,88.34392834475828,88.39991682279582,40.140186147379055,40.19617462541659,40
124.512,88.39290000000001,88.39918027155714,88.44918102642434,88.37760874264255,40.02157152891459,39.9499992451328,40
128.906,88.1492,88.1572001079155,88.32930814305453,88.18459857891095,39.97260152900455,39.82789196486097,40
133.301,87.7107,87.72494728050155,88.16741758064771,87.87596049349679,39.84898678700476,39.557529699853845,40
139.16,86.9736,86.98097066879741,87.69969174976366,87.23871568520345,39.742254983593966,39.28127891903375,40
143.555,86.43659999999998,86.42609127075522,87.30589988333669,86.72285691344617,39.70323435730906,39.12019138741853,40
147.949,86.1604,86.1117753274581,86.92066587930361,86.29737984027354,39.81439548718457,39.19110944815449,40
153.809,86.9427,86.83131254982968,86.73049862712267,86.50833919731355,40.32297335251613,40.100813922707005,40
159.668,87.8266,87.69394383854122,86.8627042403669,87.05160424184324,40.64233959669798,40.83123959817432,40
165.527,88.4875,88.35170211053715,86.84076842470813,87.44880051735696,40.90290159318019,41.510933685829016,40
171.387,88.6442,88.53033663073755,86.98124477773827,87.66229123396975,40.8680453967678,41.54909185299928,40
177.246,88.3014,88.18471563087839,86.72692448063908,87.35850715140988,40.826208479468505,41.4577911502393,40
183.105,88.2278,88.10055347045072,86.48104922674419,87.19410640929667,40.906447061154054,41.61950424370653,40
188.965,88.5083,88.36896259210876,86.3237452140816,87.28120680568652,41.087755786422235,42.04521737802716,40
196.289,88.9994,88.88259306300394,86.65015178309723,87.77108012255279,41.11151294045115,42.23244127990671,40
203.613,88.7265,88.59905639382177,86.41243813900847,87.5212614693219,41.07779492449987,42.1866182548133,40
210.938,88.3102,88.18703987226377,86.08667557503534,87.1445148490405,41.04252502322326,42.100364297228424,40
218.262,88.2227,88.12011484874742,85.90826363229951,87.05525906266307,41.06485578608435,42.21185121644791,40
225.586,88.12489999999998,88.00611652318544,85.92706554015273,86.96629778637015,41.03981873681529,42.079050983032715,40
232.91,88.3006,88.17262184357858,85.66928913003908,86.97088549799075,41.20173634558783,42.50333271353951,40
241.699,87.8971,87.79698987542574,85.41314956428593,86.66665922911129,41.13033064631445,42.38384031113981,40
250.488,87.105,87.00229226302532,84.87364157605508,85.98994985956521,41.01234240346011,42.128650686970246,40
259.277,88.5628,88.39066075973615,85.25265589926848,86.8295458842373,41.561114875498845,43.138004860467674,40
268.066,88.1488,88.06079204726288,85.42141430374802,86.87235194523716,41.18844010202572,42.639377743514856,40
276.855,86.4535,86.34088661316935,84.53406373265557,85.55156216215812,40.789324451011225,41.80682288051378,40
287.109,88.9387,88.69246221091129,85.80733908190031,87.1952553763286,41.497206834582684,42.88512312901098,40
297.363,89.11550000000001,88.95641192172313,85.48112615766935,87.29902221415658,41.65738970756655,43.47528576405378,40
307.617,89.1939,89.08967273370166,85.54348450839608,87.4461028230166,41.64356991068506,43.546188225305585,40
319.336,88.4258,88.35010431583532,85.12895550425777,86.85055972260164,41.49954459323368,43.22114881157755,40
329.59,88.2111,88.10937575667792,84.96713704176292,86.68696302173244,41.42241273494548,43.142238714914996,40
341.309,88.50009999999999,88.36143334303422,85.1199329030314,86.90141508871348,41.460018254320744,43.241500440002824,40
353.027,88.55140000000002,88.47150742495728,85.08951854834548,87.04191717228295,41.42959025267433,43.3819888766118,40
366.211,87.8842,87.76404687001379,84.84281137953352,86.56080272004111,41.203244149972676,42.92123549048027,40
379.395,88.046,87.86946963232869,84.40338276653144,86.24007679108651,41.62939284124218,43.46608686579725,40
392.578,87.4,87.33281059350182,84.1760423471986,85.92063502602282,41.412175567479,43.156768246303216,40
405.762,87.205,87.0652767679549,84.03153989838394,85.63315458500702,41.43212218294788,43.03373686957096,40
420.41,87.8541,87.63620532528526,83.92766315452099,85.99299197047728,41.64321335480798,43.708542170764275,40
435.059,88.2218,87.91883112391669,83.9987425584247,86.14020467808466,41.77862644583203,43.920088565491994,40
451.172,87.8365,87.65001217355031,84.34776724065648,86.22651739829483,41.42349477525548,43.30224493289383,40
465.82,88.2724,87.90600908678364,83.73646228381187,85.73159892720194,42.1744101595817,44.169546802971766,40
483.398,89.0428,88.69570737039523,83.75502415403537,86.33733890673687,42.35836846365835,44.94068321635986,40
499.512,88.0239,87.80814059136367,83.57883492554626,85.99428412687386,41.8138564644898,44.22930566581741,40
517.09,88.2903,87.89423241880694,83.65174808291083,85.93004172264051,41.964190696166426,44.24248433589611,40
536.133,89.7077,89.31663358203514,83.90606062074151,86.75439928563138,42.56223429640376,45.410572961293624,40
555.176,89.0789,88.73975135097795,83.88429653815683,86.54709684365825,42.1926545073197,44.85545481282112,40
574.219,89.2907,88.93443586685014,84.23235516042544,86.84931582330479,42.085120043545345,44.702080706424695,40
594.727,89.13790000000002,88.80248297312211,83.76125355105906,86.70013331405283,42.102349659069276,45.041229422063054,40
615.234,89.6625,89.20018354438294,83.57723196816794,86.91315794766169,42.28702559672125,45.622951576215,40
637.207,90.41030000000002,89.9883652573576,84.29940625363743,87.27292348850288,42.71544176885472,45.68895900372017,40
659.18,89.9694,89.6834170382719,84.07063412304497,87.34775170545878,42.33566533281312,45.61278291522693,40
682.617,90.7779,90.38426400526737,84.67808153470136,87.87050322955164,42.513760775715724,45.706182470566006,40
707.52,89.6742,89.3655305835827,83.90475981274568,87.1777625318157,42.187768051766994,45.460770770837016,40
732.422,90.1501,89.86873208765431,84.22240739980462,87.3555753256283,42.513156762026014,45.646324687849685,40
757.324,89.6708,89.46798382647533,84.27726616111903,87.30851092824905,42.159472898226284,45.1907176653563,40
785.156,91.23289999999999,91.00035938362848,86.03763108213789,88.23103916984165,42.76932021378683,44.962728301490586,40
811.523,91.08900000000001,90.40224029721027,85.4443602688726,88.11003121545953,42.29220908175074,44.95788002833767,40
840.82,88.6703,88.65250076128653,84.07889131519909,86.90304268448506,41.749458076801474,44.573609446087445,40
870.117,89.5905,89.1444295531216,83.96684493180416,87.70799379387608,41.43643575924551,45.177584621317436,40
900.879,88.81600000000002,88.71413099104014,85.46816567052201,87.61095291628888,41.103178074751256,43.245965320518124,40
933.105,88.8214,88.66593565957692,84.61955972504751,86.96615537479047,41.69978028478644,44.04637593452941,40
965.332,88.6479,88.31718646620998,84.0204595403194,87.05055655177561,41.26662991443436,44.29672692589058,40
1000.49,90.4025,89.6895113237027,83.78087625155207,87.81776435964262,41.87174696406008,45.90863507215063,40
1035.64,89.9405,89.04564416640112,83.53124005422698,87.29177963879046,41.75386452761066,45.514404112174134,40
1072.27,87.9804,88.28924854524669,83.25871999970076,87.00778921850265,41.28145932674404,45.030528545545934,40
1108.89,89.3499,88.68459915235222,83.45636328074036,87.36502393902579,41.31957521332643,45.22823587161186,40
1148.44,88.06759999999998,87.36781381494082,82.57347576851593,86.19593916165523,41.171874653285585,44.79433804642488,40
1189.45,89.19700000000002,88.2694741367045,82.54342416680464,86.53404537629972,41.73542876040479,45.72604996989986,40
1230.47,90.3815,89.75873210512145,84.02822425989811,87.13431994355685,42.62441216156461,45.73050784522334,40
1274.41,91.0434,90.09284969258758,83.93062032255081,87.48223773758649,42.61061195500109,46.16222937003677,40
1319.82,91.65400000000001,91.38425091225571,84.64402277458277,88.1036979689868,43.280552943268916,46.74022813767294,40
1366.7,91.7684,91.47924694204762,85.26611053637279,88.61465089354805,42.86459604849958,46.21313640567483,40
1413.57,90.9936,91.43478809148604,84.8416869697676,88.50244551926566,42.93234257222038,46.59310112171845,40
1463.38,91.43749999999999,90.33825438428676,84.12574628386153,87.77290753581168,42.56534684847507,46.212508100425225,40
1516.11,89.9337,89.70058728552816,84.12613847028851,86.45696626395339,43.24362102157477,45.57444881523965,40
1568.85,89.0099,88.92472907393962,82.07756615849999,85.53389465628652,43.390834417653096,46.847162915439625,40
1624.51,89.5521,88.78365981523241,81.83295937542252,85.064353092639,43.719306722593416,46.95070043980989,40
1681.64,90.19329999999998,89.51292275602516,82.11511732472879,85.35973532069808,44.153187435327084,47.397805431296376,40
1741.7,90.5462,89.41190702792976,81.88824046345005,85.12577406740392,44.28613296052583,47.52366656447971,40
1803.22,89.5666,89.05090162130374,82.10126983318253,85.1068934110702,43.944008210233534,46.94963178812121,40
1866.21,88.6915,87.97339760846437,81.2192140323046,84.19532557472489,43.77807203373948,46.75418357615976,40
1932.13,86.8626,86.61154730406538,80.767192919698,83.24572174334023,43.365825560725156,45.84435438436738,40
1999.51,87.4145,86.95612830151548,81.35958148266472,83.8545290755521,43.10159922596338,45.596546818850754,40
2069.82,88.229,87.44514805231576,81.45147316325797,83.87571426682281,43.56943378549295,45.993674889057786,40
2143.07,88.423,87.95395678812183,81.94528645317645,84.44205193918077,43.51190484894106,46.00867033494538,40
2219.24,88.0387,87.55832601761055,81.83598071407124,84.5143858881214,43.04394012948916,45.72234530353931,40
2296.88,87.1961,86.8913466520187,81.08844228455976,84.04365000141635,42.847696650602344,45.802904367458936,40
2378.91,86.8585,86.45488355850381,80.83284209960205,83.6645317095092,42.790351848994604,45.62204145890176,40
2462.4,88.2374,87.84090290846085,81.30301171465301,84.44164283462878,43.39926007383207,46.53789119380784,40
2548.83,89.4796,88.77590848224061,82.49832188226684,85.40760928486036,43.36829919738025,46.27758659997377,40
2639.65,88.3039,88.67066195055783,82.50265607783362,85.57145496796855,43.09920698258928,46.16800587272421,40
2731.93,87.6695,87.12151980430649,81.56739253039807,84.66848926517368,42.45303053913281,45.55412727390842,40
2828.61,86.9202,87.37762445551455,81.5880769150008,84.84033499005157,42.537289465462976,45.78954754051375,40
2928.22,87.6666,88.00979755053908,81.92088936567679,85.25057979414346,42.759217756395614,46.08890818486229,40
3030.76,88.6719,88.83612306435907,82.4810235277245,85.777572384795,43.05855067956408,46.35509953663457,40
3137.7,87.9068,88.55842520250171,82.41692279845343,85.65102894014161,42.907396262360095,46.14150240404828,40
3249.02,88.3263,88.45521356270974,82.61928916683162,85.80841501817885,42.646798544530895,45.83592439587812,40
3363.28,88.8598,88.50023197853466,82.41806461476897,85.84295676962442,42.657275208910235,46.08216736376569,40
3481.93,88.8266,88.93319029848384,82.78297134971645,86.09466291595294,42.8385273825309,46.15021894876739,40
3604.98,89.7715,89.12834594906809,82.96240639970544,86.32155994403148,42.806786005036614,46.16593954936265,40
3732.42,89.7221,89.13756588028618,82.81016679878893,86.33283762432295,42.80472825596323,46.32739908149725,40
3864.26,89.03419999999998,88.84734371551315,82.60064014415815,86.11237138965187,42.73497232586128,46.246703571355,40
4000.49,88.9858,88.20353046641141,82.54190442557639,86.11110023816853,42.092430228242876,45.66162604083502,40
4141.11,89.2471,88.77367421273833,82.96792199173089,86.399763655565,42.37391055717333,45.80575222100744,40
4287.6,89.9797,89.58120540378677,83.56527599581673,86.96201609266039,42.61918931112638,46.015929407970035,40
4438.48,89.7421,89.38096632635613,83.56758957203516,86.92167238818371,42.45929393817242,45.81337675432097,40
4595.21,89.6008,89.27422355895843,83.42106738502727,86.80518234589604,42.46904121306238,45.853156173931154,40
4756.35,90.0914,89.49342568141644,83.56066955191206,87.0389463713402,42.45447931007624,45.932756129504384,40
4924.8,90.25869999999999,89.6540065999374,83.3095377834225,86.77487984287653,42.879126757060874,46.344468816514905,40
5097.66,89.61380000000001,89.22189430590953,82.99541547322383,86.69163301664587,42.53026128926366,46.2264788326857,40
5277.83,89.317,88.89136415467054,82.54580349118538,86.33526554054153,42.55609861412901,46.34556066348516,40
5463.87,89.51350000000001,89.24189700099035,82.90077846393528,86.5462066859423,42.695690315048054,46.34111853705507,40
5657.23,89.23479999999999,88.99456905397913,82.63859221337673,86.22625960914122,42.76830944483791,46.35597684060241,40
5856.45,89.0019,88.85741246181396,82.559585022974,86.06818703302197,42.789225428791994,46.29782743883996,40
6062.99,89.4869,89.24392231736509,82.68080485360895,86.32786829584163,42.916054021523465,46.56311746375614,40
6276.86,89.0379,89.08869661582018,82.48956206908153,86.16980056148658,42.9188960543336,46.599134546738654,40
6498.05,89.32280000000002,89.13822212438168,82.26750420348209,86.0574127791277,43.08080934525398,46.870717920899594,40
6726.56,89.44370000000002,89.24894409042476,82.26155312881299,86.06132705773207,43.187617032692685,46.987390961611766,40
6963.87,88.8807,88.88995452334163,81.83637753706428,85.6821215476271,43.207832975714524,47.05357698627735,40
7209.96,89.72009999999999,89.31813409777718,81.85743479508447,85.81998735584502,43.49814674193216,47.4606993026927,40
7464.84,89.747,89.15965790393297,81.72796707302412,85.5846217932599,43.57503611067307,47.43169083090885,40
7727.05,89.67740000000002,89.05038279527874,81.54733326812729,85.47894079749948,43.57144199777926,47.50304952715145,40
7999.51,90.158,89.43621758407458,81.53585804416254,85.58489667837354,43.851320905701044,47.900359539912046,40
8282.23,90.0634,89.23204881810092,81.16793217375611,85.35912015626452,43.8729286618364,48.06411664434481,40
8573.73,90.181,89.37524927100456,81.05407922610993,85.2563683107832,44.11888096022136,48.32117004489463,40
8876.95,90.0318,89.21771167846087,80.63439852428785,84.94548836568244,44.272223312778436,48.58331315417303,40
9188.96,90.1586,89.28825405563244,80.36377372892707,84.82377106696077,44.46448298867166,48.924480326705364,40
9514.16,90.2557,89.40299110268079,80.28760409516009,84.79923652998906,44.60375457269173,49.115387007520695,40
9849.61,90.698,89.75973608276013,80.33490126717444,84.92902425278952,44.83071182997061,49.42483481558568,40
10196.8,91.03949999999999,90.04958595724764,80.30717983370612,84.98659507701518,45.06299088023246,49.74240612354153,40
10555.7,91.08559999999999,90.05786014940777,80.05559009982294,84.82642118588335,45.231438963524425,50.00227004958484,40
10927.7,91.0651,89.88626256600942,79.73099419384977,84.57606072784648,45.31020183816294,50.155268372159654,40
11313.0,90.8673,89.49088742580312,79.25116612611755,84.15093235117602,45.3399550746271,50.23972129968557,40
11712.9,90.4343,88.95093018975886,78.91138985787056,83.71209099709006,45.238839192668806,50.039540331888304,40
