Freq "Early Reflections DI"
20.5078 36.64341682180398
21.9727 37.64792293006528
23.4375 38.302655177760926
24.9023 38.926975622573025
26.3672 39.23068952678203
27.832 39.27568118612969
29.2969 39.213199831081994
30.7617 39.16403508011169
32.2266 39.211413216911794
33.6914 39.2945393766567
35.1562 39.39315322544461
36.6211 39.43273100698583
38.0859 39.45786702388085
39.5508 39.43054166364814
41.0156 39.50885791318966
42.4805 39.544833845509686
43.9453 39.585152638425754
45.4102 39.62883266276404
46.875 39.67233323184061
48.3398 39.706891370208965
51.2695 39.71894919378052
52.7344 39.71693542044878
54.1992 39.728372680598056
55.6641 39.74894034230283
58.5938 39.77356595752455
60.0586 39.79136831517208
62.9883 39.81660559930404
64.4531 39.827137561952156
67.3828 39.85859886442957
68.8477 39.875398807802526
71.7773 39.92031810346187
74.707 39.924889222592384
77.6367 39.92813958995903
79.1016 39.933612041024816
82.0312 39.95109233477618
84.9609 39.953421831481364
87.8906 39.976331438869195
90.8203 39.99733081357054
95.2148 40.00988855872289
98.1445 40.02761198008355
101.074 40.06529859481995
105.469 40.157479365226266
108.398 40.173490985300404
112.793 40.14524264112504
117.188 40.1377467171464
120.117 40.140186147379055
124.512 40.02157152891459
128.906 39.97260152900455
133.301 39.84898678700476
139.16 39.742254983593966
143.555 39.70323435730906
147.949 39.81439548718457
153.809 40.32297335251613
159.668 40.64233959669798
165.527 40.90290159318019
171.387 40.8680453967678
177.246 40.826208479468505
183.105 40.906447061154054
188.965 41.087755786422235
196.289 41.11151294045115
203.613 41.07779492449987
210.938 41.04252502322326
218.262 41.06485578608435
225.586 41.03981873681529
232.91 41.20173634558783
241.699 41.13033064631445
250.488 41.01234240346011
259.277 41.561114875498845
268.066 41.18844010202572
276.855 40.789324451011225
287.109 41.497206834582684
297.363 41.65738970756655
307.617 41.64356991068506
319.336 41.49954459323368
329.59 41.42241273494548
341.309 41.460018254320744
353.027 41.42959025267433
366.211 41.203244149972676
379.395 41.62939284124218
392.578 41.412175567479
405.762 41.43212218294788
420.41 41.64321335480798
435.059 41.77862644583203
451.172 41.42349477525548
465.82 42.1744101595817
483.398 42.35836846365835
499.512 41.8138564644898
517.09 41.964190696166426
536.133 42.56223429640376
555.176 42.1926545073197
574.219 42.085120043545345
594.727 42.102349659069276
615.234 42.28702559672125
637.207 42.71544176885472
659.18 42.33566533281312
682.617 42.513760775715724
707.52 42.187768051766994
732.422 42.513156762026014
757.324 42.159472898226284
785.156 42.76932021378683
811.523 42.29220908175074
840.82 41.749458076801474
870.117 41.43643575924551
900.879 41.103178074751256
933.105 41.69978028478644
965.332 41.26662991443436
1000.49 41.87174696406008
1035.64 41.75386452761066
1072.27 41.28145932674404
1108.89 41.31957521332643
1148.44 41.171874653285585
1189.45 41.73542876040479
1230.47 42.62441216156461
1274.41 42.61061195500109
1319.82 43.280552943268916
1366.7 42.86459604849958
1413.57 42.93234257222038
1463.38 42.56534684847507
1516.11 43.24362102157477
1568.85 43.390834417653096
1624.51 43.719306722593416
1681.64 44.153187435327084
1741.7 44.28613296052583
1803.22 43.944008210233534
1866.21 43.77807203373948
1932.13 43.365825560725156
1999.51 43.10159922596338
2069.82 43.56943378549295
2143.07 43.51190484894106
2219.24 43.04394012948916
2296.88 42.847696650602344
2378.91 42.790351848994604
2462.4 43.39926007383207
2548.83 43.36829919738025
2639.65 43.09920698258928
2731.93 42.45303053913281
2828.61 42.537289465462976
2928.22 42.759217756395614
3030.76 43.05855067956408
3137.7 42.907396262360095
3249.02 42.646798544530895
3363.28 42.657275208910235
3481.93 42.8385273825309
3604.98 42.806786005036614
3732.42 42.80472825596323
3864.26 42.73497232586128
4000.49 42.092430228242876
4141.11 42.37391055717333
4287.6 42.61918931112638
4438.48 42.45929393817242
4595.21 42.46904121306238
4756.35 42.45447931007624
4924.8 42.879126757060874
5097.66 42.53026128926366
5277.83 42.55609861412901
5463.87 42.695690315048054
5657.23 42.76830944483791
5856.45 42.789225428791994
6062.99 42.916054021523465
6276.86 42.9188960543336
6498.05 43.08080934525398
6726.56 43.187617032692685
6963.87 43.207832975714524
7209.96 43.49814674193216
7464.84 43.57503611067307
7727.05 43.57144199777926
7999.51 43.851320905701044
8282.23 43.8729286618364
8573.73 44.11888096022136
8876.95 44.272223312778436
9188.96 44.46448298867166
9514.16 44.60375457269173
9849.61 44.83071182997061
10196.8 45.06299088023246
10555.7 45.231438963524425
10927.7 45.31020183816294
11313.0 45.3399550746271
11712.9 45.238839192668806
12126.0 45.03438372241996
12553.7 44.605117153245786
12996.1 43.82430139349657
13454.6 43.1386208963643
13929.2 42.76337864257249
14419.9 42.45862162062379
14928.2 42.47404033638017
15455.6 42.85150986270406
16000.5 43.28292455231926
16564.5 43.72551935083288
17148.9 44.24884893671508
17752.4 44.7662054108371
18379.4 45.23375360350852
19026.9 45.485913665184256
19697.8 45.46904192477322
19999.5 45.34786911246445
