Freq "Listening Window"
20.5078 55.06747848626145
21.9727 59.3327712639678
23.4375 61.429600690805245
24.9023 65.33777858392472
26.3672 67.28657558044047
27.832 68.98661216661411
29.2969 71.78695513069053
30.7617 73.81472343866437
32.2266 76.15716708532489
33.6914 78.22461190728595
35.1562 79.78004895018914
36.6211 80.79221856992993
38.0859 81.55263320424245
39.5508 82.04260588452058
41.0156 82.88306492246987
42.4805 83.25415810880503
43.9453 83.53291381825218
45.4102 83.91366021465873
46.875 84.25258747566664
48.3398 84.51497516152094
51.2695 85.16816641586232
52.7344 85.34569164926569
54.1992 85.56660448873288
55.6641 85.87024062018307
58.5938 86.33031024548025
60.0586 86.50428009917732
62.9883 86.82830176542198
64.4531 86.96262663576483
67.3828 87.25838326764973
68.8477 87.44493491450385
71.7773 87.71601710543565
74.707 87.98807663831195
77.6367 88.15372765491468
79.1016 88.20422791700969
82.0312 88.28459512287642
84.9609 88.3661689823625
87.8906 88.33981645479453
90.8203 88.31457890113211
95.2148 88.216234497896
98.1445 88.1154006773786
101.074 87.97021516542733
105.469 88.08590213519237
108.398 88.36869113726414
112.793 88.22910475418018
117.188 88.08233648201293
120.117 88.06055600047792
124.512 87.91963330186019
128.906 87.67765313821855
133.301 87.2454003108046
139.16 86.50142369910046
143.555 85.94654430105827
147.949 85.63222835776115
153.809 86.35176558013272
159.668 87.21439686884426
165.527 87.87215514084019
171.387 88.0507896610406
177.246 87.70516866118143
183.105 87.62100650075377
188.965 87.8894156224118
196.289 88.40304609330698
203.613 88.11950942412481
210.938 87.70749290256681
218.262 87.64056787905047
225.586 87.52656955348849
232.91 87.69307487388163
241.699 87.31744290572878
250.488 86.52274529332837
259.277 87.9111137900392
268.066 87.58124507756592
276.855 85.86133964347239
287.109 88.21291524121433
297.363 88.47686495202618
307.617 88.6101257640047
319.336 87.87055734613837
329.59 87.62982878698097
341.309 87.88188637333727
353.027 87.99196045526033
366.211 87.28449990031683
379.395 87.38992266263173
392.578 86.85326362380486
405.762 86.58572979825794
420.41 87.1566583555883
435.059 87.43928415421973
451.172 87.17046520385335
465.82 87.42646211708669
483.398 88.21616040069827
499.512 87.32859362166671
517.09 87.41468544910998
536.133 88.83708661233818
555.176 88.260204381281
574.219 88.45488889715318
594.727 88.32293600342516
615.234 88.72063657468598
637.207 89.50881828766065
659.18 89.20387006857494
682.617 89.90471703557041
707.52 88.88598361388574
732.422 89.38918511795735
757.324 88.98843685677838
785.156 90.52081241393152
811.523 89.92269332751331
840.82 88.17295379158958
870.117 88.66488258342464
900.879 88.23458402134318
933.105 88.18638868987996
965.332 87.83763949651302
1000.49 89.20996435400575
1035.64 88.56609719670416
1072.27 87.80970157554974
1108.89 88.20505218265527
1148.44 86.88826684524386
1189.45 87.78992716700755
1230.47 89.2791851354245
1274.41 89.61330272289062
1319.82 90.90470394255875
1366.7 90.99969997235067
1413.57 90.95524112178909
1463.38 89.8587074145898
1516.11 89.2210403158312
1568.85 88.44518210424266
1624.51 88.30411284553546
1681.64 89.03337578632821
1741.7 88.9323600582328
1803.22 88.57135465160678
1866.21 87.49385063876741
1932.13 86.13200033436843
1999.51 86.47658133181852
2069.82 86.9656010826188
2143.07 87.47440981842487
2219.24 87.0787790479136
2296.88 86.41179968232174
2378.91 85.97533658880685
2462.4 87.3613559387639
2548.83 88.29636151254365
2639.65 88.19111498086087
2731.93 86.64197283460953
2828.61 86.8980774858176
2928.22 87.53025058084212
3030.76 88.35657609466212
3137.7 88.07887823280475
3249.02 87.97566659301279
3363.28 88.0206850088377
3481.93 88.45364332878688
3604.98 88.64879897937114
3732.42 88.65801891058922
3864.26 88.3677967458162
4000.49 87.72398349671445
4141.11 88.29412724304137
4287.6 89.10165843408981
4438.48 88.90141935665918
4595.21 88.79467658926147
4756.35 89.01387871171949
4924.8 89.17445963024045
5097.66 88.74234733621257
5277.83 88.41181718497359
5463.87 88.7623500312934
5657.23 88.51502208428218
5856.45 88.37786549211701
6062.99 88.76437534766814
6276.86 88.60914964612323
6498.05 88.65867515468473
6726.56 88.7693971207278
6963.87 88.41040755364467
7209.96 88.83858712808022
7464.84 88.68011093423601
7727.05 88.57083582558178
7999.51 88.95667061437763
8282.23 88.75250184840397
8573.73 88.89570230130761
8876.95 88.73816470876392
9188.96 88.80870708593548
9514.16 88.92344413298383
9849.61 89.28018911306317
10196.8 89.57003898755069
10555.7 89.57831317971082
10927.7 89.40671559631247
11313.0 89.01134045610617
11712.9 88.47138322006191
12126.0 87.82270491363838
12553.7 87.16259711541568
12996.1 86.63872962055663
13454.6 86.497229541585
13929.2 86.94259738357765
14419.9 88.2113987436678
14928.2 90.27365772791578
15455.6 91.92067216664552
16000.5 91.43550860792897
16564.5 89.31513698483599
17148.9 87.04492440078455
17752.4 85.20702004833137
18379.4 83.84449420059448
19026.9 82.72163841042541
19697.8 81.62677647705328
19999.5 81.30285409259074
