Freq,Floor Bounce,Ceiling Bounce,Front Wall Bounce,Side Wall Bounce,Rear Wall Bounce,Total Early Reflection
20.5078,62.02950613604554,61.791149966199555,61.75123285815879,62.53025946713389,67.27266740393074,63.7033454999588
21.9727,65.32132043604392,65.27360578810004,65.08906964937708,65.8685009177585,69.9100496737348,66.7501130256775
23.4375,67.40979616085704,67.40754305821983,67.1612813020672,68.01303772975218,71.81408228152611,68.77689041435659
24.9023,69.68495567123142,69.60698738865926,69.40143018715882,70.2323937930243,73.70534390700224,70.8755712920665
26.3672,71.67593988287877,71.51046149785711,71.36807081583112,72.13588506066607,75.20681904892828,72.65239393724212
27.832,73.57033537889541,73.34353021412535,73.27639723642261,73.92506274991099,76.60309495402824,74.34703092085543
29.2969,74.9132949993371,74.60647642181979,74.60665123595544,75.19202214084228,77.57096945773982,75.53830950486659
30.7617,76.09582270115364,75.77573057386812,75.79044812283576,76.32990077017477,78.47274351468742,76.62277330216577
32.2266,77.05489019498877,76.61793087310721,76.71238528692992,77.19235236267916,79.07612767187493,77.43175850101534
33.6914,77.80735071837839,77.36618466297583,77.49067106086122,77.90838421869232,79.53695520361697,78.09781491110861
35.1562,78.15619072899212,77.72640198767051,77.85073241132591,78.23956974904571,79.70032696116078,78.39629052016588
36.6211,78.56681663757831,78.08904123172857,78.25262122682722,78.59500072306831,79.85998495209498,78.71989907632705
38.0859,78.82812792426697,78.28281305756462,78.49763106300524,78.80433145069968,79.91241964092264,78.90292377384594
39.5508,79.14123798728191,78.56111263526381,78.80982022714669,79.06923985714096,79.97779055901371,79.13904020797563
41.0156,79.35284520641324,78.76823602230462,79.0326057381001,79.25595995008219,80.00137184294576,79.30214076758321
42.4805,79.41913513064218,78.84830334335291,79.1002138051318,79.3302271376886,80.02962196318725,79.36379868103226
43.9453,79.48165461791447,78.85283778677426,79.145293690034,79.3571994332973,79.95403379390392,79.37377768897596
45.4102,79.72960624235071,79.09915519154251,79.40651369906966,79.57144805139126,80.01077994108746,79.57425420235799
46.875,79.81350516740316,79.19159038912443,79.49464450077188,79.65099974592454,80.05595341573839,79.65109952639762
48.3398,79.8471077282343,79.17556845332504,79.50886781061863,79.66534535725592,80.03786319709975,79.65688099112732
51.2695,79.97990808865559,79.28893068120829,79.63046256483852,79.79168032476552,80.12210866918376,79.7721739134301
52.7344,80.11930982341904,79.45006278626197,79.79520948442834,79.92273127727559,80.11384304251602,79.88717644638007
54.1992,80.44618752960827,79.77254861798109,80.14469870415263,80.21283800617957,80.23015483605258,80.16674824070054
55.6641,80.57010524540974,79.89961953256528,80.28017921863481,80.30738374952243,80.2417210888362,80.2650451722572
58.5938,80.68437192226625,79.95292806814629,80.35516334598995,80.41246217316434,80.35838612836145,80.3589096797468
60.0586,80.80112530658418,80.04822137943995,80.46053752627762,80.52036329906826,80.4519826935387,80.46306550026539
62.9883,81.09161617784717,80.32958313530065,80.7440466371164,80.80777390036852,80.70104090159396,80.74163774231467
64.4531,81.14527370695185,80.36182880688014,80.7903366070652,80.8513123285766,80.75215869020519,80.78737425596447
67.3828,81.21216534715643,80.44040251767481,80.86251223016178,80.9340725810402,80.84777908676014,80.8663732802291
68.8477,81.32515786617229,80.5476682065443,80.97102573161558,81.03933599184559,80.9625263640208,80.97621324723553
71.7773,81.60535897568182,80.80084605841441,81.24622281103164,81.29030192906794,81.16466541483122,81.22911110404601
74.707,81.80038263759008,80.98818037822494,81.44545963116315,81.47496961689717,81.31606112582438,81.41292234250729
77.6367,81.98179507182626,81.16011205952782,81.62306005839841,81.65333860748996,81.4787841948038,81.58757931053552
79.1016,82.08688432840938,81.25573802432528,81.73419134524815,81.74727870937453,81.5105357170802,81.67569571576337
82.0312,82.11733470597032,81.26788930379,81.76695247165225,81.76387480342228,81.45536155606963,81.6841064550831
84.9609,82.23787408034147,81.4034747748057,81.90219141358526,81.89870995280047,81.55801957293151,81.80991434281174
87.8906,82.27891318732054,81.52910792935336,81.97053136225327,81.94404448451675,81.65973147631114,81.8843861258617
90.8203,82.50008378980593,81.68878707350652,82.17345952448782,82.11526508373521,81.81048988065274,82.06708580880881
95.2148,82.6524996500762,81.76180956042293,82.30031988119048,82.2370514387369,81.90211357709084,82.18214366863101
98.1445,82.88468894101764,81.9874384013759,82.54156167990172,82.40579356217606,81.91128541582037,82.36116087060604
101.074,82.86045168383431,81.88794272987704,82.48902853265838,82.35445346734178,81.87133623170016,82.30897465432892
105.469,83.11284076429624,82.13500452044657,82.76956677361463,82.60241348876437,81.97059476509455,82.53811991204134
108.398,83.35508354953714,82.44160013051231,83.04250680318113,82.81390447261478,82.03857750932485,82.76244397988536
112.793,83.51358435312214,82.51623427001388,83.18370646545532,82.9072692892432,81.97934345441463,82.85225497490211
117.188,83.45978080560911,82.43224953235065,83.1271271897031,82.86932854247284,82.02946652003831,82.81268622261291
120.117,83.64352648158183,82.5607046247744,83.29293785568677,83.0033401048175,81.99561658256752,82.93664504681767
124.512,83.52075925342552,82.4689470580665,83.17401629518346,82.95219144594262,81.98304862690006,82.85288465172817
128.906,83.39949277145224,82.31112452315948,83.02692351975453,82.81413129337798,81.99189282410256,82.73759584636585
133.301,83.48979956598718,82.2861905098978,83.08475226555778,82.82986361779308,82.05589681677768,82.78064388705778
139.16,83.73655155722437,82.43522208989256,83.32445375590525,82.95060445177913,81.91207001490272,82.91894857409399
143.555,83.74229914391853,82.46436280122208,83.34905081605748,82.9678026505316,81.82651312323553,82.92101812841534
147.949,83.6657512678646,82.33279523362586,83.25469140298412,82.90797511380259,81.81466218524452,82.84422281311329
153.809,83.62800610183973,82.17920907643006,83.19899872823243,82.80786870721818,81.79384496157681,82.77219331794704
159.668,83.89191433101091,82.36079381923625,83.46414132399981,83.01824783383923,81.88957769365275,82.98477834684797
165.527,83.91184614162532,82.655846708371,83.57104978995567,83.09833600041047,82.00917527313986,83.10035059406238
171.387,83.95768555677165,82.60446919132882,83.59891906880654,83.09423491971918,81.85164902054038,83.08355288039573
177.246,84.07120063242348,82.5853987740088,83.69067429811665,83.0940596498676,81.75748617844127,83.11498075811596
183.105,83.93803051568428,82.63994928250065,83.59840321210015,83.08095300462907,81.63345924093505,83.05018560149134
188.965,83.9665299410792,82.59823916543888,83.62597572328204,83.07260907355221,81.69848204400424,83.06367931069138
196.289,84.27533668546653,82.75337804705923,83.91548201577771,83.27281811344574,81.8197351047105,83.29192810170778
203.613,84.26628639836069,82.88199354508347,84.00155098523811,83.30954071117242,81.57397329391824,83.30606513724678
210.938,84.1529224432679,82.80448655464379,83.87894362424557,83.22908085818507,81.39382056815266,83.19477961728325
218.262,84.16143996857421,82.7397783337071,83.85536860967146,83.18637042326367,81.65040338543294,83.20599579947728
225.586,84.4647726564699,82.96306292701613,84.18957343529047,83.40599927885407,81.72543848810801,83.45433450870047
232.91,84.41565312843268,82.85827020012584,84.06592408113285,83.21559372272407,81.24980205091174,83.29436579607795
241.699,84.38248665757934,82.55255596455372,83.9017287227413,83.15781410415333,80.95395351254412,83.14436414843557
250.488,84.81305736491531,82.26503476419458,84.22614926275884,83.23816785626107,80.60626070510632,83.27047053565926
259.277,84.6691030313983,82.66798476241705,84.2141344802557,83.36447798168594,80.69670573510716,83.32902325885993
268.066,84.1876151656699,82.37917357988465,83.87317968174415,83.03746544696108,80.12753549588814,82.93769579194273
276.855,84.08663066179443,82.50941708664836,83.83183604049374,83.40401315676182,80.22213856730377,83.0117681473015
287.109,83.76741781939744,82.49552746430501,83.53287925266321,83.16209821505373,80.51317528931591,82.83737832988727
297.363,84.20253976902276,82.85818249281758,83.91559749208852,83.17365968038419,79.96838082870066,83.05175720797939
307.617,84.00517424042114,82.70668868031031,83.5558101765221,83.21016018486412,79.68003774688191,82.86486933656607
319.336,83.71171875085733,82.4859426424601,83.2742602141606,82.91930691521763,79.24088417933754,82.57514755110893
329.59,83.06589821817866,82.09001562862068,82.57555028877762,83.10896365602002,78.98599573252783,82.19640414970608
341.309,82.41011691318867,81.47753682803683,81.77324841784622,82.4006059771524,78.9199841661529,81.56503196227854
353.027,81.40640302102096,80.51676442603323,80.90588916812045,82.47131829992375,79.0213650144874,81.00752048608173
366.211,81.69329291128321,79.54036811012057,81.9473442267902,81.58286966229214,80.13452387315388,81.0811849638734
379.395,82.11731829572807,78.77691659799717,82.53674399387707,80.90250550469797,82.10760146685091,81.48100529254398
392.578,84.01601042394627,79.37923679342158,84.33343078672276,80.03598720791118,82.10813579361765,82.4221725534818
405.762,84.57147927583885,80.29516008812884,84.78065236176897,80.3219807003849,80.44844600520516,82.61393338130043
420.41,84.39528824789343,81.04315590084057,84.521343631315,81.55333638861963,79.3583803831493,82.6233986426227
435.059,84.61940949403191,80.9938060406786,84.59825874975957,81.60138837247123,79.3527586454686,82.71581371821134
451.172,85.20184488292995,81.8157523512694,85.06008574267992,82.66792834645341,79.36037245165767,83.32420324946168
465.82,84.44945267727888,81.65648734344053,84.51783421874745,82.28905903672748,79.24228973327781,82.83933517903654
483.398,84.90727805602978,81.85366835355941,84.91260745802725,82.44144028373663,78.49267959395306,83.09134069809012
499.512,84.61440688550788,81.86097149629259,84.37062222622787,82.52920025927544,79.56825164957898,82.94901614594775
517.09,83.60136958272507,81.17769968017967,83.7570817976849,82.11793590924857,79.50015350933435,82.30354045009322
536.133,83.62976100255193,80.55499543496298,83.88570766925179,82.6061164738446,78.74080142891668,82.28408280797606
555.176,83.44948970791353,80.53937814148547,83.30500215437985,82.93700824107444,78.54945936305039,82.13150206655835
574.219,84.14799736951394,80.57095248324856,84.0381082551433,82.66148579216222,78.7636484896406,82.49021504246497
594.727,83.75711438948082,80.90436409408328,84.25449310668661,81.88990727756085,78.53850198058298,82.31964657474884
615.234,83.9308784907673,81.11651500882972,84.06167880740168,81.93269291251005,77.18555521557484,82.25142848516258
637.207,84.07004735773707,80.49026653365519,83.96221866242229,81.36400881963611,77.44747085009573,82.08814075273908
659.18,82.80845466092636,81.24068992225851,83.53666374030108,81.07558092129514,76.32680634321291,81.5883196620328
682.617,82.80265989152824,81.0947503695645,83.24737969848486,80.5531347406632,76.43711588891458,81.38721213444164
707.52,83.80203125472295,81.66117695368354,83.96049932140227,81.15951371734646,76.24351719409911,82.0855614116611
732.422,82.61808795592958,81.90743454422362,83.41026331532937,81.1559540060905,76.26819946810275,81.6436033113194
757.324,82.51731690290103,82.3768136481311,83.56769365496348,80.61343994675404,75.74311764369044,81.65231026804622
785.156,82.63158065807826,82.12546053040796,83.89541663602637,80.99910047518742,75.42540514345129,81.77472018223273
811.523,82.20794179666163,81.5323534189192,83.95820445671964,80.65851725188789,75.48664090270711,81.51737793003514
840.82,82.34506362085594,82.06501144246329,84.32680191794154,80.96757313799863,74.83370455636913,81.81091989106733
870.117,82.31378758847855,80.68902126387904,84.43895826361889,80.91677511913724,75.15912700887313,81.59427668457278
900.879,82.83131677723222,81.85310140429353,84.67793206654042,80.9842807813108,74.82620983008398,82.01172173946163
933.105,82.54429697952214,80.688557001305,84.36245110492665,80.53864762724518,74.80455979527008,81.54314081390369
965.332,82.40313151546968,81.68690965424325,84.53429053318682,80.32011382173927,73.60274109446249,81.67917255443624
1000.49,82.9069275548678,81.1929525385643,83.85463736002856,79.9066374911731,73.8748899862273,81.41203039866923
1035.64,82.53081031589778,81.80018019858657,83.25748375459779,79.60416915938859,72.09900589878644,81.13724736103897
1072.27,82.04951222123859,81.47854491894029,83.16056304903859,79.62400186650719,71.39344203707219,80.88770006677683
1108.89,83.25193291772815,81.43833471928214,82.3333589414491,78.92871348500125,70.66929770717192,80.87529382502488
1148.44,82.49549556329315,80.81148263717306,82.77110971194546,79.04129618552807,71.23836031393654,80.6517795842755
1189.45,83.41570776164929,81.1062152238109,82.81914084412877,78.41582642147047,69.87496664780465,80.92803375874152
1230.47,83.06101706450028,80.73954959101752,82.74174972909779,78.54259176322728,70.30979846695183,80.72729872290597
1274.41,82.8403623623309,80.0730189069438,83.4840441969655,79.05462469313129,71.1000751805272,80.86639414322121
1319.82,83.71547109219816,80.91903632627427,83.58560852351326,79.23871092744326,70.96562546512831,81.35810931954461
1366.7,83.52047077132148,81.0990956288582,83.71983383608153,79.21826134331769,70.70855011300773,81.36417961968968
1413.57,84.08054108181395,81.29190972069549,83.19995963786248,78.97369158575786,70.51457731429258,81.39674084263713
1463.38,84.06781017325252,80.81512955841974,82.22941418664813,78.36690415938622,70.33413311203515,80.9505185140396
1516.11,84.02761207136074,79.16894247814915,81.77953951689055,78.2788834181915,68.83206394649473,80.49947595759926
1568.85,83.4091990873163,79.53201246720496,81.38107224457065,77.21675897725784,69.41938652515746,80.06803861140068
1624.51,83.51448038148018,79.68492912875607,82.11614044084683,77.89342284618479,69.86300681852968,80.42703445523577
1681.64,83.24972796052634,80.39238315361689,82.9524205556261,78.66875357939558,69.95595500886732,80.80368333593461
1741.7,83.66138102764364,79.18162781041343,82.70344853237789,78.21264967312034,69.07756123967015,80.61360424462819
1803.22,83.00602190841727,79.71369319610451,82.31010740040344,78.16418143906954,68.7698896149157,80.30764288932653
1866.21,82.52389610776585,79.00561036023151,81.27283578973413,77.82469196948762,68.5270252040082,79.63903886902443
1932.13,81.51158805431402,78.81762753976429,81.44094163824147,77.6372708791891,68.34064935617624,79.26350365175142
1999.51,81.41714733589697,78.86777087339269,82.27832467794204,77.95815708790934,68.04452423028633,79.57587699165839
2069.82,80.21727206764582,79.36572658041288,83.04351236855226,78.47518448188552,67.75077402024655,79.72597228561389
2143.07,80.32444635323297,79.4094564583607,83.06968352053497,78.35939251575994,67.83219218066598,79.75345545048248
2219.24,78.94489194898514,78.72329315687126,82.17842823956262,77.8864655276039,67.50519163911726,78.86710790725333
2296.88,77.6863405236948,78.43151898463441,81.60851138743655,77.35646667235349,67.40092646288386,78.23626236153596
2378.91,74.51631028259129,78.28023395244114,82.15057743099766,77.88103842966503,66.78693682572658,78.14027410393403
2462.4,75.15177197250866,78.30619827890507,82.94992793096442,78.59579492621799,66.98643004305676,78.7513191314975
2548.83,76.96586846415309,78.29084016961811,82.26336372897464,77.93977815270301,66.5632412991932,78.48003315825576
2639.65,76.09194487193793,78.45036412348782,81.32085586916939,77.00160485679609,66.15431824306594,77.78817495089278
2731.93,74.28174243827272,77.61979180957283,80.91113787488061,76.37290875504884,65.10311481890548,77.06837993662327
2828.61,73.16123089014299,77.6946563105877,81.32794829231382,76.64899334122306,64.54296534650697,77.23226097406635
2928.22,74.20921604763447,77.50645394474434,81.89930841883202,77.00076077262335,64.93947565439059,77.64593534721722
3030.76,74.72530724389244,77.88139852571102,82.06765658082847,77.28288765654804,66.53752552591764,77.92469860947536
3137.7,75.10171037155425,78.33376494756502,81.9802409501376,77.80503058121816,67.5599538695341,78.11984106188514
3249.02,75.7920964221954,78.2023143804216,81.89176865841674,78.0799365100836,67.89422336419953,78.18316108393824
3363.28,75.84991564078744,78.3663623888999,82.33406944205652,78.08852801467157,67.24316704921264,78.42565789823178
3481.93,77.47132538472708,78.14601065256056,82.89238072818871,79.3888402826474,68.67076783430204,79.13809664259765
3604.98,77.42931449355578,77.51229169611608,83.35677437385202,80.37806564187389,69.83588893671458,79.51389848707805
3732.42,77.19721442205208,76.90121431226089,83.41929838598485,80.45226832988818,69.62605897846697,79.45802875420549
3864.26,77.99791444773996,76.69326279783449,81.72708867017904,79.5656546713474,68.93860595469627,78.53597494901247
4000.49,78.50783098991622,76.44345948943293,80.99162932520174,79.10892701128712,68.25300030369435,78.17963691348095
4141.11,79.5058606705037,76.87258973259638,80.14017584265437,79.20626656763008,67.489896152499,78.19678585381939
4287.6,79.6756488457253,77.42973614862679,80.68748376748016,78.70264428704033,67.99989865646961,78.3982045011575
4438.48,79.14421379342454,76.83874139248809,80.78696166970599,78.453575043894,67.07646171562531,78.13468150500458
4595.21,79.38919466276107,77.18773479481874,79.31852953222153,78.09550664086814,67.03115694487936,77.6972729368924
4756.35,79.12795242561354,76.57241029123854,80.14346503309878,77.9327943602861,67.22240879518037,77.75228658085132
4924.8,79.75480828893558,76.49897933482072,79.73792704835306,79.0389655425727,66.61436503348433,78.03521683506057
5097.66,81.38122649159433,77.14525915923433,81.47600107484855,80.14545522050464,68.387134858845,79.4452762739279
5277.83,81.63076012817861,77.74797345711507,82.72307695414298,80.59047649222002,67.47884883970458,80.10698920056981
5463.87,81.9485493843097,77.53265441709061,82.83221986060212,80.58448451985038,67.6205632932882,80.21548101712835
5657.23,81.71842442768191,77.33626944447252,83.06461253973666,80.00513511225665,66.57856072491666,80.08495241090776
5856.45,80.78323425217565,77.06259758314022,82.60767826459183,79.4514335497652,65.89096059847083,79.49309956407217
6062.99,79.60274545894012,76.32172935274849,82.62058690727562,79.30096785592764,65.80355270454415,79.09452453992795
6276.86,80.6846096531705,75.86238876977794,82.29640705911153,78.53043694469497,65.1261188115953,79.02954292036385
6498.05,80.37556541069897,75.15625727495099,82.40703880040856,78.5805461368283,65.15662807938024,78.93511093643185
6726.56,79.26333509448257,74.851297246685,81.82864521189153,77.80155863501088,64.46192350842757,78.20051249309543
6963.87,79.62048638911406,75.36779258071203,80.94423834916299,76.10766997349873,62.9991913041475,77.68106855829899
7209.96,80.58941539120447,75.79787466943458,82.06679527104731,77.44058696782986,64.21437468990675,78.71095212000165
7464.84,80.94801875642759,75.62827093544706,83.82878422301266,78.76220774463941,64.86153152591118,79.82887540169952
7727.05,80.58466301469349,74.04189119202032,84.98058889563157,79.62561836204827,65.97889929349584,80.41623894578959
7999.51,80.05395281123285,71.01660476581546,84.27809198889457,79.28766969667699,64.60349883044248,79.72615214728887
8282.23,79.27577390572199,69.1958902423923,83.85822223669344,78.49176133220652,63.166704733489894,79.12545892256186
8573.73,79.91089517150985,68.07450856870983,83.27231096542025,77.43511192637025,61.779750543222946,78.73590404648624
8876.95,79.43270976105147,69.29133309358392,82.95642013732589,76.59215681541833,61.2220513991025,78.33446250122955
9188.96,78.24284707019001,71.01887938165851,81.83098602756012,75.34322148637693,59.776663662594956,77.27511298253262
9514.16,78.30612627648523,70.68677669720806,81.72075708645394,74.91166939051905,58.967744274574386,77.15687553573966
