Freq "Ceiling Bounce"
20.5078 61.791149966199555
21.9727 65.27360578810004
23.4375 67.40754305821983
24.9023 69.60698738865926
26.3672 71.51046149785711
27.832 73.34353021412535
29.2969 74.60647642181979
30.7617 75.77573057386812
32.2266 76.61793087310721
33.6914 77.36618466297583
35.1562 77.72640198767051
36.6211 78.08904123172857
38.0859 78.28281305756462
39.5508 78.56111263526381
41.0156 78.76823602230462
42.4805 78.84830334335291
43.9453 78.85283778677426
45.4102 79.09915519154251
46.875 79.19159038912443
48.3398 79.17556845332504
51.2695 79.28893068120829
52.7344 79.45006278626197
54.1992 79.77254861798109
55.6641 79.89961953256528
58.5938 79.95292806814629
60.0586 80.04822137943995
62.9883 80.32958313530065
64.4531 80.36182880688014
67.3828 80.44040251767481
68.8477 80.5476682065443
71.7773 80.80084605841441
74.707 80.98818037822494
77.6367 81.16011205952782
79.1016 81.25573802432528
82.0312 81.26788930379
84.9609 81.4034747748057
87.8906 81.52910792935336
90.8203 81.68878707350652
95.2148 81.76180956042293
98.1445 81.9874384013759
101.074 81.88794272987704
105.469 82.13500452044657
108.398 82.44160013051231
112.793 82.51623427001388
117.188 82.43224953235065
120.117 82.5607046247744
124.512 82.4689470580665
128.906 82.31112452315948
133.301 82.2861905098978
139.16 82.43522208989256
143.555 82.46436280122208
147.949 82.33279523362586
153.809 82.17920907643006
159.668 82.36079381923625
165.527 82.655846708371
171.387 82.60446919132882
177.246 82.5853987740088
183.105 82.63994928250065
188.965 82.59823916543888
196.289 82.75337804705923
203.613 82.88199354508347
210.938 82.80448655464379
218.262 82.7397783337071
225.586 82.96306292701613
232.91 82.85827020012584
241.699 82.55255596455372
250.488 82.26503476419458
259.277 82.66798476241705
268.066 82.37917357988465
276.855 82.50941708664836
287.109 82.49552746430501
297.363 82.85818249281758
307.617 82.70668868031031
319.336 82.4859426424601
329.59 82.09001562862068
341.309 81.47753682803683
353.027 80.51676442603323
366.211 79.54036811012057
379.395 78.77691659799717
392.578 79.37923679342158
405.762 80.29516008812884
420.41 81.04315590084057
435.059 80.9938060406786
451.172 81.8157523512694
465.82 81.65648734344053
483.398 81.85366835355941
499.512 81.86097149629259
517.09 81.17769968017967
536.133 80.55499543496298
555.176 80.53937814148547
574.219 80.57095248324856
594.727 80.90436409408328
615.234 81.11651500882972
637.207 80.49026653365519
659.18 81.24068992225851
682.617 81.0947503695645
707.52 81.66117695368354
732.422 81.90743454422362
757.324 82.3768136481311
785.156 82.12546053040796
811.523 81.5323534189192
840.82 82.06501144246329
870.117 80.68902126387904
900.879 81.85310140429353
933.105 80.688557001305
965.332 81.68690965424325
1000.49 81.1929525385643
1035.64 81.80018019858657
1072.27 81.47854491894029
1108.89 81.43833471928214
1148.44 80.81148263717306
1189.45 81.1062152238109
1230.47 80.73954959101752
1274.41 80.0730189069438
1319.82 80.91903632627427
1366.7 81.0990956288582
1413.57 81.29190972069549
1463.38 80.81512955841974
1516.11 79.16894247814915
1568.85 79.53201246720496
1624.51 79.68492912875607
1681.64 80.39238315361689
1741.7 79.18162781041343
1803.22 79.71369319610451
1866.21 79.00561036023151
1932.13 78.81762753976429
1999.51 78.86777087339269
2069.82 79.36572658041288
2143.07 79.4094564583607
2219.24 78.72329315687126
2296.88 78.43151898463441
2378.91 78.28023395244114
2462.4 78.30619827890507
2548.83 78.29084016961811
2639.65 78.45036412348782
2731.93 77.61979180957283
2828.61 77.6946563105877
2928.22 77.50645394474434
3030.76 77.88139852571102
3137.7 78.33376494756502
3249.02 78.2023143804216
3363.28 78.3663623888999
3481.93 78.14601065256056
3604.98 77.51229169611608
3732.42 76.90121431226089
3864.26 76.69326279783449
4000.49 76.44345948943293
4141.11 76.87258973259638
4287.6 77.42973614862679
4438.48 76.83874139248809
4595.21 77.18773479481874
4756.35 76.57241029123854
4924.8 76.49897933482072
5097.66 77.14525915923433
5277.83 77.74797345711507
5463.87 77.53265441709061
5657.23 77.33626944447252
5856.45 77.06259758314022
6062.99 76.32172935274849
6276.86 75.86238876977794
6498.05 75.15625727495099
6726.56 74.851297246685
6963.87 75.36779258071203
7209.96 75.79787466943458
7464.84 75.62827093544706
7727.05 74.04189119202032
7999.51 71.01660476581546
8282.23 69.1958902423923
8573.73 68.07450856870983
8876.95 69.29133309358392
9188.96 71.01887938165851
9514.16 70.68677669720806
9849.61 67.15323998419201
10196.8 65.34702647590407
10555.7 66.7473209093967
10927.7 67.51036304438762
11313.0 66.8669659043377
11712.9 65.72550195808401
12126.0 64.49608882015312
12553.7 64.29134993187513
12996.1 64.65844244640144
13454.6 64.75140272647234
13929.2 64.46049891523224
14419.9 64.0162333911164
14928.2 61.92586334918575
15455.6 61.826411551482806
16000.5 62.77112107531926
16564.5 63.174017772487986
17148.9 62.501913712926836
17752.4 60.779469287717546
18379.4 59.13608480952175
19026.9 57.835966247972465
19697.8 58.216963578394314
19999.5 58.63844236660128
