Freq "Front Wall Bounce"
20.5078 62.078578312704224
21.9727 65.41641510392253
23.4375 67.48862675661265
24.9023 69.72877564170426
26.3672 71.69541627037655
27.832 73.60374269096806
29.2969 74.93399669050088
30.7617 76.11779357738118
32.2266 77.03973074147535
33.6914 77.81801651540664
35.1562 78.17807786587134
36.6211 78.57996668137267
38.0859 78.82497651755068
39.5508 79.13716568169214
41.0156 79.35995119264555
42.4805 79.42755925967724
43.9453 79.47263914457943
45.4102 79.7338591536151
46.875 79.82198995531732
48.3398 79.83621326516408
51.2695 79.95780801938396
52.7344 80.12255493897378
54.1992 80.47204415869807
55.6641 80.60752467318025
58.5938 80.6825088005354
60.0586 80.78788298082304
62.9883 81.07139209166183
64.4531 81.11768206161062
67.3828 81.18985768470722
68.8477 81.29837118616102
71.7773 81.57356826557708
74.707 81.77280508570857
77.6367 81.95040551294385
79.1016 82.0615367997936
82.0312 82.09429792619768
84.9609 82.22953686813071
87.8906 82.29787681679869
90.8203 82.50080497903328
95.2148 82.62766533573591
98.1445 82.86890713444716
101.074 82.8163739872038
105.469 83.09691222816006
108.398 83.36985225772656
112.793 83.51105192000074
117.188 83.45447264424854
120.117 83.62028331023221
124.512 83.5013617497289
128.906 83.35426897429997
133.301 83.41209772010322
139.16 83.65179921045069
143.555 83.67639627060292
147.949 83.58203685752956
153.809 83.52634418277785
159.668 83.79148677854526
165.527 83.8983952445011
171.387 83.92626452335196
177.246 84.01801975266207
183.105 83.92574866664557
188.965 83.95332117782749
196.289 84.24282747032315
203.613 84.32889643978353
210.938 84.206289078791
218.262 84.1827140642169
225.586 84.5169188898359
232.91 84.39326953567829
241.699 84.22907417728673
250.488 84.55349471730426
259.277 84.54147993480113
268.066 84.20052513628957
276.855 84.15918149503918
287.109 83.86022470720863
297.363 84.24294294663397
307.617 83.88315563106754
319.336 83.60160566870604
329.59 82.90289574332307
341.309 82.10059387239166
353.027 81.23323462266589
366.211 82.27468968133562
379.395 82.8640894484225
392.578 84.66077624126821
405.762 85.10799781631442
420.41 84.84868908586044
435.059 84.925604204305
451.172 85.38743119722535
465.82 84.84517967329289
483.398 85.23995291257268
499.512 84.6979676807733
517.09 84.08442725223034
536.133 84.21305312379724
555.176 83.6323476089253
574.219 84.36545370968875
594.727 84.58183856123205
615.234 84.38902426194711
637.207 84.28956411696771
659.18 83.86400919484652
682.617 83.57472515303031
707.52 84.2878447759477
732.422 83.73760876987481
757.324 83.8950391095089
785.156 84.2227620905718
811.523 84.28554991126506
840.82 84.65414737248696
870.117 84.76630371816432
900.879 85.00527752108587
933.105 84.68979655947209
965.332 84.86163598773226
1000.49 84.181982814574
1035.64 83.58482920914322
1072.27 83.48790850358401
1108.89 82.66070439599454
1148.44 83.09845516649088
1189.45 83.1464862986742
1230.47 83.06909518364324
1274.41 83.81138965151092
1319.82 83.9129539780587
1366.7 84.04717929062696
1413.57 83.52730509240791
1463.38 82.55675964119357
1516.11 82.10688497143599
1568.85 81.70841769911607
1624.51 82.44348589539229
1681.64 83.27976601017156
1741.7 83.03079398692333
1803.22 82.63745285494888
1866.21 81.60018124427958
1932.13 81.7682870927869
1999.51 82.60567013248749
2069.82 83.37085782309768
2143.07 83.3970289750804
2219.24 82.50577369410806
2296.88 81.93585684198199
2378.91 82.4779228855431
2462.4 83.27727338550987
2548.83 82.59070918352009
2639.65 81.64820132371483
2731.93 81.23848332942603
2828.61 81.65529374685926
2928.22 82.22665387337744
3030.76 82.3950020353739
3137.7 82.30758640468304
3249.02 82.21911411296216
3363.28 82.66141489660195
3481.93 83.21972618273415
3604.98 83.68411982839746
3732.42 83.74664384053028
3864.26 82.05443412472445
4000.49 81.3189747797472
4141.11 80.4675212971998
4287.6 81.0148292220256
4438.48 81.11430712425144
4595.21 79.64587498676696
4756.35 80.47081048764421
4924.8 80.0652725028985
5097.66 81.80334652939399
5277.83 83.0504224086884
5463.87 83.15956531514755
5657.23 83.39195799428208
5856.45 82.93502371913726
6062.99 82.94793236182105
6276.86 82.62375251365697
6498.05 82.734384254954
6726.56 82.15599066643696
6963.87 81.27158380370844
7209.96 82.39414072559276
7464.84 84.15612967755808
7727.05 85.307934350177
7999.51 84.60543744344001
8282.23 84.18556769123887
8573.73 83.59965641996568
8876.95 83.28376559187132
9188.96 82.15833148210555
9514.16 82.04810254099937
9849.61 82.51277166630055
10196.8 83.20913629568324
10555.7 83.15502373813544
10927.7 82.80425701777267
11313.0 82.1185158347577
11712.9 81.51408454882254
12126.0 81.51427961198823
12553.7 81.66497158774273
12996.1 81.66253482422023
13454.6 81.45999886873604
13929.2 81.17864413987691
14419.9 80.83867944334098
14928.2 80.20559160662981
15455.6 79.55735232895692
16000.5 79.15317274709568
16564.5 79.06339225766334
17148.9 78.91435201103798
17752.4 78.4222180301766
18379.4 77.68539946398356
19026.9 77.01158362171654
19697.8 76.28147172965159
19999.5 75.96698551275311
