Freq "Rear Wall Bounce"
20.5078 67.60001285847618
21.9727 70.23739512828024
23.4375 72.14142773607153
24.9023 74.03268936154768
26.3672 75.53416450347372
27.832 76.93044040857367
29.2969 77.89831491228526
30.7617 78.80008896923286
32.2266 79.40347312642035
33.6914 79.86430065816239
35.1562 80.0276724157062
36.6211 80.18733040664041
38.0859 80.23976509546807
39.5508 80.30513601355915
41.0156 80.3287172974912
42.4805 80.35696741773268
43.9453 80.28137924844935
45.4102 80.33812539563289
46.875 80.38329887028382
48.3398 80.36520865164519
51.2695 80.4494541237292
52.7344 80.44118849706146
54.1992 80.55750029059803
55.6641 80.56906654338164
58.5938 80.68573158290687
60.0586 80.77932814808413
62.9883 81.0283863561394
64.4531 81.07950414475064
67.3828 81.17512454130559
68.8477 81.28987181856624
71.7773 81.49201086937666
74.707 81.64340658036983
77.6367 81.80612964934923
79.1016 81.83788117162564
82.0312 81.78270701061507
84.9609 81.88536502747696
87.8906 81.98707693085657
90.8203 82.13783533519819
95.2148 82.22945903163628
98.1445 82.2386308703658
101.074 82.19868168624559
105.469 82.29794021964
108.398 82.36592296387028
112.793 82.30668890896008
117.188 82.35681197458374
120.117 82.32296203711296
124.512 82.3103940814455
128.906 82.319238278648
133.301 82.38324227132311
139.16 82.23941546944818
143.555 82.15385857778097
147.949 82.14200763978995
153.809 82.12119041612223
159.668 82.2169231481982
165.527 82.3365207276853
171.387 82.17899447508583
177.246 82.08483163298669
183.105 81.96080469548048
188.965 82.02582749854966
196.289 82.14708055925594
203.613 81.90131874846368
210.938 81.7211660226981
218.262 81.97774883997837
225.586 82.05278394265346
232.91 81.57714750545718
241.699 81.28129896708955
250.488 80.93360615965176
259.277 81.02405118965261
268.066 80.45488095043359
276.855 80.54948402184921
287.109 80.84052074386133
297.363 80.2957262832461
307.617 80.00738320142733
319.336 79.56822963388298
329.59 79.31334118707326
341.309 79.24732962069835
353.027 79.34871046903284
366.211 80.4618693276993
379.395 82.43494692139635
392.578 82.43548124816309
405.762 80.7757914597506
420.41 79.68572583769475
435.059 79.68010410001403
451.172 79.6877179062031
465.82 79.56963518782325
483.398 78.82002504849848
499.512 79.89559710412442
517.09 79.82749896387979
536.133 79.06814688346212
555.176 78.87680481759583
574.219 79.09099394418604
594.727 78.86584743512842
615.234 77.51290067012027
637.207 77.77481630464118
659.18 76.65415179775836
682.617 76.76446134346001
707.52 76.57086264864455
732.422 76.59554492264819
757.324 76.07046309823588
785.156 75.75275059799672
811.523 75.81398635725253
840.82 75.16105001091456
870.117 75.48647246341855
900.879 75.15355528462943
933.105 75.1319052498155
965.332 73.93008654900792
1000.49 74.20223544077274
1035.64 72.42635135333188
1072.27 71.72078749161763
1108.89 70.99664316171736
1148.44 71.56570576848198
1189.45 70.20231210235008
1230.47 70.63714392149727
1274.41 71.42742063507264
1319.82 71.29297091967375
1366.7 71.03589556755317
1413.57 70.841922768838
1463.38 70.66147856658058
1516.11 69.15940940104018
1568.85 69.7467319797029
1624.51 70.19035227307512
1681.64 70.28330046341276
1741.7 69.40490669421558
1803.22 69.09723506946114
1866.21 68.85437065855363
1932.13 68.66799481072167
1999.51 68.37186968483176
2069.82 68.07811947479198
2143.07 68.15953763521144
2219.24 67.8325370936627
2296.88 67.7282719174293
2378.91 67.11428228027202
2462.4 67.3137754976022
2548.83 66.89058675373863
2639.65 66.4816636976114
2731.93 65.43046027345092
2828.61 64.87031080105241
2928.22 65.26682110893603
3030.76 66.86487098046308
3137.7 67.88729932407954
3249.02 68.22156881874497
3363.28 67.5705125037581
3481.93 68.99811328884749
3604.98 70.16323439126
3732.42 69.95340443301241
3864.26 69.26595140924171
4000.49 68.58034575823979
4141.11 67.81724160704445
4287.6 68.32724411101505
4438.48 67.40380717017075
4595.21 67.3585023994248
4756.35 67.54975424972581
4924.8 66.94171048802977
5097.66 68.71448031339044
5277.83 67.80619429425002
5463.87 67.94790874783362
5657.23 66.9059061794621
5856.45 66.21830605301626
6062.99 66.13089815908958
6276.86 65.45346426614074
6498.05 65.48397353392568
6726.56 64.78926896297301
6963.87 63.326536758692924
7209.96 64.54172014445217
7464.84 65.18887698045661
7727.05 66.3062447480413
7999.51 64.93084428498791
8282.23 63.49405018803533
8573.73 62.10709599776837
8876.95 61.54939685364792
9188.96 60.10400911714041
9514.16 59.29508972911981
9849.61 59.291099756341396
10196.8 59.18882657467199
10555.7 59.00239651878417
10927.7 58.837701371903336
11313.0 57.357824363367484
11712.9 54.49041935184579
12126.0 51.27678102058343
12553.7 48.06113148575824
12996.1 50.830242411208985
13454.6 52.81433147700528
13929.2 52.67039370441208
14419.9 51.71379381359779
14928.2 51.443113492797494
15455.6 51.4417708921936
16000.5 50.505535601350175
16564.5 49.84207155761442
17148.9 49.03640212398099
17752.4 47.99068255845074
18379.4 47.187727524609414
19026.9 46.7410456408208
19697.8 46.470827070101365
19999.5 47.228734584043764
