Freq "On Axis"
20.5078 53.983900000000006
21.9727 61.75790000000001
23.4375 65.4736
24.9023 68.13560000000001
26.3672 70.7228
27.832 72.7695
29.2969 75.0118
30.7617 76.8317
32.2266 78.02249999999998
33.6914 79.17610000000002
35.1562 80.0792
36.6211 80.7532
38.0859 81.2449
39.5508 81.5985
41.0156 81.79650000000001
42.4805 81.8497
43.9453 81.8897
45.4102 81.69149999999999
46.875 81.605
48.3398 81.441
51.2695 81.6037
52.7344 81.333
54.1992 81.26150000000001
55.6641 81.1015
58.5938 80.8391
60.0586 80.7518
62.9883 80.4966
64.4531 80.3196
67.3828 80.09719999999999
68.8477 80.0153
71.7773 79.8574
74.707 79.8242
77.6367 79.7531
79.1016 79.8007
82.0312 79.8852
84.9609 80.0078
87.8906 80.0756
90.8203 80.00449999999998
95.2148 80.333
98.1445 80.5448
101.074 80.4785
105.469 80.6312
108.398 80.9643
112.793 80.96799999999999
117.188 81.0758
120.117 81.1879
124.512 81.3189
128.906 81.4169
133.301 81.47910000000002
139.16 81.4964
143.555 81.1759
147.949 81.2987
153.809 81.2488
159.668 81.2878
165.527 81.11619999999999
171.387 80.99510000000001
177.246 80.9462
183.105 80.8005
188.965 80.2382
196.289 80.1796
203.613 80.0964
210.938 79.9152
218.262 79.7619
225.586 80.4362
232.91 80.466
241.699 80.2586
250.488 81.1324
259.277 80.9305
268.066 81.0095
276.855 81.2338
287.109 81.2047
297.363 81.5829
307.617 81.0264
319.336 80.9477
329.59 80.564
341.309 80.8888
353.027 81.23169999999999
366.211 82.1109
379.395 81.5179
392.578 81.3382
405.762 81.4622
420.41 81.8711
435.059 81.7268
451.172 82.2645
465.82 81.8575
483.398 81.6249
499.512 81.5796
517.09 81.7626
536.133 82.2379
555.176 81.7081
574.219 82.2327
594.727 82.0202
615.234 81.6071
637.207 81.4077
659.18 81.4835
682.617 82.0555
707.52 82.11949999999999
732.422 81.72369999999998
757.324 81.2207
785.156 80.78979999999999
811.523 80.0566
840.82 79.5621
870.117 79.54339999999999
900.879 80.1062
933.105 80.6044
965.332 80.6034
1000.49 79.59870000000001
1035.64 78.9434
1072.27 78.7705
1108.89 80.028
1148.44 81.9161
1189.45 81.3093
1230.47 81.0897
1274.41 80.844
1319.82 80.3644
1366.7 80.36070000000001
1413.57 81.1072
1463.38 82.251
1516.11 82.4829
1568.85 82.0288
1624.51 81.1119
1681.64 80.9594
1741.7 81.534
1803.22 82.0948
1866.21 81.3035
1932.13 80.02599999999998
1999.51 80.71949999999998
2069.82 81.7968
2143.07 81.2176
2219.24 80.8909
2296.88 81.9865
2378.91 82.1382
2462.4 81.8548
2548.83 82.16919999999999
2639.65 81.4201
2731.93 80.4093
2828.61 80.4942
2928.22 79.6055
3030.76 80.82050000000001
3137.7 81.3647
3249.02 80.8973
3363.28 81.0289
3481.93 80.93979999999999
3604.98 80.39359999999999
3732.42 80.6317
3864.26 79.9415
4000.49 80.09049999999999
4141.11 80.0868
4287.6 80.7995
4438.48 81.4356
4595.21 81.992
4756.35 81.5784
4924.8 81.357
5097.66 81.4129
5277.83 79.73750000000001
5463.87 80.2804
5657.23 80.19460000000001
5856.45 80.2467
6062.99 80.9746
6276.86 81.7829
6498.05 81.43269999999998
6726.56 81.12360000000001
6963.87 80.87439999999998
7209.96 81.2048
7464.84 81.3625
7727.05 80.9963
7999.51 80.7845
8282.23 81.0295
8573.73 81.1721
8876.95 80.72579999999999
9188.96 80.2554
9514.16 80.2356
9849.61 80.15120000000002
10196.8 80.0246
10555.7 80.1629
10927.7 79.91660000000002
11313.0 80.0917
11712.9 80.30269999999999
12126.0 80.1038
12553.7 79.97629999999998
12996.1 79.97120000000001
13454.6 80.2189
13929.2 79.9596
14419.9 79.7754
14928.2 79.8074
15455.6 79.8218
16000.5 79.797
16564.5 79.8171
17148.9 79.7898
17752.4 79.9155
18379.4 79.7446
19026.9 79.3801
19697.8 79.0272
19999.5 78.6885
