Freq,On Axis,Listening Window,Sound Power,Early Reflections,Early Reflections DI,Sound Power DI,DI offset
20.5078,35.593299999999985,35.27973237200284,41.99260224446478,39.92774778553955,35.35198458646329,33.28713012753806,40
21.9727,42.30040000000001,42.51136023493795,46.91706239438325,44.970984760657544,37.54037547428041,35.5942978405547,40
23.4375,48.197500000000005,48.205869397718416,48.49712932005342,48.2924031527191,39.91346624499931,39.708740077665,40
24.9023,49.2608,49.26580401722667,49.357534907802446,49.21462893753234,40.05117507969433,39.908269109424225,40
26.3672,53.579899999999995,53.564353475114515,53.32149517463007,53.36262289945209,40.201730575662424,40.24285830048444,40
27.832,57.0596,57.049587878094584,56.879542311287864,56.90614932622658,40.143438551868,40.17004556680672,40
29.2969,58.9002,58.89613722160682,58.8245080456572,58.79872840490329,40.097408816703535,40.071629175949624,40
30.7617,62.3772,62.37797922389957,62.4386730635303,62.357657202561015,40.02032202133856,39.93930616036927,40
32.2266,65.1337,65.13190388795172,65.15336765390037,65.08886999695387,40.04303389099785,39.97853623405135,40
33.6914,67.27899999999998,67.27402553184008,67.22167872872762,67.19228878459464,40.081736747245444,40.05234680311246,40
35.1562,69.9941,69.98820932937639,69.89240646424288,69.88805159256034,40.100157736816044,40.09580286513351,40
36.6211,72.1777,72.17336258054769,72.13676883030847,72.10794052975545,40.065422050792236,40.03659375023922,40
38.0859,72.9554,72.9523013503611,72.95070185209062,72.90616969895288,40.04613165140822,40.00159949827048,40
39.5508,74.7733,74.76491695906155,74.63513580867958,74.64661029335419,40.118306665707365,40.12978115038197,40
41.0156,76.70130000000002,76.69232407869048,76.53731607963627,76.56916126067554,40.12316281801493,40.155007999054206,40
42.4805,78.2134,78.20409098137988,78.05007353939816,78.08045758747882,40.12363339390106,40.15401744198172,40
43.9453,79.1886,79.17831967996665,79.01886627289066,79.05671280726165,40.121606872705,40.159453407075986,40
45.4102,79.76270000000001,79.74964088765121,79.54842955182086,79.60636246008792,40.14327842756329,40.20121133583035,40
46.875,80.5183,80.5052050592895,80.29089584323587,80.3564280811935,40.148776978095995,40.21430921605362,40
48.3398,81.1937,81.1822128691107,81.00965531587026,81.05687453200864,40.125338337102065,40.17255755324044,40
51.2695,82.06260000000002,82.05006713651146,81.86064440562409,81.91912898373594,40.130938152775514,40.18942273088737,40
52.7344,82.3669,82.35500044215924,82.18921141223848,82.23550580217348,40.11949463998576,40.16578902992076,40
54.1992,82.6529,82.63811772819973,82.42569537629647,82.49685937422781,40.14125835397192,40.21242235190326,40
55.6641,82.9436,82.91936729947831,82.51657067745589,82.68645885202274,40.23290844745557,40.40279662202242,40
58.5938,83.1239,83.09839089843031,82.61934172864152,82.83253023849967,40.26586065993064,40.479049169788794,40
60.0586,83.0106,82.98524077459146,82.483482150699,82.70745598660827,40.277784787983194,40.50175862389246,40
62.9883,82.7848,82.76807574177182,82.48945770176866,82.59998023992625,40.16809550184557,40.27861804000317,40
64.4531,82.7043,82.68910874087096,82.44523944472884,82.53831725153516,40.1507914893358,40.24386929614212,40
67.3828,82.6216,82.60765766797614,82.40600850281304,82.47744475646589,40.130212911510256,40.201649165163104,40
68.8477,82.64569999999999,82.62981097279543,82.3978674477096,82.4840407760869,40.145770196708526,40.231943525085825,40
71.7773,82.72070000000001,82.70157875529867,82.40413980615786,82.52579614522976,40.17578261006891,40.29743894914081,40
74.707,82.6975,82.67698778894827,82.36775927441388,82.49502968480415,40.181958104144115,40.30922851453438,40
77.6367,82.6619,82.64107701553344,82.33734448396112,82.461069587069,40.180007428464435,40.30373253157232,40
79.1016,82.6932,82.67211367492932,82.36321336853662,82.4898417620592,40.18227191287012,40.3089003063927,40
82.0312,82.6708,82.64788116080643,82.30318940968682,82.44717098818406,40.20071017262238,40.34469175111961,40
84.9609,82.4034,82.38966911815506,82.24219434737395,82.28530122166111,40.10436789649394,40.1474747707811,40
87.8906,82.4844,82.46106835185232,82.24095999198182,82.3175522771558,40.14351607469652,40.220108359870494,40
90.8203,82.5081,82.47958437475879,82.16760120964976,82.29120579079374,40.18837858396505,40.31198316510903,40
95.2148,82.7714,82.73038070632236,82.1662077179504,82.41592745649373,40.31445324982863,40.564172988371965,40
98.1445,82.81669999999998,82.7780427567598,82.19505894980891,82.45885395758727,40.31918879917254,40.58298380695089,40
101.074,82.5802,82.54858362905966,82.0685965300201,82.27788254867701,40.27070108038265,40.47998709903956,40
105.469,82.528,82.49283488399682,81.98278138005769,82.2042563577567,40.288578526240116,40.51005350393913,40
108.398,82.5991,82.56243172936333,82.00876383965752,82.25153220905125,40.31089952031208,40.55366788970581,40
112.793,82.67640000000002,82.63711737686698,82.19822186468248,82.37985103785999,40.25726633900699,40.4388955121845,40
117.188,82.4913,82.44550095982045,81.8541170872359,82.11173826728206,40.333762692538386,40.591383872584544,40
120.117,82.4977,82.45487976331727,81.80085651678992,82.09729155101003,40.357588212307235,40.654023246527345,40
124.512,82.5277,82.48943589924285,81.94323413192002,82.18691458759339,40.30252131164946,40.54620176732283,40
128.906,82.7215,82.67346383354062,81.95775609273772,82.29114933710444,40.38231449643618,40.7157077408029,40
133.301,82.6408,82.59625693427121,81.90489692860162,82.21962891547464,40.376628018796566,40.691360005669594,40
139.16,82.0671,82.03190354508881,81.67302754444853,81.80321148032046,40.22869206476835,40.35887600064028,40
143.555,82.1376,82.08734102674077,81.59999092352182,81.79568484386387,40.291656182876906,40.48735010321896,40
147.949,82.5654,82.49689896140634,81.5970713127811,82.01690658399127,40.47999237741507,40.89982764862525,40
153.809,82.2125,82.15728137599432,81.36043184226165,81.72129552493102,40.43598585106329,40.79684953373267,40
159.668,82.2474,82.19201292104376,81.45098413713241,81.7814437569744,40.41056916406936,40.74102878391135,40
165.527,82.3195,82.26180355594414,81.52422568730451,81.85500779007258,40.406795765871564,40.73757786863963,40
171.387,82.1946,82.1329755949018,81.41109293709346,81.72278062885546,40.41019496604633,40.72188265780834,40
177.246,82.1213,82.06018991604422,81.35184302921073,81.64823729957972,40.411952616464504,40.708346886833496,40
183.105,82.0891,82.02308412015556,81.26392015694053,81.59048002475562,40.43260409539994,40.75916396321503,40
188.965,81.9592,81.8886648647297,81.06518408210226,81.42278837610525,40.46587648862446,40.82348078262744,40
196.289,82.2312,82.14781274681623,81.15269152195796,81.61110411778098,40.536708629035246,40.995121224858266,40
203.613,82.12750000000001,82.04604351360148,81.032770478018,81.4958183200185,40.550225193582975,41.01327303558348,40
210.938,82.0742,81.98786853026733,80.97052664712918,81.43642520818727,40.55144332208006,41.01734188313816,40
218.262,82.0486,81.96012426001693,80.98941951289424,81.42161904313267,40.53850521688426,40.97070474712268,40
225.586,82.0119,81.91884022095915,80.89884219092566,81.34887546425229,40.56996475670687,41.01999803003349,40
232.91,82.0352,81.9334676835309,80.80711542680687,81.31365672361574,40.61981095991517,41.12635225672403,40
241.699,82.0366,81.93061219351773,80.68543867341297,81.24376624556693,40.6868459479508,41.24517352010476,40
250.488,82.16200000000002,82.04335392459227,80.72499553923059,81.31861143188877,40.7247424927035,41.31835838536168,40
259.277,82.3396,82.23749570631765,80.95126181450516,81.54517042914566,40.69232527717199,41.286233891812486,40
268.066,82.1386,82.01221521165641,80.7326414491951,81.28861124721705,40.72360396443936,41.27957376246131,40
276.855,82.1798,82.05493163237533,80.59712173795249,81.25339614647191,40.801535485903415,41.45780989442284,40
287.109,82.3007,82.17179411318925,80.65427367675417,81.3272290378495,40.844565075339744,41.51752043643508,40
297.363,82.261,82.13719061248285,80.6806425921148,81.32931557674162,40.80787503574123,41.45654802036806,40
307.617,82.2555,82.10542743468362,80.53483153587717,81.2710246877578,40.83440274692582,41.570595898806445,40
319.336,82.1309,81.9697762516483,80.23859904491579,80.98741088689896,40.98236536474934,41.73117720673251,40
329.59,81.95290000000001,81.83115014150484,80.03383272537359,80.8647259993701,40.96642414213474,41.79731741613125,40
341.309,82.1554,81.96106137195879,79.89005923743294,80.86201679695886,41.09904457499994,42.071002134525855,40
353.027,82.0758,81.91121255984169,79.6853396731582,80.72387046537402,41.18734209446767,42.22587288668349,40
366.211,82.4852,82.28520841506126,79.83195299944857,80.98193321389569,41.303275201165576,42.45325541561269,40
379.395,83.4406,83.28212976400116,80.5988572084166,81.94780009580806,41.33432966819309,42.68327255558455,40
392.578,83.081,82.90426073095051,80.3203427860247,81.64263915355573,41.26162157739478,42.583917944925815,40
405.762,82.61479999999999,82.50311694016621,79.8882033181854,81.27204968705148,41.23106725311473,42.614913621980804,40
420.41,83.0557,82.9029213632929,79.95211390301624,81.54368419158448,41.35923717170843,42.950807460276664,40
435.059,82.5475,82.39059382210846,79.88177193049748,81.17037186605425,41.2202219560542,42.50882189161098,40
451.172,82.5073,82.3551828625654,79.33456549585256,80.9592323688003,41.3959504937651,43.02061736671284,40
465.82,82.8129,82.72086488928007,79.77572253466708,81.35617425502869,41.364690634251374,42.94514235461298,40
483.398,82.46910000000001,82.36434936151318,79.60479388171065,81.07051013938384,41.293839222129336,42.75955547980253,40
499.512,82.6596,82.45974309696831,79.55669465179214,81.15063452576403,41.30910857120428,42.90304844517617,40
517.09,82.4023,82.31282315491994,79.50903248002707,81.11615052237744,41.1966726325425,42.803790674892866,40
536.133,81.9407,81.79237177034706,78.95402946504714,80.45002990166577,41.34234186868129,42.83834230529992,40
555.176,82.5392,82.38792213755961,79.03321658158187,80.79133245689023,41.59658968066938,43.354705555977745,40
574.219,82.4887,82.33774380853777,79.13345957885602,80.85274718368612,41.48499662485165,43.20428422968175,40
594.727,82.2042,82.05358708989557,78.97035454165758,80.5909003795653,41.462686710330274,43.08323254823799,40
615.234,82.2597,82.11244618364195,78.78093794137648,80.54612505102259,41.566321132619365,43.33150824226547,40
637.207,82.09750000000001,81.96082617675498,78.81760067604097,80.5496224008525,41.41120377590248,43.14322550071401,40
659.18,82.1603,81.96622124866913,78.76666012303461,80.49162667963085,41.474594569038274,43.19956112563452,40
682.617,82.2445,82.02405594730378,78.78454108341953,80.4924660129208,41.53158993438298,43.23951486388425,40
707.52,82.48390000000002,82.22908548245704,78.80133872895392,80.42318871866051,41.805896763796525,43.427746753503115,40
732.422,81.87519999999999,81.62203237285493,78.32837214571963,79.95377395862077,41.66825841423416,43.293660227135305,40
757.324,82.1461,81.76598423099725,78.24646117610187,80.150350871669,41.61563335932824,43.51952305489537,40
785.156,82.0152,81.64593739755477,77.84578739107293,79.92437418803028,41.72156320952449,43.80015000648184,40
811.523,82.2465,81.77725433811358,77.46550042436863,79.7059470822554,42.07130725585817,44.31175391374495,40
840.82,81.4834,81.17661378837248,77.32515551103417,79.57520833279393,41.60140545557854,43.85145827733831,40
870.117,81.7583,81.21509445470905,76.93065911260251,79.0718497876327,42.143244667076345,44.28443534210653,40
900.879,82.29810000000002,81.96033722179484,76.90251099976969,79.41093775595033,42.549399465844516,45.057826222025156,40
933.105,81.5841,81.19787573384426,76.88062487042916,78.9742502996416,42.22362543420266,44.3172508634151,40
965.332,82.2552,81.89168285548516,76.9425400541223,79.46384135085167,42.42784150463349,44.949142801362854,40
1000.49,82.1815,81.65877711160066,76.9339945033159,79.34125538573863,42.31752172586202,44.724782608284755,40
1035.64,81.652,81.29143928932707,76.70129709146615,79.06281962394782,42.228619665379256,44.59014219786093,40
1072.27,81.5433,81.45166495185082,76.96678221101085,79.43804001379142,42.013624938059394,44.484882740839964,40
1108.89,81.3155,81.00892993388959,76.43303576545169,78.79802923962166,42.210900694267934,44.5758941684379,40
1148.44,81.54789999999998,81.28229942789677,76.54288363570676,79.1613975798681,42.12090184802868,44.739415792190016,40
1189.45,81.7097,81.52749701681974,76.4864027729866,78.78453822994157,42.74295878687816,45.04109424383314,40
1230.47,82.30409999999999,81.77532398845015,76.53039831589588,78.98588088247293,42.78944310597723,45.244925672554274,40
1274.41,82.02990000000001,81.5022904440386,76.22639163461095,78.79920613994142,42.703084304097175,45.275898809427645,40
1319.82,81.9427,81.33917410793677,75.92273977736942,78.64011225856802,42.699061849368746,45.416434330567355,40
1366.7,81.72100000000002,81.35878306819016,75.63898380535203,78.29292827599163,43.065854792198536,45.71979926283814,40
1413.57,81.60280000000002,81.13278021110476,75.14186961423742,78.12339575318748,43.00938445791728,45.99091059686734,40
1463.38,82.1158,81.59972961264499,75.19642160593831,78.27781731339324,43.32191229925175,46.40330800670668,40
1516.11,82.448,81.93105551127636,75.27304953884043,78.21367848628486,43.71737702499149,46.65800597243593,40
1568.85,82.61659999999999,81.9658021619183,74.72107402470373,77.95607369540183,44.00972846651648,47.24472813721458,40
1624.51,81.7101,81.24915399505413,73.98399528284922,77.12275966432256,44.12639433073157,47.26515871220491,40
1681.64,81.03439999999999,80.76609728402862,73.43350283895244,76.5422391331799,44.22385815084871,47.33259444507618,40
1741.7,81.9114,81.26346752357652,73.59735834014285,76.66229205269805,44.601175470878474,47.666109183433676,40
1803.22,82.8966,82.12243848456166,74.11096742387225,77.19475593128769,44.92768255327397,48.0114710606894,40
1866.21,82.7981,82.01962346683705,74.03829419072277,77.18111118743279,44.838512279404256,47.98132927611428,40
1932.13,82.0316,81.27672848717033,73.68870332091994,76.72584732890537,44.55088115826496,47.58802516625039,40
1999.51,82.1441,81.39065227508716,73.88596334157835,77.05655673590441,44.334095539182755,47.50468893350882,40
2069.82,83.4766,82.54260863996367,74.94643884471186,78.20048731653901,44.342121323424664,47.59616979525181,40
2143.07,83.836,82.8699671204573,75.38947882339129,78.62375552878858,44.246211591668725,47.48048829706602,40
2219.24,82.7075,81.99203218256226,75.02132498673919,78.32087725852993,43.67115492403232,46.97070719582307,40
2296.88,82.5538,81.80755915191673,74.9067097134709,78.21512807459732,43.59243107731942,46.90084943844583,40
2378.91,82.8585,82.09268280566319,75.27262916193268,78.6022932511513,43.49038955451189,46.8200536437305,40
2462.4,82.59329999999999,81.71861502525718,75.10484882021505,78.55818386187681,43.160431163380366,46.613766205042126,40
2548.83,82.662,81.60625358041595,74.73821752817919,78.33822733604141,43.26802624437454,46.86803605223676,40
2639.65,82.74909999999998,81.97819529832158,74.9135437385503,78.2687728035182,43.70942249480338,47.06465155977128,40
2731.93,82.0618,81.48196356855368,74.55798910632544,77.9209010887607,43.56106247979298,46.923974462228244,40
2828.61,82.7454,82.0383677043859,74.91656229544328,78.57402274574765,43.46434495863825,47.12180540894262,40
2928.22,82.8111,82.23124437209837,75.09836843586386,78.71759535763609,43.51364901446229,47.13287593623451,40
3030.76,82.5115,81.93631053950948,74.68339831615295,78.38160127579532,43.55470926371416,47.25291222335653,40
3137.7,82.8855,82.28480428893829,75.0073591190093,78.67613486323889,43.608669425699404,47.277445169928995,40
3249.02,82.0825,81.96766682704859,75.1009706055282,78.60776057162049,43.3599062554281,46.866696221520385,40
3363.28,82.086,81.78452380733047,75.0458322267955,78.76406562336595,43.02045818396452,46.738691580534976,40
3481.93,82.5297,82.12148752551415,75.16796782076808,78.89556306773808,43.225924457776074,46.95351970474607,40
3604.98,82.47329999999998,82.13332679447203,75.0090211476331,78.66399076576927,43.469336028702756,47.12430564683892,40
3732.42,82.5072,81.93990855462486,74.65663579976774,78.39404133109062,43.545867223534245,47.28327275485712,40
3864.26,82.8271,82.1271337808722,74.51013796269883,78.20239206610884,43.92474171476336,47.616995818173365,40
4000.49,82.2531,81.69388514947387,73.96028910369513,77.70595858260485,43.98792656686902,47.73359604577874,40
4141.11,82.1433,81.70507564307424,73.74725896195227,77.70503212666387,44.00004351641037,47.95781668112197,40
4287.6,82.4669,81.76476314714118,73.67098270351168,77.82586468267688,43.9388984644643,48.0937804436295,40
4438.48,82.5477,81.65031162780703,73.35258790260701,77.50595239688172,44.1443592309253,48.297723725200015,40
4595.21,82.993,81.97891401037903,73.61570829174997,77.7728437502535,44.20607026012553,48.36320571862906,40
4756.35,82.2612,81.63780166213176,73.38152128805494,77.42882590878287,44.208975753348895,48.25628037407682,40
4924.8,83.3303,82.45471301308281,73.94009777991113,78.01041957289412,44.44429344018869,48.51461523317168,40
5097.66,82.2212,81.55069931451872,73.25618983869649,77.26967090665015,44.281028407868575,48.29450947582224,40
5277.83,83.2339,82.22681175732933,73.65880240663805,77.68432303251797,44.54248872481136,48.568009350691284,40
5463.87,82.4723,81.59328874095623,73.09715815377861,77.11700082282219,44.476287918134034,48.49613058717762,40
5657.23,82.324,81.57442504365746,73.23756807639992,77.1531866671808,44.42123837647665,48.33685696725753,40
5856.45,82.7203,81.89868874774578,73.20697130738971,77.52809139236668,44.370597355379104,48.69171744035607,40
6062.99,83.0299,81.9791020020618,73.27296636227034,77.78526078662175,44.193841215440045,48.706135639791455,40
6276.86,83.0948,81.85421641932548,73.23370221334801,77.6126243435501,44.24159207577539,48.62051420597747,40
6498.05,82.5629,81.52217818410314,72.86046000820947,77.06970518966922,44.45247299443392,48.66171817589367,40
6726.56,82.9407,81.83488389301294,73.06360386319152,77.23683476536385,44.59804912764909,48.771280029821426,40
6963.87,82.6232,81.95615461604264,73.2515684891803,77.4887082732364,44.46744634280624,48.70458612686234,40
7209.96,82.133,81.65271092803259,73.10198789334633,77.32898677505622,44.32372415297637,48.55072303468626,40
7464.84,82.58659999999999,81.70438320930867,73.21119777950402,77.46371654501264,44.24066666429603,48.493185429804655,40
7727.05,82.69179999999999,82.06060166382365,73.45700500158706,77.70897418132361,44.351627482500035,48.60359666223658,40
7999.51,82.5379,82.04578089268254,73.38510696985604,77.66790527671002,44.37787561597253,48.660673922826504,40
8282.23,82.557,82.03211042422001,73.26618116542706,77.6280891741002,44.40402125011981,48.76592925879295,40
8573.73,82.6101,82.02380750986124,73.24988749274556,77.66924252871335,44.35456498114789,48.773920017115685,40
8876.95,82.4065,82.07474685753759,73.23007254746749,77.67373559573166,44.401011261805934,48.844674310070104,40
9188.96,82.80819999999999,82.25350420049033,73.20569206256438,77.60924955824845,44.644254642241876,49.047812137925945,40
9514.16,82.5111,82.23335565398283,73.17655746649176,77.55913240663804,44.674223247344784,49.05679818749107,40
9849.61,82.6803,82.23931530598139,72.9934178110297,77.54119536266028,44.69811994332112,49.24589749495169,40
10196.8,82.6078,82.0441337462198,72.72903211731374,77.38060149903117,44.66353224718863,49.31510162890606,40
10555.7,82.5259,81.90658974877523,72.42195575732642,77.0983030416706,44.80828670710463,49.48463399144882,40
10927.7,82.4321,81.79831178780663,72.23643713415684,76.87364513400985,44.92466665379678,49.56187465364978,40
11313.0,82.645,81.75050138508603,72.11775946998891,76.83733955066725,44.91316183441877,49.632741915097114,40
11712.9,82.3432,81.76887833358012,72.14450885644966,76.89706764062377,44.871810692956345,49.62436947713046,40
12126.0,82.4278,81.74549423778923,72.0499381980378,76.82680855837923,44.918685679410004,49.69555603975144,40
