Freq "Sound Power"
20.5078 62.87371733304151
21.9727 64.58962287665913
23.4375 65.08218702120818
24.9023 65.83408529692777
26.3672 66.49133870652237
27.832 66.98701780942648
29.2969 67.95324727549114
30.7617 68.95329658067037
32.2266 69.94975159423738
33.6914 70.97888277675209
35.1562 71.93310083703203
36.6211 72.78692815400188
38.0859 73.6267238810403
39.5508 74.40070908627196
41.0156 75.13764766927197
42.4805 75.87123616742984
43.9453 76.56153350476677
45.4102 77.21291089784572
46.875 77.81046837105058
48.3398 78.45882293868277
51.2695 79.55522267096991
52.7344 80.04189205292207
54.1992 80.472703837426
55.6641 80.83791607336451
58.5938 81.54232514726655
60.0586 81.81238767287664
62.9883 82.4160509126289
64.4531 82.6620194661037
67.3828 83.04112588240942
68.8477 83.16774456225316
71.7773 83.38175122110576
74.707 83.6360671122776
77.6367 83.7265848513502
79.1016 83.73691257781863
82.0312 83.8011274541312
84.9609 83.90731193373877
87.8906 83.8820773246305
90.8203 83.91054627519239
95.2148 83.92926876453883
98.1445 83.86382055113052
101.074 83.7896238278071
105.469 83.69405288680409
108.398 83.59235842659471
112.793 83.47727769575917
117.188 83.29220201070247
120.117 83.27725546741367
124.512 83.2618351477196
128.906 83.08182254556068
133.301 82.89923135453569
139.16 82.68232613244551
143.555 82.63638649717434
147.949 82.78495523079854
153.809 82.69735555638367
159.668 82.46463898158791
165.527 82.25578075729045
171.387 82.13733470555484
177.246 81.98002373639851
183.105 81.75934249465003
188.965 81.67286894047533
196.289 81.52596773788297
203.613 81.40113678686986
210.938 81.17497839341108
218.262 81.03119768629219
225.586 80.73645089031942
232.91 80.51659077373725
241.699 79.89414487475676
250.488 80.34467916454665
259.277 80.7090880956569
268.066 80.60563791163034
276.855 80.4356992631208
287.109 80.09715728767286
297.363 80.15742947958871
307.617 79.84478296226477
319.336 79.2975123315063
329.59 79.44698597619706
341.309 79.58910626708614
353.027 79.28321223772006
366.211 78.93333000312741
379.395 79.10906240340417
392.578 79.4927454494391
405.762 79.26459978674356
420.41 79.05666291252513
435.059 78.60428494042456
451.172 78.27328248302243
465.82 78.31975615386013
483.398 78.77729113119995
499.512 78.73829358597341
517.09 78.30305640170344
536.133 78.04923616351081
555.176 78.26910751722733
574.219 77.76723102642849
594.727 78.33713178582774
615.234 78.32108378956757
637.207 78.30675790432181
659.18 78.25750776241587
682.617 78.13092227258876
707.52 78.02000681738775
732.422 78.36313678462871
757.324 78.5962498939434
785.156 78.3296935744952
811.523 77.7303874215409
840.82 77.97208171751966
870.117 78.16201910750243
900.879 78.15035802874785
933.105 77.83168098729823
965.332 77.79090503292939
1000.49 77.63436442710838
1035.64 77.32710173314507
1072.27 77.38407555762278
1108.89 77.21130891634722
1148.44 77.04008806570319
1189.45 76.85220341690842
1230.47 77.01765243609202
1274.41 76.91218290663052
1319.82 76.67875461770177
1366.7 76.33801422720018
1413.57 75.9445193789074
1463.38 75.98306399634407
1516.11 75.79221375370092
1568.85 75.83578635807987
1624.51 75.16477225159694
1681.64 74.66949864226477
1741.7 74.54863682953868
1803.22 74.73443396339788
1866.21 74.52299595560545
1932.13 74.22031678879715
1999.51 74.52891620832331
2069.82 74.93799901132734
2143.07 74.59171744562863
2219.24 74.61363693339293
2296.88 75.5477403544345
2378.91 75.93502033460548
2462.4 75.75912892174249
2548.83 76.2835991427971
2639.65 76.82897680089236
2731.93 76.87198418303424
2828.61 77.13200590596146
2928.22 77.14154626388114
3030.76 77.29443454085414
3137.7 77.27665777253213
3249.02 77.56202057789442
3363.28 77.49589132284414
3481.93 77.41706100235244
3604.98 77.02889402792373
3732.42 76.94667700489272
3864.26 76.48878103386186
4000.49 76.32954791293123
4141.11 76.1741370397469
4287.6 75.88220694011376
4438.48 75.5946696207326
4595.21 75.37140869327885
4756.35 75.00368818882072
4924.8 75.04011462502773
5097.66 75.16361820925438
5277.83 75.48079591535773
5463.87 75.33037781201212
5657.23 75.26060850260902
5856.45 75.0863243014833
6062.99 75.0753324931425
6276.86 75.07892351317287
6498.05 75.07537551330542
6726.56 75.17493898053179
6963.87 74.95684736970546
7209.96 74.64539078212665
7464.84 74.34352159924616
7727.05 73.99179662480476
7999.51 73.53293335586487
8282.23 73.16490344271435
8573.73 72.9721018379388
8876.95 72.82648034616612
9188.96 72.7269591138294
9514.16 72.65928590093415
9849.61 72.59136696416492
10196.8 72.46065111843195
10555.7 72.2973329822104
10927.7 72.22949083291671
11313.0 72.22727820164481
11712.9 72.067550163863
12126.0 71.77552594281043
12553.7 71.58001633820136
12996.1 71.49892871185754
13454.6 71.58387907225742
13929.2 71.6939913308667
14419.9 71.56099641603224
14928.2 71.43725762165808
15455.6 71.42786918822323
16000.5 71.35995478748177
16564.5 70.97397632606517
17148.9 70.06627941919814
17752.4 68.84492093051797
18379.4 67.18897014172205
19026.9 65.22128427370572
19697.8 63.78457874087877
19999.5 63.38553356492376
