Freq "Ceiling Bounce"
20.5078 74.62646291127868
21.9727 75.98999601638903
23.4375 77.01142981357988
24.9023 77.84152998858103
26.3672 78.6697299287122
27.832 79.34889804583958
29.2969 79.97546568298928
30.7617 80.54680826499211
32.2266 80.86426475573566
33.6914 81.4013991765028
35.1562 81.76083128806974
36.6211 82.15046279076545
38.0859 82.28236279076543
39.5508 82.67476503205744
41.0156 82.61832970458795
42.4805 82.97646213067824
43.9453 83.11099546452319
45.4102 83.24429553129826
46.875 83.32702952650818
48.3398 83.35086335338855
51.2695 83.73669642240978
52.7344 83.78509636868218
54.1992 83.74566412170786
55.6641 83.81096270326555
58.5938 84.09129631648966
60.0586 84.20192880732266
62.9883 84.0919954645232
64.4531 84.05596215984377
67.3828 84.12969546452318
68.8477 84.10916212530553
71.7773 84.06512878890213
74.707 84.04312881576543
77.6367 84.02296222278127
79.1016 84.0087289278253
82.0312 83.94799584368677
84.9609 83.9443962658322
87.8906 83.9325296247533
90.8203 83.87026222278129
95.2148 83.86146217672976
98.1445 83.81059636868217
101.074 83.79762932694156
105.469 83.76582896082716
108.398 83.7090289178459
112.793 83.50603169847923
117.188 83.06638129696678
120.117 82.54766339871676
124.512 82.7049220944736
128.906 82.70305090321955
133.301 82.97044431620597
139.16 83.19154983526916
143.555 83.17884031697741
147.949 83.12914041689422
153.809 82.94488919043404
159.668 82.80100897747671
165.527 82.77534081246975
171.387 82.59148976535397
177.246 82.66262688454454
183.105 83.19633541580399
188.965 83.0252187311835
196.289 82.80557959232488
203.613 83.11704292667179
210.938 82.78782937603692
218.262 83.07830461804387
225.586 82.9485288280448
232.91 82.83827272863091
241.699 82.84824725554765
250.488 82.86097245210135
259.277 83.34409566867868
268.066 83.40817355864814
276.855 83.67706678165305
287.109 83.45459670439621
297.363 83.19245890908033
307.617 83.6461847213931
319.336 83.3628713817657
329.59 83.29249664725202
341.309 83.37991457604387
353.027 83.44818777265195
366.211 83.97462368037226
379.395 84.12873496419405
392.578 83.90755308186482
405.762 83.96618554673792
420.41 83.53551895440752
435.059 84.14722703305821
451.172 84.13852281521388
465.82 85.13581425557533
483.398 84.59624395773348
499.512 84.56731200205914
517.09 84.62326888288476
536.133 84.41256426714922
555.176 83.9962509180674
574.219 84.19738700274151
594.727 83.61728093425992
615.234 83.09034997575748
637.207 83.75647908405476
659.18 83.75332185705909
682.617 83.48875592262482
707.52 83.97156743124822
732.422 84.29963667094646
757.324 84.02024667057509
785.156 84.7769102044532
811.523 84.50013636972807
840.82 85.34236396696407
870.117 85.1553450326177
900.879 85.71230860473617
933.105 85.58086002186003
965.332 85.53453213084322
1000.49 85.64312360804709
1035.64 86.15531962644997
1072.27 85.63202746125584
1108.89 85.46117603561099
1148.44 85.20571687936867
1189.45 85.07647257348133
1230.47 85.05614446050527
1274.41 85.13932753537168
1319.82 85.31215847890438
1366.7 84.98381388308565
1413.57 84.61392959252665
1463.38 84.4330372129781
1516.11 83.69413318344884
1568.85 83.37426442730434
1624.51 83.71673985485684
1681.64 83.72782485140753
1741.7 83.01546849761374
1803.22 82.42702328978172
1866.21 82.33222842265806
1932.13 82.31973286442332
1999.51 82.8170953059758
2069.82 82.83935989930961
2143.07 82.36335186737955
2219.24 82.61122461892802
2296.88 83.05597606591286
2378.91 82.69964966208883
2462.4 82.54636449687183
2548.83 82.44865333814965
2639.65 82.82284474524135
2731.93 82.48990663233833
2828.61 83.19186158585217
2928.22 83.17745991521748
3030.76 83.37683737551208
3137.7 82.92969846815474
3249.02 83.03992654311686
3363.28 82.23256789341957
3481.93 81.78580754703134
3604.98 81.70078516850877
3732.42 81.09988523775425
3864.26 81.05490056548753
4000.49 81.24350833364753
4141.11 81.50492471945878
4287.6 81.7383900128458
4438.48 81.82820397886132
4595.21 82.0378002791769
4756.35 82.15841050954099
4924.8 82.38765028130709
5097.66 82.80584020736941
5277.83 83.24742040353973
5463.87 83.42296208804936
5657.23 83.11951720644176
5856.45 82.67256861543034
6062.99 82.16059240585057
6276.86 81.64486155255324
6498.05 81.36296922044713
6726.56 80.98742091997663
6963.87 80.78212058200086
7209.96 80.9790595833163
7464.84 80.88924770651298
7727.05 80.73524104795167
7999.51 80.74978295456268
8282.23 80.83121426009605
8573.73 80.93149439940795
8876.95 80.88841799726941
9188.96 81.01219919278847
9514.16 80.99969089391584
9849.61 80.68842155828087
10196.8 80.41533494746652
10555.7 80.23450818116784
10927.7 79.82184171546116
11313.0 79.64854098443413
11712.9 79.21745935792153
12126.0 78.57727952354738
12553.7 78.59949370251563
12996.1 78.84160370032241
13454.6 78.95595440124167
13929.2 78.61773853206081
14419.9 77.56228963081912
14928.2 77.1704813947972
15455.6 76.54655579154178
16000.5 75.81098973691905
16564.5 74.66432301930789
17148.9 74.57004794406916
17752.4 74.99326110703457
18379.4 75.09558121785723
19026.9 74.955213006047
19697.8 73.10177168968694
19999.5 72.39960945250992
