Freq,On Axis,Listening Window,Sound Power,Early Reflections,Early Reflections DI,Sound Power DI,DI offset
22.4,73.0,72.22650933459977,73.112662894696,72.98235602048693,39.244153314112836,39.11384643990377,40
23.0,73.2,72.42492646666275,73.33459222928133,73.22934873546153,39.195577731201226,39.09033423738143,40
23.6,73.5,72.62579374249054,73.55783468738721,73.4679760487899,39.15781769370065,39.06795905510333,40
24.0,73.70000000000002,72.79964582310932,73.75562061640666,73.67669049069838,39.12295533241094,39.044025206702656,40
25.0,74.0,73.01028095914538,73.96124404690815,73.90617071565698,39.10411024348839,39.04903691223723,40
25.8,74.2,73.1348461427927,74.13387528230695,74.09304906094947,39.04179708184323,39.00097086048575,40
26.5,74.4,73.30761237410968,74.30316506215121,74.2773595638147,39.03025281029498,39.00444731195847,40
27.2,74.6,73.44289835058143,74.46203968077523,74.46370081046052,38.97919754012091,38.980858669806196,40
28.0,74.7,73.55856104463705,74.61386353450578,74.63043937202427,38.928121672612775,38.94469751013126,40
29.0,74.9,73.65886070895982,74.76544620689566,74.79881445521956,38.860046253740265,38.89341450206416,40
30.0,75.1,73.79081554616256,74.9085184882498,74.97059650054688,38.82021904561569,38.882297057912766,40
30.7,75.4,74.02671411493921,75.110277394662,75.20483498724076,38.82187912769845,38.916436720277204,40
31.5,75.6,74.25607383283841,75.32359045888903,75.42957775396232,38.82649607887609,38.93248337394938,40
32.5,75.9,74.44843856165306,75.51088290231426,75.64898066238568,38.79945789926738,38.9375556593388,40
33.5,76.1,74.68196548983626,75.69628752612303,75.85717585776064,38.82478963207562,38.98567796371323,40
34.5,76.29999999999998,74.84550486213776,75.87479144983432,76.06358508691159,38.78191977522617,38.97071341230344,40
35.5,76.5,75.05194078255496,76.05202266623024,76.2676913072801,38.78424947527486,38.99991811632472,40
36.5,76.7,75.2063037052032,76.19854836641011,76.43754743117994,38.76875627402326,39.00775533879309,40
37.5,76.9,75.3943576315184,76.35344546489377,76.6286088579698,38.76574877354861,39.040912166624636,40
38.7,77.1,75.58541249403162,76.51846509938878,76.81607236013134,38.76934013390027,39.06694739464284,40
40.0,77.4,75.8256686233225,76.69134917320662,77.02614298816701,38.79952563515549,39.13431945011588,40
41.2,77.6,76.1240459892447,76.91850176745041,77.2796110550391,38.84443493420561,39.2055442217943,40
42.5,77.9,76.44117895305102,77.14974786265834,77.53911259718743,38.902066355863596,39.29143109039268,40
43.7,78.2,76.71904592481906,77.3571963536075,77.79045050299965,38.92859542181941,39.36184957121155,40
45.0,78.5,77.02488498236904,77.57250052008379,78.03323570152179,38.991649280847255,39.45238446228525,40
46.2,78.70000000000002,77.29010318295568,77.76806358278395,78.25749250177586,39.03261068117982,39.52203960017172,40
47.5,79.0,77.55852453590181,77.96792509341584,78.4907089472755,39.06781558862632,39.59059944248597,40
48.7,79.2,77.79209946915779,78.14724646789897,78.7053750317108,39.08672443744699,39.644853001258824,40
50.0,79.5,78.16196094582861,78.39931049160637,78.97531543964942,39.18664550617919,39.76265045422224,40
51.5,79.9,78.54769740170916,78.70315961917463,79.30596460865456,39.241732793054595,39.84453778253453,40
53.0,80.19999999999999,78.93371473802543,78.96754110684427,79.60913826801811,39.324576470007315,39.966173631181164,40
54.5,80.6,79.31997170528108,79.23595838127909,79.89613403336692,39.42383767191416,40.08401332400199,40
56.0,80.9,79.62200078808658,79.49082561811431,80.17793118069348,39.444069607393104,40.131175169972266,40
58.0,81.20000000000002,79.97145989262727,79.73196608228002,80.43933276768098,39.532127124946285,40.23949381034724,40
60.0,81.5,80.3099367777839,79.9893074413633,80.72283163793001,39.58710513985389,40.32062933642061,40
61.5,81.9,80.74715112790358,80.29067696123194,81.06776759765303,39.67938353025055,40.45647416667164,40
63.0,82.30000000000001,81.1636046557811,80.60012363361633,81.39990062850332,39.76370402727778,40.563481022164765,40
65.0,82.6,81.55370071436172,80.87570731289567,81.69595869717838,39.85774201718334,40.677993401466054,40
67.0,82.9,81.9397017220576,81.1507652692828,82.00020624980625,39.93949547225135,40.788936452774806,40
69.0,83.3,82.30507630130391,81.4134503144679,82.29184401264723,40.01323228865668,40.89162598683602,40
71.0,83.6,82.62247110050964,81.60537626755934,82.5171785846709,40.10529251583874,41.017094832950306,40
73.0,83.79999999999998,82.90869238516248,81.8040674069811,82.74314173108804,40.16555065407444,41.10462497818138,40
75.0,84.1,83.23928467577078,82.00760361027626,82.98433133027393,40.254953345496844,41.23168106549451,40
77.5,84.4,83.52647674840468,82.18626942135785,83.19129616958085,40.335180578823824,41.340207327046826,40
80.0,84.6,83.7789811324548,82.3290160849036,83.3799807647321,40.39900036772271,41.4499650475512,40
82.5,84.7,83.96569087742907,82.40313704534998,83.47614498390067,40.4895458935284,41.56255383207909,40
85.0,84.9,84.18406932172314,82.47792577690923,83.59575533160995,40.58831399011319,41.70614354481391,40
87.5,85.0,84.33665370589506,82.53257153702978,83.67672096941975,40.65993273647531,41.80408216886528,40
90.0,85.19999999999999,84.54943169924323,82.62457646778694,83.81255349967554,40.736878199567684,41.92485523145629,40
92.5,85.4,84.82383800563187,82.81033081764966,84.02912480804918,40.794713197582695,42.01350718798221,40
95.0,85.7,85.1118434856569,82.98825260922027,84.25132141180919,40.86052207384772,42.12359087643664,40
97.5,86.0,85.39038073266602,83.17238928007534,84.45997227267273,40.93040845999329,42.21799145259068,40
100.0,86.20000000000002,85.7089481587942,83.3764398133298,84.70461999175788,41.00432816703632,42.332508345464404,40
103.0,86.6,86.042825321185,83.62885145981119,84.98725317543065,41.055572145754354,42.41397386137382,40
106.0,86.9,86.4089481587942,83.88494414352367,85.27095355409514,41.13799460469906,42.524004015270535,40
109.0,87.2,86.7089481587942,84.11634634742633,85.52993904583566,41.17900911295854,42.59260181136787,40
112.0,87.5,87.07188674128685,84.37300571776538,85.832006592646,41.23988014864085,42.698881023521466,40
115.0,87.8,87.38399197025507,84.605189622541,86.09600087173266,41.28799109852241,42.77880234771406,40
118.0,88.1,87.68399197025505,84.83182258151507,86.36373938117133,41.32025258908372,42.85216938873998,40
122.0,88.4,87.98399197025506,85.03835747635073,86.59202932417881,41.39196264607625,42.945634493904336,40
125.0,88.6,88.24729063206655,85.2522977854173,86.83838997686337,41.40890065520318,42.994992846649254,40
128.0,88.9,88.49417313271444,85.41924093662567,87.03480932074235,41.45936381197208,43.07493219608877,40
132.0,89.0,88.68209628823577,85.55575586307614,87.18969011170074,41.49240617653503,43.126340425159626,40
136.0,89.2,88.88209628823577,85.68504808362076,87.35046548646741,41.53163080176836,43.197048204615015,40
140.0,89.3,88.93508252628534,85.70586348131454,87.39457095215153,41.54051157413382,43.229219044970804,40
145.0,89.3,88.98209628823578,85.71384044829712,87.42290500086361,41.55919128737217,43.26825583993866,40
150.0,89.5,89.15784138019232,85.8196910049883,87.54721470459928,41.61062667559304,43.33815037520402,40
155.0,89.7,89.3699857668434,86.01114533458002,87.75318070768935,41.616805059154046,43.35884043226338,40
160.0,89.9,89.53847801882088,86.14489899276094,87.90904632698117,41.62943169183971,43.39357902605994,40
165.0,89.9,89.59308741202945,86.1571774002442,87.93585420467572,41.65723320735373,43.43591001178525,40
170.0,89.9,89.61453682579611,86.16291237424437,87.94345867376666,41.67107815202945,43.45162445155174,40
175.0,89.9,89.60279053944191,86.13389982560696,87.92409146359799,41.67869907584392,43.46889071383495,40
180.0,89.9,89.54985729134677,86.08934640977573,87.87290774923365,41.67694954211312,43.46051088157104,40
185.0,89.80000000000001,89.43820627595417,85.96367835358123,87.75851138003274,41.67969489592143,43.47452792237294,40
190.0,89.6,89.3262514278532,85.84406147217354,87.63596055836466,41.690290869488535,43.48218995567966,40
195.0,89.5,89.13820627595416,85.68026560727019,87.45127066891641,41.68693560703775,43.457940668683975,40
200.0,89.3,88.99128085577082,85.52013230494023,87.28216513165773,41.70911572411309,43.47114855083059,40
206.0,89.1,88.80358759189005,85.33057318635497,87.10071020640889,41.70287738548116,43.47301440553508,40
212.0,88.9,88.59153693506416,85.12401327591876,86.87632012076998,41.71521681429418,43.4675236591454,40
218.0,88.70000000000002,88.3156049034637,84.87489980863658,86.60093719268014,41.71466771078356,43.44070509482711,40
224.0,88.4,88.09153693506416,84.65252841709214,86.37161013947279,41.71992679559136,43.43900851797201,40
230.0,88.2,87.88051737509727,84.42674343450847,86.15409464695823,41.72642272813904,43.4537739405888,40
236.0,88.1,87.71216714495512,84.23247033372057,85.96197458787228,41.75019255708284,43.47969681123455,40
240.0,88.0,87.61216714495512,84.07752725851294,85.8308088533069,41.78135829164822,43.53463988644218,40
250.0,87.9,87.56972157024501,83.97657633547405,85.76550943430304,41.80421213594197,43.59314523477096,40
258.0,88.0,87.62335548732227,83.93529259374537,85.77139544032107,41.8519600470012,43.6880628935769,40
265.0,88.1,87.75385262189533,83.97667007818114,85.87412289558168,41.879729726313656,43.77718254371419,40
272.0,88.2,87.88939322841176,83.99256926774297,85.96554100133946,41.9238522270723,43.8968239606688,40
280.0,88.5,88.1214324538017,84.10062662580748,86.15560072470451,41.96583172909719,44.020805827994224,40
290.0,88.70000000000002,88.38587910353851,84.26537794505136,86.39689990333483,41.98897920020369,44.12050115848716,40
300.0,89.1,88.73210063346541,84.47180587882956,86.68777357344113,42.04432706002427,44.26029475463585,40
307.0,89.4,89.06573183644917,84.72912530063851,86.99924277462185,42.066489061827326,44.33660653581066,40
315.0,89.7,89.41856476708531,84.99057710767964,87.3133148164863,42.10524995059902,44.42798765940567,40
325.0,90.1,89.73054076386275,85.24635766653444,87.61698479550259,42.11355596836016,44.48418309732831,40
335.0,90.3,90.01856476708531,85.45863500062086,87.8643196973592,42.1542450697261,44.55992976646445,40
345.0,90.6,90.2424838267258,85.62781868446979,88.0623193453409,42.18016448138491,44.614665142256015,40
355.0,90.9,90.55467117415992,85.89664985146499,88.33900160188519,42.215669572274734,44.658021322694935,40
365.0,90.8,90.42417980732682,85.75082843404566,88.20198991794832,42.2221898893785,44.673351373281164,40
375.0,90.8,90.41373570292569,85.67160785612461,88.12135624911912,42.292379453806575,44.74212784680108,40
387.0,90.6,90.27269175359991,85.51999210596007,87.93696178133301,42.335729972266904,44.752699647639844,40
400.0,90.4,90.03285878291605,85.27988364763684,87.66257232977492,42.370286453141134,44.752975135279215,40
412.0,90.3,89.89506684592402,85.08978799942886,87.41066965290105,42.48439719302297,44.805278846495156,40
425.0,90.1,89.67042813144036,84.89806744486735,87.1273183780891,42.54310975335126,44.77236068657301,40
437.0,89.9,89.4565183802999,84.71994856646481,86.85739777041418,42.599120609885716,44.73656981383509,40
450.0,90.0,89.48853871792552,84.80565559400682,86.86414929938661,42.62438941853891,44.6828831239187,40
462.0,89.9,89.36389660734802,84.73730071433297,86.7531120745295,42.61078453281853,44.62659589301505,40
475.0,89.9,89.37915870035324,84.76465801099172,86.78808442495502,42.59107427539823,44.61450068936152,40
487.0,90.0,89.5278586591448,84.9139152737634,86.98770026828907,42.54015839085572,44.613943385381404,40
500.0,90.1,89.58019876203278,84.99309043863674,87.14290491659403,42.437293845438745,44.58710832339604,40
515.0,90.1,89.59960027279827,84.99843087537185,87.25148951285185,42.34811075994642,44.60116939742642,40
530.0,90.0,89.51982367746338,84.90630638747129,87.27517905126055,42.24464462620283,44.61351728999209,40
545.0,89.80000000000001,89.32585344726377,84.75161297513839,87.25086793570065,42.07498551156311,44.57424047212538,40
560.0,89.5,88.99273909422774,84.36474779837374,87.00149528860875,41.99124380561899,44.627991295854,40
580.0,89.1,88.62788904904617,83.97351314463816,86.75722946737832,41.87065958166785,44.65437590440801,40
600.0,88.79999999999998,88.35957663775082,83.58608523162565,86.48941003963371,41.87016659811711,44.773491406125174,40
615.0,88.6,88.17557327649654,83.2637839244537,86.27284610458153,41.902727171915004,44.91178935204283,40
630.0,88.5,88.0767549391503,82.97944845951996,86.05185863993532,42.02489629921499,45.09730647963035,40
650.0,88.6,88.0906008876071,82.81438276078072,85.94698301644299,42.14361787116411,45.27621812682638,40
670.0,88.70000000000002,88.1926633574467,82.69759076243373,85.9021202690799,42.2905430883668,45.49507259501297,40
690.0,88.79999999999998,88.22880045484075,82.59184577361913,85.87696179747765,42.3518386573631,45.636954681221624,40
710.0,88.9,88.26357418283557,82.49457877432475,85.90055299579477,42.3630211870408,45.76899540851082,40
730.0,89.0,88.30379870594598,82.42905010411165,85.97107128739418,42.3327274185518,45.87474860183433,40
750.0,89.2,88.42174030443081,82.41928254759765,86.06589909882553,42.35584120560529,46.00245775683317,40
775.0,89.5,88.59520475623178,82.44894934326015,86.17760984554397,42.41759491068781,46.14625541297163,40
800.0,89.7,88.72452734587023,82.44530671806118,86.17302412143844,42.551503224431784,46.27922062780905,40
825.0,89.80000000000001,88.8495361718362,82.43641977670266,86.12826478009175,42.72127139174445,46.41311639513354,40
850.0,89.7,88.77593242973637,82.2539705673893,85.9087388934207,42.86719353631567,46.52196186234707,40
875.0,89.5,88.59820129989578,82.02818171100276,85.66599770488536,42.93220359501042,46.57001958889302,40
900.0,89.2,88.37169161012656,81.79797891837553,85.46612821949212,42.90556339063444,46.57371269175103,40
925.0,89.2,88.31248281854084,81.69346908910141,85.42512365075629,42.88735916778455,46.61901372943943,40
950.0,89.4,88.4943044923995,81.85454066298215,85.5768264169108,42.91747807548869,46.63976382941735,40
975.0,89.7,88.78166320371068,82.10040278013608,85.73335036458258,43.0483128391281,46.6812604235746,40
1000.0,89.7,88.83544711084687,82.11457400168723,85.64609808522555,43.189349025621325,46.72087310915964,40
1030.0,89.4,88.65518996349869,81.8481670498806,85.37538301244686,43.279806951051825,46.807022913618084,40
1060.0,89.0,88.31145615504155,81.40287855003614,85.03690444122967,43.27455171381189,46.90857760500542,40
1090.0,88.79999999999998,88.16374190307701,81.09715652543925,84.91670046752454,43.247041435552475,47.066585377637765,40
1120.0,89.0,88.36545451801902,81.07580362770342,85.02433956217529,43.341114955843736,47.2896508903156,40
1150.0,89.3,88.65470343514323,81.18747975108144,85.16866161962321,43.486041815520025,47.46722368406179,40
1180.0,89.2,88.40931256503131,81.00509276617714,84.96114694242421,43.44816562260711,47.40421979885417,40
1220.0,88.4,87.59844496241985,80.58395498585509,84.5251654535154,43.07327950890445,47.01448997656476,40
1250.0,87.2,86.4617812380883,80.0848421934707,84.0511523408953,42.41062889719301,46.3769390446176,40
1280.0,86.8,86.22214671173498,80.06619468157601,84.02673458638472,42.19541212535026,46.15595203015897,40
1320.0,87.2,86.82277191849245,80.25026030030614,84.14527428080211,42.67749763769034,46.57251161818631,40
1360.0,87.9,87.42438108533904,80.25626986370608,84.09658151086899,43.32779957447005,47.168111221632955,40
1400.0,88.4,87.6054786223523,79.98954258142345,83.81953188955139,43.78594673280091,47.615936040928844,40
1450.0,88.70000000000002,87.54408464084443,79.59702291761721,83.38184920696769,44.162235433876745,47.94706172322722,40
1500.0,88.79999999999998,87.40587295280426,79.17260310592452,82.9323577166663,44.473515236137956,48.233269846879736,40
1550.0,88.70000000000002,87.10419633743018,78.74703674163055,82.61102210041028,44.4931742370199,48.35715959579963,40
1600.0,88.6,86.95895438135487,78.5943626118212,82.76273630095018,44.19621808040469,48.364591769533675,40
1650.0,88.70000000000002,87.16071180386928,78.65484412659083,83.06624241075183,44.09446939311745,48.505867677278445,40
1700.0,88.79999999999998,87.36806788246243,78.66590409558826,83.1829537137947,44.185114168667724,48.702163786874166,40
1750.0,88.9,87.38979003014194,78.6433245903723,83.2557833795498,44.13400665059214,48.746465439769636,40
1800.0,89.4,87.75542997660682,78.95502988065589,83.651992004884,44.103437971722826,48.800400095950934,40
1850.0,90.3,88.33799627299908,79.27257040426112,84.07763798068218,44.260358292316894,49.06542586873796,40
1900.0,90.7,88.47012479572462,79.2151467830661,84.11272125109258,44.357403544632035,49.25497801265851,40
1950.0,90.8,88.43650106462073,79.01000914649597,84.01684792713624,44.41965313748449,49.42649191812475,40
2000.0,90.7,88.17572904188128,78.51021063414512,83.65488936383196,44.52083967804933,49.66551840773616,40
2060.0,90.4,87.59278355230134,77.94581830713726,83.1897359670249,44.40304758527644,49.64696524516408,40
2120.0,90.6,87.72011574875215,78.27837903706217,83.3750434163176,44.345072332434555,49.441736711689984,40
2180.0,90.9,88.1110382686717,78.7920356760889,83.64985584090829,44.46118242776342,49.319002592582805,40
2240.0,90.19999999999999,87.6248376361508,78.44160460845399,83.20118853554716,44.42364910060364,49.183233027696815,40
2300.0,89.1,86.58680762457315,77.43857643973884,82.27165685319626,44.31515077137689,49.148231184834316,40
2360.0,88.79999999999998,86.1106331849972,76.93195678578446,81.94048625701998,44.170146927977214,49.17867639921273,40
2400.0,88.6,86.10161365827938,76.95515972316534,81.92601527993217,44.1755983783472,49.14645393511404,40
2500.0,88.79999999999998,86.28672333834007,76.83628355119342,81.77077702927946,44.51594630906061,49.45043978714665,40
2580.0,89.5,86.73119917574971,77.09881500935606,82.07641596243701,44.6547832133127,49.63238416639365,40
2650.0,90.6,87.44484634829499,77.72567453234119,82.87218013462504,44.57266621366995,49.7191718159538,40
2720.0,91.4,88.02512015263225,78.5888411046041,83.5573484785601,44.467771674072154,49.436279048028155,40
2800.0,91.4,88.3318879529549,79.06337941114836,83.56522684109818,44.76666111185672,49.26850854180654,40
2900.0,90.3,87.73999916883321,78.59090865473186,82.78959795030586,44.95040121852735,49.149090514101346,40
3000.0,89.9,87.59318489755859,78.53464551849285,82.75157458027977,44.84161031727882,49.058539379065735,40
3070.0,90.5,88.40444063109325,79.26143710887004,83.66432581543556,44.74011481565769,49.14300352222321,40
3150.0,91.0,88.98934923783483,79.60736827133621,84.13327983425074,44.85606940358409,49.38198096649862,40
3250.0,91.0,88.83173403647785,79.3028200386923,83.897227334528,44.93450670194986,49.52891399778555,40
3350.0,89.3,87.47085629886826,77.98503800104416,82.50238094863658,44.96847535023167,49.485818297824096,40
3450.0,88.4,86.70346402697326,77.23975827512137,81.81815026348801,44.88531376348526,49.46370575185189,40
3550.0,88.2,86.37749227755222,76.84724010737051,81.57675066472243,44.800741612829796,49.53025217018171,40
3650.0,87.9,86.29234401360677,77.16642270971299,81.64912496858291,44.643219045023855,49.125921303893776,40
3750.0,87.4,86.21375125725712,77.23285221512846,81.4000206759677,44.81373058128942,48.980899042128655,40
3870.0,88.1,86.29864096645224,77.15636928973947,81.48101221547196,44.817628750980276,49.14227167671277,40
4000.0,88.5,86.99694753311802,78.24211772517673,82.30252127969126,44.694426253426755,48.75482980794129,40
4120.0,89.80000000000001,88.71945092634412,79.54300505983318,83.62185493014653,45.0975959961976,49.176445866510946,40
4250.0,89.80000000000001,88.5717146993787,78.93074527268621,83.28620334857364,45.285511350805066,49.64096942669249,40
4370.0,90.7,88.94095280487207,78.94378887197193,83.51078944380015,45.43016336107192,49.997163932900136,40
4500.0,91.4,89.35891532642256,79.39943105230131,84.00877784002078,45.35013748640178,49.95948427412125,40
4620.0,90.8,88.89124740208656,79.08819039619974,83.6968519924932,45.19439540959337,49.80305700588683,40
4750.0,89.4,87.47655703360992,77.57722155799027,82.28183330131925,45.19472373229067,49.89933547561965,40
