Freq "Sound Power"
22.4 73.112662894696
23.0 73.33459222928131
23.6 73.55783468738721
24.0 73.75562061640667
25.0 73.96124404690813
25.8 74.13387528230695
26.5 74.30316506215121
27.2 74.46203968077522
28.0 74.61386353450578
29.0 74.76544620689566
30.0 74.90851848824978
30.7 75.110277394662
31.5 75.32359045888903
32.5 75.51088290231426
33.5 75.69628752612304
34.5 75.87479144983432
35.5 76.05202266623024
36.5 76.19854836641011
37.5 76.35344546489377
38.7 76.51846509938878
40.0 76.69134917320662
41.2 76.91850176745042
42.5 77.14974786265836
43.7 77.3571963536075
45.0 77.57250052008378
46.2 77.76806358278395
47.5 77.96792509341584
48.7 78.14724646789898
50.0 78.39931049160636
51.5 78.70315961917463
53.0 78.96754110684427
54.5 79.23595838127909
56.0 79.49082561811431
58.0 79.73196608228004
60.0 79.9893074413633
61.5 80.29067696123194
63.0 80.60012363361635
65.0 80.87570731289567
67.0 81.1507652692828
69.0 81.4134503144679
71.0 81.60537626755934
73.0 81.8040674069811
75.0 82.00760361027628
77.5 82.18626942135785
80.0 82.3290160849036
82.5 82.40313704534998
85.0 82.47792577690923
87.5 82.53257153702978
90.0 82.62457646778695
92.5 82.81033081764964
95.0 82.98825260922025
97.5 83.17238928007534
100.0 83.37643981332978
103.0 83.62885145981119
106.0 83.88494414352367
109.0 84.11634634742633
112.0 84.37300571776537
115.0 84.605189622541
118.0 84.83182258151506
122.0 85.03835747635073
125.0 85.2522977854173
128.0 85.41924093662568
132.0 85.55575586307614
136.0 85.68504808362074
140.0 85.70586348131452
145.0 85.71384044829712
150.0 85.81969100498829
155.0 86.01114533458002
160.0 86.14489899276094
165.0 86.15717740024421
170.0 86.16291237424439
175.0 86.13389982560697
180.0 86.08934640977573
185.0 85.96367835358124
190.0 85.84406147217354
195.0 85.6802656072702
200.0 85.52013230494022
206.0 85.33057318635498
212.0 85.12401327591877
218.0 84.87489980863658
224.0 84.65252841709214
230.0 84.42674343450847
236.0 84.23247033372057
240.0 84.07752725851294
250.0 83.97657633547405
258.0 83.93529259374536
265.0 83.97667007818114
272.0 83.99256926774298
280.0 84.10062662580746
290.0 84.26537794505136
300.0 84.47180587882956
307.0 84.72912530063851
315.0 84.99057710767964
325.0 85.24635766653442
335.0 85.45863500062086
345.0 85.6278186844698
355.0 85.89664985146499
365.0 85.75082843404566
375.0 85.67160785612461
387.0 85.51999210596009
400.0 85.27988364763685
412.0 85.08978799942885
425.0 84.89806744486735
437.0 84.7199485664648
450.0 84.80565559400684
462.0 84.73730071433297
475.0 84.76465801099171
487.0 84.9139152737634
500.0 84.99309043863676
515.0 84.99843087537185
530.0 84.90630638747129
545.0 84.75161297513839
560.0 84.36474779837373
580.0 83.97351314463815
600.0 83.58608523162563
615.0 83.2637839244537
630.0 82.97944845951996
650.0 82.81438276078072
670.0 82.69759076243373
690.0 82.59184577361911
710.0 82.49457877432475
730.0 82.42905010411165
750.0 82.41928254759765
775.0 82.44894934326015
800.0 82.44530671806118
825.0 82.43641977670266
850.0 82.25397056738932
875.0 82.02818171100276
900.0 81.79797891837553
925.0 81.69346908910141
950.0 81.85454066298215
975.0 82.10040278013608
1000.0 82.11457400168722
1030.0 81.8481670498806
1060.0 81.40287855003614
1090.0 81.09715652543925
1120.0 81.07580362770344
1150.0 81.18747975108145
1180.0 81.00509276617714
1220.0 80.58395498585507
1250.0 80.08484219347072
1280.0 80.06619468157602
1320.0 80.25026030030615
1360.0 80.25626986370607
1400.0 79.98954258142344
1450.0 79.5970229176172
1500.0 79.17260310592452
1550.0 78.74703674163057
1600.0 78.5943626118212
1650.0 78.65484412659082
1700.0 78.66590409558826
1750.0 78.6433245903723
1800.0 78.95502988065589
1850.0 79.27257040426112
1900.0 79.2151467830661
1950.0 79.01000914649599
2000.0 78.51021063414511
2060.0 77.94581830713726
2120.0 78.27837903706215
2180.0 78.7920356760889
2240.0 78.44160460845397
2300.0 77.43857643973884
2360.0 76.93195678578448
2400.0 76.95515972316535
2500.0 76.83628355119342
2580.0 77.09881500935604
2650.0 77.72567453234119
2720.0 78.58884110460411
2800.0 79.06337941114836
2900.0 78.59090865473186
3000.0 78.53464551849285
3070.0 79.26143710887006
3150.0 79.6073682713362
3250.0 79.3028200386923
3350.0 77.98503800104416
3450.0 77.23975827512137
3550.0 76.84724010737051
3650.0 77.16642270971299
3750.0 77.23285221512847
3870.0 77.15636928973949
4000.0 78.24211772517673
4120.0 79.54300505983316
4250.0 78.9307452726862
4370.0 78.94378887197193
4500.0 79.39943105230131
4620.0 79.08819039619974
4750.0 77.57722155799026
4870.0 77.85999181340738
5000.0 78.48975051353591
5150.0 76.23237220060541
5300.0 75.80757238417728
5450.0 77.55821714999372
5600.0 77.4681794984459
5800.0 78.68701300702676
6000.0 79.0806398704181
6150.0 77.98641946197755
6300.0 78.84834578791302
6500.0 78.480977247162
6700.0 78.89499227822962
6900.0 78.83810108327096
7100.0 78.31817658701618
7300.0 78.56090735298324
7500.0 77.94993488811967
7750.0 79.49162451439601
8000.0 78.5308822560834
8250.0 78.65964844140467
8500.0 79.00945640577287
8750.0 79.13659684310322
9000.0 78.12225965962189
9250.0 78.72740259267454
9500.0 79.07493138716873
9750.0 79.49246383641731
10000.0 80.41654230889635
10300.0 79.89209305220477
10600.0 79.2668485990227
10900.0 79.34140327840868
11200.0 79.23621454323617
11500.0 78.75088400345147
11800.0 78.23819536474785
12200.0 77.69031334547515
12500.0 78.65951030677645
12800.0 78.84697592417753
13200.0 80.32745624013789
13600.0 80.7231978192524
14000.0 81.33123727272101
14500.0 80.82657623066993
15000.0 79.62141269429402
15500.0 82.30943206071785
16000.0 83.7468191958023
16500.0 82.58044620329247
17000.0 77.70954973124681
17500.0 70.48324092877603
18000.0 68.82857150388989
18500.0 63.74551437458966
19000.0 57.02095126217337
19500.0 56.35422832366443
