Freq "Sound Power"
22.4 -26.185943595150903
23.0 -24.88594359515092
23.6 -23.55046988055382
24.0 -22.278250242512527
25.0 -20.9913199668175
25.8 -19.779575770821808
26.5 -18.62655992568081
27.2 -17.526559925680814
28.0 -16.38594359515092
29.0 -15.226559925680831
30.0 -13.985943595150886
30.7 -12.632074742162516
31.5 -11.119149541249428
32.5 -9.417538889226435
33.5 -7.55046988055382
34.5 -5.617538889226424
35.5 -3.5859435951509084
36.5 -1.5399993848410105
37.5 0.4679252578374786
38.7 2.4495301194461803
40.0 4.267925257837518
41.2 5.9898561316332035
42.5 7.5734400743191514
43.7 9.067925257837473
45.0 10.521749757487484
46.2 11.967855885731424
47.5 13.396751787235516
48.7 14.867925257837484
50.0 16.46000061515899
51.5 18.108680033182495
53.0 19.86785588573143
54.5 21.70180330604724
56.0 23.596751787235505
58.0 25.536141114354976
60.0 27.514056404849086
61.5 29.514056404849086
63.0 31.514056404849086
65.0 33.521749757487484
67.0 35.50180330604725
69.0 37.46000061515899
71.0 39.37536623846184
73.0 41.260000615159
75.0 43.06792525783749
77.5 44.84953011944616
80.0 46.53827811709911
82.5 48.14953011944617
85.0 49.70868003318252
87.5 51.19696579744466
90.0 52.60134818131006
92.5 53.95221941285196
95.0 55.236682372138134
97.5 56.49007048190573
100.0 57.667925257837496
103.0 58.83018184424813
106.0 59.91485563303716
109.0 60.93084176926017
112.0 61.88750982779031
115.0 62.714534289648554
118.0 63.47795441773374
122.0 64.08954731450103
125.0 64.59613559153362
128.0 64.93882640353026
132.0 65.18186196018371
136.0 65.34038378198208
140.0 65.39172575972084
145.0 65.40629886484508
150.0 65.38106221121767
155.0 65.3362235817806
160.0 65.28427538864578
165.0 65.25453267255956
170.0 65.22975881781618
175.0 65.23336738044136
180.0 65.25058958510863
185.0 65.25835666736151
190.0 65.25114134882944
195.0 65.2526388190869
200.0 65.2605338351613
206.0 65.19491264856316
212.0 65.15084049645503
218.0 65.07011375664906
224.0 65.00799201353625
230.0 64.91716206787514
236.0 64.83023551394197
240.0 64.80420406029383
250.0 64.76587727465088
258.0 64.74130437991342
265.0 64.7784862826678
272.0 64.78684084365484
280.0 64.77792181904523
290.0 64.74706618192161
300.0 64.6346119715145
307.0 64.42641777935957
315.0 64.12171707354032
325.0 63.69100048436735
335.0 63.1586669570018
345.0 62.59532559185827
355.0 62.035403671086186
365.0 61.53488922950142
375.0 61.08985372796462
387.0 60.823704922750935
400.0 60.69615972276057
412.0 60.82706844022037
425.0 61.098555460319986
437.0 61.46354814821379
450.0 61.92168541230062
462.0 62.35673055064332
475.0 62.755866756433946
487.0 62.986519822478854
500.0 63.06288389197384
515.0 62.88474819204424
530.0 62.53382048065532
545.0 62.02689755810509
560.0 61.4706724695009
580.0 60.90632113180574
600.0 60.43314422928937
615.0 60.07675566808447
630.0 59.89280121129944
650.0 59.94527241647198
670.0 60.19297613422205
690.0 60.57040476685124
710.0 61.03259127373077
730.0 61.535413175378295
750.0 61.987982210356975
775.0 62.35060567789789
800.0 62.5568270832905
825.0 62.583878605651606
850.0 62.45105427524119
875.0 62.20325957350056
900.0 61.84745122801321
925.0 61.474905891381184
950.0 61.084837210630226
975.0 60.75044532941614
1000.0 60.49431158003402
1030.0 60.36615442118307
1060.0 60.341733564889964
1090.0 60.359131818161146
1120.0 60.48998255140661
1150.0 60.61633633826915
1180.0 60.76502592623129
1220.0 60.91006633418097
1250.0 60.992583669019396
1280.0 61.044267356312176
1320.0 61.041335541023685
1360.0 60.98752020110875
1400.0 60.93760040064569
1450.0 60.86332424176878
1500.0 60.74459112892727
1550.0 60.64693844013503
1600.0 60.58055573135111
1650.0 60.5133927811048
1700.0 60.4971531567619
1750.0 60.46526731679772
1800.0 60.46051172839144
1850.0 60.432278055823375
1900.0 60.42630328754829
1950.0 60.393572288236115
2000.0 60.33234769910085
2060.0 60.275304676853125
2120.0 60.21028141158111
2180.0 60.1186451198589
2240.0 60.04077745545831
2300.0 59.96144443446519
2360.0 59.85417766848933
2400.0 59.76629009698473
2500.0 59.684603278143555
2580.0 59.592595841391145
2650.0 59.47776753313002
2720.0 59.387040449288676
2800.0 59.296578549619824
2900.0 59.21729581814952
3000.0 59.15427883779448
3070.0 59.11493924682584
3150.0 59.11301543774417
3250.0 59.11257826065456
3350.0 59.12355882554054
3450.0 59.181760304562374
3550.0 59.19597072608093
3650.0 59.252317711839964
3750.0 59.264289258508
3870.0 59.26865026059872
4000.0 59.271343555864476
4120.0 59.19312746379977
4250.0 59.084895569741306
4370.0 58.99418176976029
4500.0 58.876728853304215
4620.0 58.82105479019097
4750.0 58.762147712926705
4870.0 58.74018627000255
5000.0 58.784716503680585
5150.0 58.89162976176166
5300.0 59.04359984451453
5450.0 59.25204091986495
5600.0 59.42715641500678
5800.0 59.67307145004435
6000.0 59.858124454690454
6150.0 60.0093852072211
6300.0 60.03427577997907
6500.0 59.98536359562638
6700.0 59.81067340835381
6900.0 59.523331636065436
7100.0 59.21674262496121
7300.0 58.823922467768256
7500.0 58.3599076982086
7750.0 57.84844110931145
8000.0 57.23161162532324
8250.0 56.64306612121905
8500.0 55.96509691452313
8750.0 55.31694656797899
9000.0 54.730532685174595
9250.0 54.26524026599854
9500.0 53.89026264260242
9750.0 53.75974927201406
10000.0 53.76986394335782
10300.0 54.03516427050464
10600.0 54.36780235841904
10900.0 54.85940785724695
11200.0 55.418043459336374
11500.0 55.961582468818406
11800.0 56.48919227746143
12200.0 56.920482348398124
12500.0 57.22738514035228
12800.0 57.352836509521396
13200.0 57.3127690195421
13600.0 57.12984196216196
14000.0 56.8032380256961
14500.0 56.35283655768181
15000.0 55.78447387894573
15500.0 55.12627890423887
16000.0 54.388297860437305
16500.0 53.571453670626326
17000.0 52.706045688965744
17500.0 51.771453670626315
18000.0 50.80995221249859
18500.0 49.82716421621002
19000.0 48.82133673443012
19500.0 47.80875996595516
