Freq "On Axis"
22.4 22.47721518987342
23.0 24.177215189873408
23.6 25.97721518987342
24.0 28.577215189873385
25.0 30.577215189873385
25.8 32.17721518987341
26.5 32.7772151898734
27.2 34.17721518987341
28.0 35.7772151898734
29.0 37.077215189873385
30.0 38.8772151898734
30.7 42.577215189873385
31.5 46.077215189873385
32.5 50.67721518987341
33.5 52.97721518987342
34.5 54.577215189873385
35.5 55.8772151898734
36.5 56.67721518987341
37.5 57.577215189873385
38.7 59.0772151898734
40.0 61.67721518987341
41.2 63.67721518987341
42.5 65.3772151898734
43.7 66.5772151898734
45.0 67.9772151898734
46.2 69.7772151898734
47.5 71.3772151898734
48.7 72.67721518987341
50.0 73.7772151898734
51.5 74.7772151898734
53.0 75.7772151898734
54.5 76.7772151898734
56.0 77.67721518987341
58.0 78.3772151898734
60.0 79.0772151898734
61.5 79.7772151898734
63.0 80.2772151898734
65.0 80.7772151898734
67.0 81.17721518987341
69.0 81.3772151898734
71.0 81.5772151898734
73.0 81.7772151898734
75.0 81.8772151898734
77.5 81.8772151898734
80.0 81.9772151898734
82.5 81.8772151898734
85.0 81.8772151898734
87.5 81.8772151898734
90.0 81.7772151898734
92.5 81.7772151898734
95.0 81.67721518987341
97.5 81.67721518987341
100.0 81.5772151898734
103.0 81.5772151898734
106.0 81.4772151898734
109.0 81.3772151898734
112.0 81.3772151898734
115.0 81.3772151898734
118.0 81.3772151898734
122.0 81.3772151898734
125.0 81.3772151898734
128.0 81.3772151898734
132.0 81.3772151898734
136.0 81.17721518987341
140.0 81.07721518987339
145.0 80.8772151898734
150.0 80.7772151898734
155.0 80.7772151898734
160.0 80.8772151898734
165.0 81.07721518987339
170.0 81.2772151898734
175.0 81.4772151898734
180.0 81.5772151898734
185.0 81.67721518987341
190.0 81.67721518987341
195.0 81.5772151898734
200.0 81.4772151898734
206.0 81.2772151898734
212.0 80.97721518987342
218.0 80.67721518987341
224.0 80.5772151898734
230.0 80.5772151898734
236.0 80.5772151898734
240.0 80.4772151898734
250.0 80.3772151898734
258.0 80.17721518987341
265.0 79.97721518987339
272.0 79.8772151898734
280.0 79.7772151898734
290.0 79.7772151898734
300.0 79.8772151898734
307.0 79.97721518987339
315.0 80.17721518987341
325.0 80.4772151898734
335.0 80.67721518987341
345.0 80.7772151898734
355.0 80.7772151898734
365.0 80.67721518987341
375.0 80.5772151898734
387.0 80.3772151898734
400.0 80.17721518987341
412.0 80.17721518987341
425.0 80.17721518987341
437.0 80.3772151898734
450.0 80.67721518987341
462.0 80.97721518987342
475.0 81.2772151898734
487.0 81.5772151898734
500.0 81.8772151898734
515.0 82.17721518987341
530.0 82.2772151898734
545.0 82.3772151898734
560.0 82.3772151898734
580.0 82.5772151898734
600.0 82.67721518987341
615.0 82.8772151898734
630.0 82.9772151898734
650.0 82.8772151898734
670.0 82.5772151898734
690.0 82.2772151898734
710.0 81.8772151898734
730.0 81.3772151898734
750.0 80.8772151898734
775.0 80.2772151898734
800.0 79.7772151898734
825.0 79.8772151898734
850.0 80.5772151898734
875.0 81.5772151898734
900.0 82.17721518987341
925.0 82.17721518987341
950.0 81.67721518987341
975.0 80.7772151898734
1000.0 79.97721518987339
1030.0 79.4772151898734
1060.0 79.4772151898734
1090.0 80.0772151898734
1120.0 81.2772151898734
1150.0 82.2772151898734
1180.0 82.2772151898734
1220.0 81.5772151898734
1250.0 81.3772151898734
1280.0 81.8772151898734
1320.0 82.17721518987341
1360.0 81.8772151898734
1400.0 81.4772151898734
1450.0 80.8772151898734
1500.0 79.97721518987339
1550.0 79.67721518987341
1600.0 80.17721518987341
1650.0 80.8772151898734
1700.0 81.17721518987341
1750.0 81.07721518987339
1800.0 81.2772151898734
1850.0 81.7772151898734
1900.0 81.67721518987341
1950.0 81.2772151898734
2000.0 80.8772151898734
2060.0 80.7772151898734
2120.0 81.07721518987339
2180.0 81.2772151898734
2240.0 81.2772151898734
2300.0 81.67721518987341
2360.0 82.3772151898734
2400.0 82.7772151898734
2500.0 82.7772151898734
2580.0 82.9772151898734
2650.0 82.7772151898734
2720.0 82.5772151898734
2800.0 82.5772151898734
2900.0 83.17721518987341
3000.0 83.2772151898734
3070.0 83.17721518987341
3150.0 83.47721518987342
3250.0 83.67721518987341
3350.0 83.9772151898734
3450.0 84.0772151898734
3550.0 83.9772151898734
3650.0 83.67721518987341
3750.0 83.47721518987342
3870.0 83.57721518987339
4000.0 82.7772151898734
4120.0 83.0772151898734
4250.0 82.67721518987341
4370.0 82.67721518987341
4500.0 82.5772151898734
4620.0 82.17721518987341
4750.0 82.17721518987341
4870.0 82.67721518987341
5000.0 82.7772151898734
5150.0 82.2772151898734
5300.0 83.17721518987341
5450.0 84.17721518987341
5600.0 84.4772151898734
5800.0 84.8772151898734
6000.0 84.7772151898734
6150.0 84.57721518987341
6300.0 83.17721518987341
6500.0 82.5772151898734
6700.0 82.8772151898734
6900.0 83.0772151898734
7100.0 83.0772151898734
7300.0 82.7772151898734
7500.0 82.3772151898734
7750.0 81.67721518987341
8000.0 81.9772151898734
8250.0 84.17721518987341
8500.0 85.17721518987341
8750.0 84.0772151898734
9000.0 82.3772151898734
9250.0 82.3772151898734
9500.0 84.0772151898734
9750.0 84.4772151898734
10000.0 84.8772151898734
10300.0 82.9772151898734
10600.0 81.4772151898734
10900.0 84.7772151898734
11200.0 84.3772151898734
11500.0 80.17721518987341
11800.0 82.67721518987341
12200.0 83.9772151898734
12500.0 83.3772151898734
12800.0 85.3772151898734
13200.0 83.17721518987341
13600.0 84.67721518987341
14000.0 84.3772151898734
14500.0 81.9772151898734
15000.0 80.17721518987341
15500.0 80.97721518987342
16000.0 80.3772151898734
16500.0 80.4772151898734
17000.0 78.67721518987341
17500.0 80.17721518987341
18000.0 78.67721518987341
18500.0 79.17721518987341
19000.0 77.17721518987341
19500.0 71.17721518987341
