Freq "Floor Bounce"
22.4 43.026083950151786
23.0 43.62608395015181
23.6 44.193011668749136
24.0 44.62608395015178
25.0 45.193011668749136
25.8 45.75890628257619
26.5 46.35890628257616
27.2 47.15890628257617
28.0 47.79223830685669
29.0 48.42531645569619
30.0 49.025316455696185
30.7 49.49223830685668
31.5 50.025316455696185
32.5 50.62531645569618
33.5 51.325316455696196
34.5 52.025316455696185
35.5 52.62531645569618
36.5 53.2253164556962
37.5 53.7253164556962
38.7 54.325316455696196
40.0 55.05890628257616
41.2 55.7253164556962
42.5 56.325316455696196
43.7 56.8922383068567
45.0 57.39223830685668
46.2 58.15890628257618
47.5 58.75890628257616
48.7 59.326083950151826
50.0 59.85890628257616
51.5 60.458906282576166
53.0 61.026083950151815
54.5 61.592238306856686
56.0 62.12608395015181
58.0 62.72608395015182
60.0 63.12608395015181
61.5 63.62608395015181
63.0 64.12608395015181
65.0 64.55966786438123
67.0 64.95966786438123
69.0 65.35966786438122
71.0 65.75966786438121
73.0 66.09376729375052
75.0 66.4260839501518
77.5 66.7260839501518
80.0 66.92608395015182
82.5 67.2260839501518
85.0 67.49376729375052
87.5 67.69376729375053
90.0 67.92608395015182
92.5 68.09376729375052
95.0 68.3260839501518
97.5 68.59376729375052
100.0 68.89376729375051
103.0 69.2260839501518
106.0 69.66044704747603
109.0 70.12608395015181
112.0 70.69376729375051
115.0 71.19376729375053
118.0 71.86044704747601
122.0 72.46044704747602
125.0 73.09376729375052
128.0 73.69376729375053
132.0 74.19376729375053
136.0 74.72838602673872
140.0 75.19376729375053
145.0 75.56195221236806
150.0 75.86195221236805
155.0 76.06195221236806
160.0 76.19682446356556
165.0 76.29682446356559
170.0 76.29682446356559
175.0 76.29682446356559
180.0 76.29682446356559
185.0 76.29682446356559
190.0 76.36575813515111
195.0 76.4657581351511
200.0 76.6014082101884
206.0 76.7014082101884
212.0 76.73222146605077
218.0 76.7014082101884
224.0 76.67108365008089
230.0 76.53758823885238
236.0 76.37108365008088
240.0 76.20751612901924
250.0 76.04448351072372
258.0 75.87792598771836
265.0 75.7151450224309
272.0 75.61514502243092
280.0 75.52429090700545
290.0 75.42429090700544
300.0 75.25788863616177
307.0 75.09614615853917
315.0 74.79614615853917
325.0 74.59614615853917
335.0 74.43494902251238
345.0 74.30751458359674
355.0 74.16846471679054
365.0 74.06846471679053
375.0 73.96846471679054
387.0 73.9349490225124
400.0 73.99614615853918
412.0 74.0349490225124
425.0 73.9349490225124
437.0 73.67430004720461
450.0 73.48726513133386
462.0 73.36077908704301
475.0 73.25058099498469
487.0 73.1436418975459
500.0 72.9630837985516
515.0 72.79473631936348
530.0 72.66284839146525
545.0 72.66728668127104
560.0 72.69425261874005
580.0 72.74196235900082
600.0 72.59024680910713
615.0 72.42016310025079
630.0 72.20157080712258
650.0 71.83339496625317
670.0 71.41569529617337
690.0 71.04938280003176
710.0 70.75203854486523
730.0 70.31311045412635
750.0 69.85495427637818
775.0 69.26728934663747
800.0 68.65626359897124
825.0 68.30019292463824
850.0 68.11337415270769
875.0 67.87134566607632
900.0 67.4899708771891
925.0 67.09356005250282
950.0 66.5991256804574
975.0 66.22139784119746
1000.0 66.09296224654788
1030.0 66.14624077457293
1060.0 66.22804155959551
1090.0 66.30114795675978
1120.0 66.31890011910244
1150.0 66.26923179005186
1180.0 66.38668901559625
1220.0 66.3495641593046
1250.0 66.2923541592203
1280.0 66.21864203636916
1320.0 66.03976891105029
1360.0 65.76514686723024
1400.0 65.43995163534234
1450.0 65.18415839531991
1500.0 64.83568671838079
1550.0 64.56293630005722
1600.0 64.47315657749135
1650.0 64.47226378966073
1700.0 64.62292825459383
1750.0 64.93050840196963
1800.0 65.38438395890617
1850.0 65.83544994276897
1900.0 66.45464688990977
1950.0 67.24455431008293
2000.0 68.03597743312947
2060.0 68.72357105206984
2120.0 69.39993605577232
2180.0 70.0485812319561
2240.0 70.74989318154117
2300.0 71.35465723011274
2360.0 71.80351283507045
2400.0 72.20116612473936
2500.0 72.52863195498267
2580.0 72.72813836184477
2650.0 72.75570731378036
2720.0 72.68252016031735
2800.0 72.56102958559748
2900.0 72.29887404123079
3000.0 72.03451949389351
3070.0 71.63858642652464
3150.0 71.16696933734113
3250.0 70.8659845146362
3350.0 70.7444457602798
3450.0 70.99845856705703
3550.0 71.49223830685669
3650.0 71.9922383068567
3750.0 72.25966786438121
3870.0 72.49301166874913
4000.0 72.69682446356558
4120.0 72.97467412047891
4250.0 73.30771506330393
4370.0 73.68726374753706
4500.0 74.16452806884081
4620.0 74.68533287872437
4750.0 75.2608899161546
4870.0 75.7516900124041
5000.0 75.93098153043732
5150.0 75.99794666606739
5300.0 76.06541916661828
5450.0 75.8833245033896
5600.0 75.38491031181555
5800.0 74.66088991615462
6000.0 73.62996557781214
6150.0 72.46923234638857
6300.0 71.57043202501374
6500.0 70.948813306356
6700.0 70.18484811573799
6900.0 69.19497724026662
7100.0 68.55440729726872
7300.0 68.22497084846799
7500.0 68.11183709736412
7750.0 68.19473631936347
8000.0 68.32258957536362
8250.0 68.39982003918306
8500.0 68.92267697545627
8750.0 69.5207900062974
9000.0 69.94862563388631
9250.0 70.33525272469913
9500.0 70.81390823493079
9750.0 71.22527749776573
10000.0 71.47954312568906
10300.0 71.4829343926795
10600.0 71.128730037679
10900.0 70.96167150461217
11200.0 70.8961750512499
11500.0 70.51038918697002
11800.0 69.6315435272776
12200.0 68.6401251305984
12500.0 68.32933656032856
12800.0 68.64476205829376
13200.0 68.87701578247821
13600.0 68.651178730641
14000.0 68.17218192859721
14500.0 67.94409454529561
15000.0 67.68212804111621
15500.0 67.44235992128012
16000.0 66.68311702561793
16500.0 65.1225366749316
17000.0 63.421986141129366
17500.0 62.04580669230225
18000.0 60.68725051155144
18500.0 60.02948239067999
19000.0 59.99181183994702
19500.0 61.388737847047835
