Freq "Front Wall Bounce"
22.4 36.08506470345135
23.0 37.317116036337254
23.6 38.49503601382911
24.0 39.62045916978282
25.0 40.77450277235452
25.8 41.900639251563135
26.5 43.01232917536434
27.2 44.05425791715517
28.0 45.10970294751179
29.0 46.18174975237967
30.0 47.23747737302294
30.7 48.26571605383124
31.5 49.365716053831264
32.5 50.49442366558968
33.5 51.62229566531131
34.5 52.8222956653113
35.5 54.02229566531129
36.5 55.26571605383124
37.5 56.55129077208666
38.7 57.79377230673022
40.0 59.06571605383125
41.2 60.3222956653113
42.5 61.52229566531129
43.7 62.66571605383125
45.0 63.76571605383124
46.2 64.79377230673022
47.5 65.79377230673022
48.7 66.66571605383125
50.0 67.46571605383124
51.5 68.19377230673022
53.0 68.86571605383125
54.5 69.5222956653113
56.0 70.13681741641189
58.0 70.76571605383124
60.0 71.46571605383123
61.5 72.23681741641191
63.0 73.06571605383125
65.0 73.9368174164119
67.0 74.73681741641191
69.0 75.5368174164119
71.0 76.23681741641188
73.0 76.79377230673022
75.0 77.26571605383123
77.5 77.66571605383125
80.0 77.99377230673022
82.5 78.26571605383124
85.0 78.46571605383124
87.5 78.62229566531131
90.0 78.8222956653113
92.5 79.12229566531131
95.0 79.5222956653113
97.5 79.96571605383124
100.0 80.26571605383124
103.0 80.32460545031611
106.0 80.09738441514594
109.0 79.71592007138791
112.0 79.4159200713879
115.0 79.34429881236022
118.0 79.72588413781698
122.0 80.42360482876943
125.0 80.92229566531131
128.0 81.10805740275055
132.0 80.93648740049478
136.0 80.7364874004948
140.0 80.80805740275055
145.0 81.0944236655897
150.0 81.15292767832932
155.0 80.58600377758226
160.0 79.75189428105146
165.0 79.54930533835586
170.0 79.55496392101908
175.0 79.07450277235453
180.0 78.72911769286256
185.0 78.77061714540683
190.0 78.72911769286256
195.0 78.88987566861232
200.0 79.36427231746121
206.0 80.58003967830867
212.0 81.83150136603872
218.0 82.88238805001147
224.0 84.18009357994832
230.0 84.75129077208665
236.0 83.96768284468108
240.0 82.47061714540685
250.0 80.78987566861231
258.0 78.31842454683719
265.0 76.68430271848271
272.0 75.94073131396647
280.0 76.07450277235453
290.0 78.00184773450589
300.0 79.52519077083807
307.0 81.20184773450588
315.0 81.63910509066757
325.0 81.00184773450587
335.0 80.077467464522
345.0 79.7088499995874
355.0 80.06132257441871
365.0 80.76132257441871
375.0 81.13727482620997
387.0 81.08506470345135
400.0 80.47821311884142
412.0 80.22703348186813
425.0 80.02703348186813
437.0 79.92703348186814
450.0 79.90441664613788
462.0 79.80441664613787
475.0 79.72703348186813
487.0 80.02703348186813
500.0 80.57642929527962
515.0 81.07642929527962
530.0 81.42154345924084
545.0 81.55406890130088
560.0 81.46126556276253
580.0 81.04032806688924
600.0 80.08963338192937
615.0 78.85027231637092
630.0 77.16977086639254
650.0 76.06977086639255
670.0 76.66885114551808
690.0 77.77591730594068
710.0 78.83826143478069
730.0 79.93907790532077
750.0 81.0573246080108
775.0 81.4573246080108
800.0 81.5390779053208
825.0 81.9382614347807
850.0 81.7926838720666
875.0 81.07624900113302
900.0 80.6881082202427
925.0 80.01640146388469
950.0 78.9853576739008
975.0 78.28535767390079
1000.0 77.8007286093952
1030.0 78.0065111126133
1060.0 79.81008652293853
1090.0 81.5924306928364
1120.0 81.93945488856671
1150.0 81.13945488856672
1180.0 80.20106823018487
1220.0 77.3745660727724
1250.0 74.98768481297087
1280.0 74.05330224274125
1320.0 73.1395700851409
1360.0 72.9374045986418
1400.0 72.86952022432867
1450.0 73.84867220472523
1500.0 74.96961197579473
1550.0 75.9494395357364
1600.0 77.20664591424917
1650.0 78.46193438218093
1700.0 79.46414273032387
1750.0 80.27407753069733
1800.0 81.1336631917335
1850.0 82.1115962880372
1900.0 82.38490066721155
1950.0 82.0654665578502
2000.0 81.5560503548334
2060.0 81.20430605804691
2120.0 80.15659531688343
2180.0 78.59664846231759
2240.0 79.34753703526191
2300.0 80.21455245111703
2360.0 79.40402647341595
2400.0 78.30728157471052
2500.0 78.68125927076146
2580.0 79.73601925798383
2650.0 79.91681654029355
2720.0 79.36955334333409
2800.0 78.7578831472976
2900.0 79.07436126437013
3000.0 80.11652668564797
3070.0 80.60933056743492
3150.0 81.15538269857335
3250.0 81.87289191761433
3350.0 83.07383784315458
3450.0 83.6191295952381
3550.0 82.6515221701067
3650.0 81.233519999463
3750.0 78.48231800346097
3870.0 79.48046886255474
4000.0 81.27732499277128
4120.0 80.53337025840742
4250.0 79.73449283725286
4370.0 79.85433580953357
4500.0 79.33194950158017
4620.0 81.12942345904902
4750.0 82.21360978229863
4870.0 81.91043295877255
5000.0 81.07248754099861
5150.0 82.10331081845625
5300.0 78.36912640334427
5450.0 73.58561848605196
5600.0 79.45865373179602
5800.0 79.0504268236286
6000.0 74.92972104328535
6150.0 77.1013896948309
6300.0 81.49578011854983
6500.0 80.54952318463776
6700.0 77.95177002415528
6900.0 80.9823533300508
7100.0 82.27179967335451
7300.0 80.77610530148712
7500.0 79.28395411781422
7750.0 82.34683676867206
8000.0 81.0859089807307
8250.0 76.9795607300254
8500.0 83.98157610706373
8750.0 81.88746834754626
9000.0 79.20990321264318
9250.0 82.01004179469383
9500.0 80.18574599782545
9750.0 78.89698982781228
10000.0 78.0299322335997
10300.0 80.52396425342916
10600.0 77.62593162344895
10900.0 77.22037303511888
11200.0 78.90752349746437
11500.0 74.82614402862625
11800.0 76.32163842202586
12200.0 76.86490473115727
12500.0 78.60411046576779
12800.0 74.34015780688755
13200.0 74.12407390394411
13600.0 71.52252265662577
14000.0 70.37301734865112
14500.0 69.55546168295862
15000.0 70.64744398086619
15500.0 72.85069665406438
16000.0 73.09346916068428
16500.0 70.71399671454395
17000.0 71.25103758650397
17500.0 75.43915277412903
18000.0 75.11002115327875
18500.0 74.93968888619472
19000.0 72.3602794629928
19500.0 73.79648564247822
