Freq "Side Wall Bounce"
22.4 35.05030598221542
23.0 36.35745309157029
23.6 37.66650463115293
24.0 38.89916116316452
25.0 40.115770642777036
25.8 41.25119026963385
26.5 42.388944380436
27.2 43.48492050374303
28.0 44.58492050374305
29.0 45.66069405115901
30.0 46.7395059298329
30.7 47.758394865991406
31.5 48.876774805308415
32.5 49.99827043518313
33.5 51.13589332167784
34.5 52.29593795493203
35.5 53.53589332167785
36.5 54.75661748129984
37.5 56.03589332167785
38.7 57.33589332167786
40.0 58.59460136187684
41.2 59.83589332167786
42.5 61.05523730861981
43.7 62.21458355958737
45.0 63.352935232032905
46.2 64.39460136187684
47.5 65.39460136187684
48.7 66.2529352320329
50.0 67.1529352320329
51.5 67.85293523203289
53.0 68.55293523203291
54.5 69.23219345153761
56.0 69.8515538884645
58.0 70.49183274263726
60.0 71.21137353637475
61.5 71.9712763444732
63.0 72.81137353637476
65.0 73.6312788891783
67.0 74.4312788891783
69.0 75.19183274263725
71.0 75.87220362884737
73.0 76.41276771719309
75.0 76.8529352320329
77.5 77.19460136187683
80.0 77.49460136187685
82.5 77.71733917756009
85.0 77.9173391775601
87.5 78.11733917756008
90.0 78.3758695840995
92.5 78.73402248333538
95.0 79.21229229969461
97.5 79.65155388846449
100.0 79.93127888917832
103.0 79.81137353637475
106.0 79.31464773204374
109.0 78.50667426060527
112.0 77.82802182182081
115.0 77.62265843584613
118.0 78.09270873843849
122.0 79.03482050044572
125.0 79.91308256470363
128.0 80.3405511699261
132.0 80.34868305635726
136.0 80.24180800641979
140.0 80.33815185309619
145.0 80.71182765373423
150.0 80.7708179668083
155.0 80.03127888917831
160.0 78.55572875173347
165.0 77.27308300535819
170.0 76.598691215947
175.0 76.1857336759319
180.0 76.24770255615033
185.0 76.62117934544193
190.0 76.71475797916187
195.0 76.87272061401379
200.0 77.27562093983421
206.0 78.4331857494755
212.0 79.62208634031788
218.0 80.7735349237027
224.0 82.35174320630394
230.0 83.2384455124221
236.0 82.6212105032252
240.0 80.98740678616839
250.0 79.0280218218208
258.0 76.19673799683477
265.0 74.41382694620879
272.0 73.89915183066076
280.0 73.95050028641789
290.0 75.21930851876283
300.0 75.84614930826747
307.0 77.60637653903026
315.0 78.26870988709337
325.0 77.5945587945491
335.0 76.63982155650434
345.0 76.27830072556567
355.0 76.57830072556565
365.0 77.27830072556566
375.0 77.53571123614792
387.0 77.22089412126708
400.0 76.314505123915
412.0 75.90188283857192
425.0 75.60357978128584
437.0 75.47966937557648
450.0 75.25156645826861
462.0 74.8408498648603
475.0 74.83163612910104
487.0 75.24554533702486
500.0 75.5100420239019
515.0 75.88226077102699
530.0 76.05271494652285
545.0 75.72468835231945
560.0 75.37599950121505
580.0 74.54670359191786
600.0 72.93002078088037
615.0 71.28569785731584
630.0 69.83154330278937
650.0 69.45154823602128
670.0 70.1708601940282
690.0 71.10729203160803
710.0 71.85527410166618
730.0 72.74041155529873
750.0 73.635816921292
775.0 73.73211626717706
800.0 73.64488586682641
825.0 74.01286233944242
850.0 73.81083049326982
875.0 73.14610200247452
900.0 72.62664074445871
925.0 71.48172789166972
950.0 70.13211626717707
975.0 69.27894329991952
1000.0 68.86445137227481
1030.0 69.15820601640456
1060.0 70.69561472974887
1090.0 72.36831808936556
1120.0 72.60778957802736
1150.0 71.65116555891522
1180.0 70.7196775205459
1220.0 67.8442382871342
1250.0 65.66604266740565
1280.0 65.53889990522443
1320.0 65.17648336296706
1360.0 65.07952396164266
1400.0 64.96205349037568
1450.0 65.74684244191295
1500.0 66.64185414754336
1550.0 67.28853451622864
1600.0 67.81204311850117
1650.0 68.67712673802458
1700.0 69.19739857217692
1750.0 69.9998883646785
1800.0 70.96458827237109
1850.0 72.10336843538839
1900.0 72.68591378124465
1950.0 72.55102475320969
2000.0 72.35430508355478
2060.0 72.26629862711009
2120.0 71.40126445033384
2180.0 69.6213829199679
2240.0 69.9166361095712
2300.0 70.18844511777141
2360.0 68.72986931199527
2400.0 66.8876192643919
2500.0 66.42675231287039
2580.0 66.81799979177711
2650.0 66.69251411305042
2720.0 66.3511845564092
2800.0 66.07457816791317
2900.0 66.58177982775048
3000.0 67.83503234879196
3070.0 68.71530368639664
3150.0 69.28914976748666
3250.0 69.70588210353738
3350.0 70.3607710730281
3450.0 70.17504263466667
3550.0 68.77706502273524
3650.0 67.37069125520325
3750.0 65.07422551897766
3870.0 66.61315859213015
4000.0 68.6619201481814
4120.0 68.55017045234588
4250.0 68.48844996543086
4370.0 69.1791268146621
4500.0 68.8696994179087
4620.0 70.86703544281126
4750.0 72.29394544989349
4870.0 71.81019250380284
5000.0 70.65508175617671
5150.0 71.61440920169903
5300.0 67.764269392048
5450.0 63.46792396572813
5600.0 70.2349098430965
5800.0 69.83608470391458
6000.0 65.06042561534323
6150.0 66.38905831666433
6300.0 70.76095308537533
6500.0 69.70946358118185
6700.0 66.79882890826944
6900.0 70.21321370563606
7100.0 71.68550796256582
7300.0 70.04093255935136
7500.0 68.92817401113034
7750.0 72.29028545372462
8000.0 71.03826381645494
8250.0 67.10771252130657
8500.0 73.85403152764346
8750.0 71.5794064998048
9000.0 68.77196358272157
9250.0 71.0480727223722
9500.0 68.63472203520506
9750.0 65.95439243854088
10000.0 64.02009023103497
10300.0 66.92798841935887
10600.0 64.68853321912677
10900.0 64.77379595857296
11200.0 66.83058090107023
11500.0 63.4598148390006
11800.0 65.02620552381414
12200.0 65.74303304043362
12500.0 68.14008078882809
12800.0 63.942988896810064
13200.0 64.09737631112128
13600.0 62.334839505665855
14000.0 61.417650016245545
14500.0 60.49134030903774
15000.0 61.28687082013899
15500.0 63.02432463886248
16000.0 62.944481218854705
16500.0 60.29948954667255
17000.0 60.17265274537333
17500.0 63.92819636127793
18000.0 63.436904219774405
18500.0 63.14126853966626
19000.0 60.652787322604766
19500.0 61.833112792511955
