Freq "Rear Wall Bounce"
22.4 45.402016996997205
23.0 46.97104584956317
23.6 48.5329285459632
24.0 50.06555770191606
25.0 51.60201699699722
25.8 53.112543328112096
26.5 54.64377505956453
27.2 56.14904268734203
28.0 57.65442640790984
29.0 59.143131874182885
30.0 60.60698070338695
30.7 62.04377505956454
31.5 63.454426407909835
32.5 64.84377505956452
33.5 66.18218754224789
34.5 67.47104584956318
35.5 68.74313187418288
36.5 69.94904268734201
37.5 71.09681327060358
38.7 72.20698070338695
40.0 73.24377505956453
41.2 74.20698070338693
42.5 75.11749502499897
43.7 75.94904268734203
45.0 76.71254332811209
46.2 77.42184836060552
47.5 78.05442640790983
48.7 78.60698070338692
50.0 79.09681327060359
51.5 79.5020169969972
53.0 79.85442640790984
54.5 80.16018777108361
56.0 80.4020169969972
58.0 80.5919512393642
60.0 80.74313187418288
61.5 80.86555770191607
63.0 80.96018777108361
65.0 81.04377505956454
67.0 81.10201699699721
69.0 81.16018777108363
71.0 81.2020169969972
73.0 81.23269613381807
75.0 81.29160330161248
77.5 81.32776174832024
80.0 81.39195123936422
82.5 81.45442640790985
85.0 81.5378570678453
87.5 81.61217226865905
90.0 81.70201699699722
92.5 81.77700845083803
95.0 81.82678946555431
97.5 81.88723041372056
100.0 81.9020169969972
103.0 81.89195123936422
106.0 81.87072493567037
109.0 81.83498000927705
112.0 81.78184714431107
115.0 81.70357138327438
118.0 81.5998249292946
122.0 81.48719037702769
125.0 81.38184714431105
128.0 81.25471220900579
132.0 81.11828370152543
136.0 80.97054058785956
140.0 80.82925426304867
145.0 80.69494658917291
150.0 80.55719557179924
155.0 80.42701242754652
160.0 80.2925160515964
165.0 80.16675975028708
170.0 80.04138488282905
175.0 79.89883999569088
180.0 79.77104747256715
185.0 79.59787995596518
190.0 79.4118298062373
195.0 79.19261076217533
200.0 78.92104281170666
206.0 78.61522270221231
212.0 78.2880658042262
218.0 77.92247824237747
224.0 77.51706564717466
230.0 77.11857458818154
236.0 76.69744116895043
240.0 76.27104087621687
250.0 75.83812306306824
258.0 75.4396266991392
265.0 75.09342168381107
272.0 74.76380608168388
280.0 74.52113148249524
290.0 74.28420098794717
300.0 74.10926521751666
307.0 73.96277096867294
315.0 73.80826159612111
325.0 73.67488597847786
335.0 73.50693649815427
345.0 73.35986421287413
355.0 73.19322442280644
365.0 73.01608694710636
375.0 72.84779840812885
387.0 72.62162930854946
400.0 72.34519070684797
412.0 72.05265512342066
425.0 71.72434644352151
437.0 71.34902181589705
450.0 71.00253462496758
462.0 70.6719930737389
475.0 70.35947748746669
487.0 70.09266121971682
500.0 69.84442855726239
515.0 69.61661766706187
530.0 69.40414673870048
545.0 69.2292202633309
560.0 69.10686087205649
580.0 68.99922073817056
600.0 68.87152637403646
615.0 68.80761533676076
630.0 68.73107189636154
650.0 68.63440109189736
670.0 68.54067448296686
690.0 68.45741620881905
710.0 68.38098495065456
730.0 68.31786854571581
750.0 68.31893313721453
775.0 68.27612417450166
800.0 68.21739978415745
825.0 68.15147451249015
850.0 68.05720590620801
875.0 67.89459611839929
900.0 67.78422007856635
925.0 67.6562201492081
950.0 67.56748362247096
975.0 67.48619990427628
1000.0 67.43933241155138
1030.0 67.4398103345065
1060.0 67.46811075998436
1090.0 67.50390206143182
1120.0 67.5429565268566
1150.0 67.56159065506634
1180.0 67.54721211525099
1220.0 67.46492755186883
1250.0 67.29542131300344
1280.0 67.03614837617168
1320.0 66.71093451809368
1360.0 66.28370233161235
1400.0 65.83159701520928
1450.0 65.33720671419597
1500.0 64.7921405844971
1550.0 64.25168799070568
1600.0 63.7640237172924
1650.0 63.276102100180566
1700.0 62.82779242890169
1750.0 62.415985747530996
1800.0 62.06322971442667
1850.0 61.758194474737806
1900.0 61.51851126221938
1950.0 61.32542920238593
2000.0 61.21231263002774
2060.0 61.13026405257908
2120.0 61.11278410421751
2180.0 61.131080708088504
2240.0 61.19747782681027
2300.0 61.273852985154505
2360.0 61.353362583079885
2400.0 61.43690101176064
2500.0 61.473576939726016
2580.0 61.526610770176475
2650.0 61.53463005107754
2720.0 61.485674941527336
2800.0 61.45398702551098
2900.0 61.31454019874461
3000.0 61.198121434902546
3070.0 60.98867422684047
3150.0 60.770717822975755
3250.0 60.477218763800536
3350.0 60.17518573235934
3450.0 59.84697791708986
3550.0 59.5004520463488
3650.0 59.198090265835006
3750.0 58.87225439557143
3870.0 58.6214296911658
4000.0 58.42810133531417
4120.0 58.283098603029785
4250.0 58.18340000171453
4370.0 58.09824985049151
4500.0 58.09341705459205
4620.0 58.083748188653956
4750.0 58.08685918755255
4870.0 58.08099006024149
5000.0 58.06428783557509
5150.0 58.029451193060694
5300.0 57.97833179735231
5450.0 57.90826988515643
5600.0 57.77823378035545
5800.0 57.679974841269186
6000.0 57.51914680547024
6150.0 57.36761393639149
6300.0 57.17946527379023
6500.0 56.98998076048987
6700.0 56.71000161617563
6900.0 56.46272136348672
7100.0 56.19151151796875
7300.0 55.82350258243737
7500.0 55.42558059758839
7750.0 54.92214758762675
8000.0 54.420455292850605
8250.0 53.83927230973278
8500.0 53.161778195473644
8750.0 52.518994365380294
9000.0 51.84732700472584
9250.0 51.18820122997765
9500.0 50.63126831959043
9750.0 50.11540562776362
10000.0 49.7440296710155
10300.0 49.48398814747104
10600.0 49.290306067369684
10900.0 49.19253445180654
11200.0 49.19125487451173
11500.0 49.21313541507017
11800.0 49.28398814747105
12200.0 49.30906025621094
12500.0 49.34402967101549
12800.0 49.34442287019381
13200.0 49.270651858487625
13600.0 49.179034091439334
14000.0 49.07447812661532
14500.0 48.96499178882853
15000.0 48.83486089456257
15500.0 48.65725251221885
16000.0 48.50926354973335
16500.0 48.34518258094407
17000.0 48.14834016895746
17500.0 48.002092481016675
18000.0 47.80522139537236
18500.0 47.61378318757953
19000.0 47.36990737035434
19500.0 47.15594416217952
