Freq "Total Early Reflection"
22.4 47.63869437134812
23.0 49.22041362088319
23.6 50.78651452779408
24.0 52.31569405956091
25.0 53.83473824727358
25.8 55.361775350696576
26.5 56.89456476637622
27.2 58.40461180411896
28.0 59.903683816833365
29.0 61.40233958193207
30.0 62.85192502948824
30.7 64.29456476637623
31.5 65.70525270779532
32.5 67.09456476637621
33.5 68.4217426519851
34.5 69.72456978188542
35.5 71.00233958193206
36.5 72.20461180411898
37.5 73.3380728620551
38.7 74.45192502948822
40.0 75.49912759016587
41.2 76.45192502948824
42.5 77.36236565906225
43.7 78.20461180411898
45.0 78.9704334104774
46.2 79.66846983982182
47.5 80.30368381683337
48.7 80.85192502948823
50.0 81.33807286205511
51.5 81.74729675302586
53.0 82.1052527077953
54.5 82.41505469501415
56.0 82.63473824727357
58.0 82.82902797758203
60.0 83.00233958193206
61.5 83.11569405956092
63.0 83.21505469501415
65.0 83.29456476637623
67.0 83.33869437134811
69.0 83.41505469501415
71.0 83.4386943713481
73.0 83.48806197803258
75.0 83.53098511916414
77.5 83.58589982488166
80.0 83.62902797758203
82.5 83.7112377337308
85.0 83.80927019067737
87.5 83.8712955211284
90.0 83.96407249140083
92.5 84.03893893789196
95.0 84.08646303449522
97.5 84.12493825698472
100.0 84.13419216662705
103.0 84.1256729072947
106.0 84.09169323398865
109.0 84.04729686606541
112.0 83.98231450258176
115.0 83.88108519226847
118.0 83.78391609838465
122.0 83.65901992150779
125.0 83.54240824891811
128.0 83.42038859410204
132.0 83.290730314392
136.0 83.15891597447424
140.0 83.02843241587203
145.0 82.89950724478183
150.0 82.78154114201823
155.0 82.65893223439686
160.0 82.53989328326799
165.0 82.42951572972423
170.0 82.32103256243373
175.0 82.19727665863849
180.0 82.09609077843048
185.0 81.96948409404648
190.0 81.85596814891115
195.0 81.73847098530452
200.0 81.59106918373206
206.0 81.45237274575874
212.0 81.30979355126223
218.0 81.1711143467263
224.0 81.01925315614419
230.0 80.91298983661017
236.0 80.76456430207276
240.0 80.64995765116787
250.0 80.53589100562014
258.0 80.44649939822038
265.0 80.366072689341
272.0 80.3078652593631
280.0 80.28660835074359
290.0 80.2793643754614
300.0 80.30918302860218
307.0 80.3808046306093
315.0 80.48149374396314
325.0 80.61982015945941
335.0 80.76489096608233
345.0 80.95627749959526
355.0 81.15769732306293
365.0 81.3764084061929
375.0 81.57183428047158
387.0 81.7413902883568
400.0 81.85908739726894
412.0 81.95369057208157
425.0 81.98486406489229
437.0 81.9870642905257
450.0 81.98124152749048
462.0 81.93849854664816
475.0 81.88660820391547
487.0 81.85409259820851
500.0 81.81406334279573
515.0 81.78788067244997
530.0 81.82288634614338
545.0 81.86072247096192
560.0 81.96370303122721
580.0 82.03227750661478
600.0 82.12169678778238
615.0 82.1588565272712
630.0 82.16164152767305
650.0 82.08451517732897
670.0 81.93470364501897
690.0 81.77860655945146
710.0 81.58733440858306
730.0 81.41896351059368
750.0 81.30711648150668
775.0 81.23796733005345
800.0 81.23243362171858
825.0 81.3028722413484
850.0 81.40823418963011
875.0 81.55192449652523
900.0 81.67759897239215
925.0 81.8097148107105
950.0 81.92018506307228
975.0 81.96134151157258
1000.0 81.95194185036411
1030.0 81.86043620359763
1060.0 81.71496832913377
1090.0 81.50605877027343
1120.0 81.24816133476085
1150.0 81.00875827915473
1180.0 80.7379380570556
1220.0 80.46637798127657
1250.0 80.25873560497837
1280.0 80.04827406916263
1320.0 79.88450798004058
1360.0 79.7246219395046
1400.0 79.60992509531887
1450.0 79.47338218850909
1500.0 79.35061285269536
1550.0 79.19207732097122
1600.0 79.04266622982279
1650.0 78.8301007311516
1700.0 78.6232035272822
1750.0 78.40185264140533
1800.0 78.24547267079058
1850.0 78.10095781790551
1900.0 78.02713661870756
1950.0 77.98770920475295
2000.0 77.99197083357534
2060.0 78.0600549840032
2120.0 78.16126406503938
2180.0 78.31154617447403
2240.0 78.51305359659261
2300.0 78.73658683362663
2360.0 79.02012470444875
2400.0 79.2697538079197
2500.0 79.53278044749435
2580.0 79.73660141882804
2650.0 79.88397871249583
2720.0 80.01438358175274
2800.0 80.07396251312183
2900.0 80.12549412786977
3000.0 80.13120038544324
3070.0 80.13407871481058
3150.0 80.13610551373054
3250.0 80.0799364986997
3350.0 80.02546783925018
3450.0 79.95623661974582
3550.0 79.86302873860626
3650.0 79.76175584784497
3750.0 79.68473714280422
3870.0 79.58597866239523
4000.0 79.54549376851737
4120.0 79.50947657667018
4250.0 79.47911277862002
4370.0 79.47964932327885
4500.0 79.47613004056132
4620.0 79.49797373144554
4750.0 79.5111649910437
4870.0 79.5080655724948
5000.0 79.50645336657655
5150.0 79.47645613698364
5300.0 79.41127584208793
5450.0 79.35901594600737
5600.0 79.27658155099121
5800.0 79.20206715486009
6000.0 79.14227129198402
6150.0 79.07264433426204
6300.0 79.00727086589897
6500.0 78.94550491417831
6700.0 78.8974908295516
6900.0 78.87988690627951
7100.0 78.84697964404063
7300.0 78.82026072522451
7500.0 78.79573410777553
7750.0 78.76749664163356
8000.0 78.71762697518179
8250.0 78.67222696763065
8500.0 78.60041254223867
8750.0 78.5147416659058
9000.0 78.47024573063314
9250.0 78.40029045484103
9500.0 78.3413152519847
9750.0 78.31116053016744
10000.0 78.26248837350848
10300.0 78.24593863879112
10600.0 78.1919597407575
10900.0 78.17826484788152
11200.0 78.09430809088995
11500.0 78.07781689162562
11800.0 78.0159646368221
12200.0 77.9601789114978
12500.0 77.90537013739976
12800.0 77.83550187518395
13200.0 77.74812564798958
13600.0 77.64846008576798
14000.0 77.54858814035198
14500.0 77.44722236661161
15000.0 77.33634119885454
15500.0 77.20606535043198
16000.0 77.04490028124341
16500.0 76.92023177935195
17000.0 76.74166349494769
17500.0 76.57234461913646
18000.0 76.37238611510917
18500.0 76.17260311839928
19000.0 75.94166947314113
19500.0 75.72092393339044
