Freq "Estimated In-Room Response"
22.4 25.210500821991204
23.0 25.974121776633027
23.6 26.904520982752146
24.0 29.054869334076116
25.0 30.691611621664194
25.8 32.09040919434737
26.5 33.33057651320645
27.2 34.37563538825118
28.0 35.27069959515744
29.0 36.1562663020013
30.0 37.366586680947805
30.7 39.22174182983029
31.5 40.80683855152911
32.5 42.20587445762028
33.5 43.414987017659215
34.5 44.499344525439014
35.5 45.64407255064417
36.5 47.50689567150168
37.5 49.13774505969626
38.7 50.55394766787735
40.0 51.804344123705974
41.2 53.010705466871016
42.5 54.52142035289195
43.7 56.03223534554685
45.0 57.34042093496821
46.2 58.54807961334306
47.5 59.70584463053915
48.7 61.1172429529728
50.0 62.419503794519756
51.5 63.65294209256534
53.0 64.82010268705008
54.5 65.90981334299998
56.0 67.0854026894291
58.0 68.32053853138964
60.0 69.40627166549454
61.5 70.43763515708591
63.0 71.386232443824
65.0 72.28333561334277
67.0 73.21564509323993
69.0 74.16221911551493
71.0 75.02939145675639
73.0 75.84127666244945
75.0 76.60184056719466
77.5 77.2707904132874
80.0 77.86132419947283
82.5 78.51072144774318
85.0 79.15483666651767
87.5 79.69405252825544
90.0 80.15780960182298
92.5 80.50252652303698
95.0 80.79295053370673
97.5 81.12520766222532
100.0 81.48351679343908
103.0 81.7404427396508
106.0 81.93505931003294
109.0 82.2231986624991
112.0 82.44699569997846
115.0 82.53047110553872
118.0 82.61539115169111
122.0 82.7016594037043
125.0 82.76490623391372
128.0 82.75180187323808
132.0 82.83734454882331
136.0 82.91031275006935
140.0 82.96501165712961
145.0 83.01833107505912
150.0 83.06364662102813
155.0 83.09734313726393
160.0 83.11330389360027
165.0 83.15680384698034
170.0 83.13864860384483
175.0 83.11357020692432
180.0 83.11104440029708
185.0 83.10051114595761
190.0 83.04878922301414
195.0 82.99655153044493
200.0 82.94893686449923
206.0 82.91033153165414
212.0 82.88716615493409
218.0 82.81061007175464
224.0 82.79501596757376
230.0 82.7502993287112
236.0 82.75683735365246
240.0 82.76097217900258
250.0 82.74032920453521
258.0 82.74949998381526
265.0 82.70667769068554
272.0 82.71029723741448
280.0 82.68733432763422
290.0 82.67728243828354
300.0 82.65945253821994
307.0 82.55789956850485
315.0 82.45042539135255
325.0 82.36415130742061
335.0 82.26850422345781
345.0 82.1662339970854
355.0 82.08457110564554
365.0 81.98525316659902
375.0 81.96728647229575
387.0 81.8957824887704
400.0 81.76669543184303
412.0 81.72877289581764
425.0 81.64190613615638
437.0 81.46168231701188
450.0 81.39014538994793
462.0 81.23544934393745
475.0 81.11936190581612
487.0 80.90529806053019
500.0 80.79904641176516
515.0 80.73809581195277
530.0 80.72604303233304
545.0 80.73293612572016
560.0 80.7847415452856
580.0 80.83138194238771
600.0 80.82663114649762
615.0 80.72017581433148
630.0 80.55907980625886
650.0 80.39382297440203
670.0 80.14549167656916
690.0 80.0312698726126
710.0 80.22546686940287
730.0 80.62946377991491
750.0 80.99636486168411
775.0 81.10218713970362
800.0 80.80041795956717
825.0 80.15419911820653
850.0 79.80712998033701
875.0 80.47097313221413
900.0 81.12676749200821
925.0 81.84707032267582
950.0 81.36060531240172
975.0 79.75963971018909
1000.0 79.71183422427023
1030.0 80.25920097125334
1060.0 79.62061547988078
1090.0 78.2686637252999
1120.0 78.54493010918773
1150.0 79.7004308341821
1180.0 79.98550002167971
1220.0 79.19281832595301
1250.0 78.7657886803557
1280.0 79.30696559765984
1320.0 79.72731115098907
1360.0 79.71743624242772
1400.0 80.25051612720509
1450.0 81.18086616756804
1500.0 81.29917160281863
1550.0 80.37476183173189
1600.0 80.17911799124535
1650.0 80.21748927447622
1700.0 79.40429179182958
1750.0 78.9933750275441
1800.0 78.63536926964534
1850.0 78.08518061043823
1900.0 78.1095751556211
1950.0 78.08859318531422
2000.0 78.13808516999724
2060.0 78.50927325223604
2120.0 79.0589292314479
2180.0 79.15164873335897
2240.0 78.92807554006146
2300.0 78.813236056749
2360.0 78.66445043664058
2400.0 78.56746046444407
2500.0 79.07553296009354
2580.0 79.92192510582187
2650.0 80.38328098511842
2720.0 80.11537374263409
2800.0 79.33741848696828
2900.0 78.66876810402142
3000.0 78.33073019867582
3070.0 77.91214436069438
3150.0 77.72089366972018
3250.0 77.63234172510583
3350.0 77.53581007533587
3450.0 77.21427330949197
3550.0 76.84082785459692
3650.0 77.37789706965869
3750.0 78.52626632583501
3870.0 79.71133862188827
4000.0 80.39831285207461
4120.0 80.29562838551216
4250.0 79.83424945956676
4370.0 79.50009260418908
4500.0 79.248863967028
4620.0 78.94261201939985
4750.0 78.57392776220853
4870.0 78.21685956614597
5000.0 77.68505022627461
5150.0 76.9617744286588
5300.0 76.96158182826365
5450.0 78.50579208281513
5600.0 79.87791081318254
5800.0 79.84121602236698
6000.0 79.41460481352483
6150.0 78.064927087092
6300.0 77.6398006054734
6500.0 78.82715261820918
6700.0 78.73908654670005
6900.0 78.75125438275201
7100.0 79.71306361642672
7300.0 79.35532403868403
7500.0 78.73695095227372
7750.0 78.46647515778272
8000.0 78.7808757567784
8250.0 79.38627779120054
8500.0 79.60559323565647
8750.0 80.2911473520494
9000.0 80.64888839807523
9250.0 80.99886879966103
9500.0 80.60938272286106
9750.0 79.65740995155313
10000.0 78.41730225377329
10300.0 77.48219981728431
10600.0 78.1670751942247
10900.0 78.96396499490307
11200.0 79.5854387842005
11500.0 79.68059473655838
11800.0 78.57564146541323
12200.0 77.18679137753452
12500.0 76.95843391061355
12800.0 77.85203238718238
13200.0 78.65606668034782
13600.0 78.38135114075953
14000.0 76.7971964050049
14500.0 76.73461621051523
15000.0 77.84601373850504
15500.0 78.60483968357157
16000.0 78.88654052553775
16500.0 78.39144745192466
17000.0 77.23595545577054
17500.0 75.26984962908543
18000.0 73.94079624849444
18500.0 68.78175883334403
19000.0 67.0731360570056
19500.0 63.59268344483347
