Freq "On Axis"
20.5078 52.79729999999999
21.9727 58.26459999999999
23.4375 61.97240000000001
24.9023 63.06239999999998
26.3672 65.14799999999998
27.832 67.8097
29.2969 69.6806
30.7617 71.8402
32.2266 73.6186
33.6914 75.23469999999999
35.1562 76.6682
36.6211 77.8671
38.0859 78.8579
39.5508 79.6222
41.0156 80.3477
42.4805 80.8921
43.9453 81.33469999999998
45.4102 81.7561
46.875 82.1162
48.3398 82.4686
51.2695 83.0279
52.7344 83.2398
54.1992 83.44159999999998
55.6641 83.6589
58.5938 84.0742
60.0586 84.2726
62.9883 84.7074
64.4531 84.856
67.3828 85.11919999999999
68.8477 85.2479
71.7773 85.478
74.707 85.6713
77.6367 85.7727
79.1016 85.8151
82.0312 86.0134
84.9609 86.1528
87.8906 86.30829999999999
90.8203 86.4734
95.2148 86.53079999999999
98.1445 86.48959999999998
101.074 86.4816
105.469 86.54959999999998
108.398 86.44529999999999
112.793 86.2828
117.188 86.1509
120.117 86.0667
124.512 86.0096
128.906 85.8254
133.301 85.6118
139.16 85.5373
143.555 85.1699
147.949 85.19510000000001
153.809 85.0142
159.668 85.0637
165.527 85.4598
171.387 85.948
177.246 86.359
183.105 86.8431
188.965 87.7261
196.289 88.5842
203.613 88.4963
210.938 88.8315
218.262 89.478
225.586 89.21150000000002
232.91 89.3152
241.699 90.0629
250.488 89.52239999999999
259.277 89.3981
268.066 88.8446
276.855 89.3307
287.109 91.0534
297.363 90.7204
307.617 90.6617
319.336 90.0867
329.59 89.5773
341.309 89.5106
353.027 90.0553
366.211 89.9794
379.395 90.6432
392.578 90.9014
405.762 90.385
420.41 90.2075
435.059 89.4399
451.172 89.7697
465.82 90.5397
483.398 91.1625
499.512 91.04369999999999
517.09 90.2863
536.133 90.1734
555.176 90.9239
574.219 90.1023
594.727 90.1888
615.234 90.9142
637.207 92.3318
659.18 92.9349
682.617 93.2437
707.52 93.0686
732.422 93.6818
757.324 93.9688
785.156 92.6067
811.523 91.5423
840.82 92.0911
870.117 91.65479999999998
900.879 91.18230000000001
933.105 91.3197
965.332 91.4352
1000.49 91.25750000000001
1035.64 90.9456
1072.27 91.6404
1108.89 91.9183
1148.44 92.3558
1189.45 91.61570000000002
1230.47 92.2044
1274.41 92.3066
1319.82 92.63259999999998
1366.7 92.7903
1413.57 92.45799999999998
1463.38 92.8812
1516.11 92.5646
1568.85 92.64630000000001
1624.51 92.931
1681.64 93.2036
1741.7 92.4394
1803.22 92.318
1866.21 92.39489999999999
1932.13 93.2047
1999.51 92.5911
2069.82 91.927
2143.07 91.3648
2219.24 91.4337
2296.88 92.1736
2378.91 90.9429
2462.4 91.36289999999998
2548.83 91.0649
2639.65 91.728
2731.93 90.8718
2828.61 91.7102
2928.22 91.2963
3030.76 89.85710000000002
3137.7 90.0674
3249.02 90.8745
3363.28 89.8917
3481.93 89.7417
3604.98 90.0121
3732.42 90.7662
3864.26 91.3617
4000.49 91.80550000000001
4141.11 91.821
4287.6 91.71659999999999
4438.48 91.6473
4595.21 92.41620000000002
4756.35 92.83030000000001
4924.8 93.1254
5097.66 93.1282
5277.83 92.4863
5463.87 91.2632
5657.23 90.8472
5856.45 89.76440000000001
6062.99 90.2599
6276.86 90.8
6498.05 92.3311
6726.56 92.9114
6963.87 93.70309999999999
7209.96 92.7272
7464.84 91.6747
7727.05 91.18249999999999
7999.51 91.1884
8282.23 91.9621
8573.73 92.2489
8876.95 92.81749999999998
9188.96 92.8832
9514.16 91.8815
9849.61 91.2677
10196.8 91.17709999999998
10555.7 90.6613
10927.7 90.3483
11313.0 90.6073
11712.9 89.9181
12126.0 89.5729
12553.7 90.2607
12996.1 90.0945
13454.6 89.5893
13929.2 89.49040000000001
14419.9 89.7292
14928.2 90.2018
15455.6 90.5657
16000.5 90.73280000000001
16564.5 90.9575
17148.9 91.26039999999999
17752.4 92.0192
18379.4 92.5589
19026.9 92.978
19697.8 93.3262
19999.5 93.1517
