Freq "Front Wall Bounce"
22.4 35.42001628592426
23.0 36.276791555106726
23.6 37.12001628592425
24.0 37.94751651654637
25.0 38.77612736402794
25.8 39.576127364027926
26.5 40.37612736402794
27.2 41.17612736402795
28.0 41.97612736402793
29.0 42.77612736402794
30.0 43.53280466142617
30.7 44.30390602400682
31.5 45.10390602400683
32.5 45.86151227318463
33.5 46.603906024006804
34.5 47.38938427290624
35.5 48.189384272906224
36.5 48.903906024006815
37.5 49.689384272906224
38.7 50.489384272906236
40.0 51.260860914325136
41.2 52.0321489823848
42.5 52.83214898238478
43.7 53.63214898238478
45.0 54.4321489823848
46.2 55.260860914325136
47.5 56.08938427290623
48.7 56.90390602400683
50.0 57.760860914325136
51.5 58.58938427290623
53.0 59.38938427290624
54.5 60.20390602400681
56.0 61.00390602400684
58.0 61.803906024006835
60.0 62.60390602400682
61.5 63.38938427290624
63.0 64.16151227318461
65.0 64.90390602400682
67.0 65.63280466142616
69.0 66.38938427290624
71.0 67.13280466142616
73.0 67.80390602400682
75.0 68.53280466142616
77.5 69.18938427290622
80.0 69.80390602400682
82.5 70.40390602400683
85.0 70.98938427290624
87.5 71.48938427290624
90.0 71.90390602400683
92.5 72.30390602400682
95.0 72.70390602400683
97.5 72.97612736402793
100.0 73.23280466142616
103.0 73.47612736402795
106.0 73.64751651654637
109.0 73.77612736402794
112.0 73.80521081790774
115.0 73.73280466142617
118.0 73.60521081790773
122.0 73.37612736402795
125.0 73.20521081790774
128.0 73.07612736402794
132.0 73.03280466142617
136.0 73.13280466142616
140.0 73.16151227318463
145.0 73.20521081790774
150.0 73.16151227318463
155.0 73.10521081790775
160.0 72.92001628592425
165.0 72.82001628592425
170.0 72.5929727454119
175.0 72.33770575300177
180.0 72.06447302274087
185.0 71.93770575300177
190.0 72.13770575300175
195.0 72.43770575300177
200.0 72.73770575300176
206.0 72.81138741995514
212.0 72.83770575300176
218.0 73.02261651272354
224.0 73.17807463721928
230.0 73.30521081790774
236.0 73.40521081790774
240.0 73.44947665760638
250.0 73.43770575300177
258.0 73.41138741995515
265.0 73.38300867898283
272.0 73.31138741995515
280.0 73.19620630045749
290.0 72.9962063004575
300.0 72.76772785915804
307.0 72.51138741995514
315.0 72.31138741995515
325.0 72.31138741995515
335.0 72.41138741995515
345.0 72.61138741995515
355.0 72.9962063004575
365.0 73.36772785915805
375.0 73.73770575300176
387.0 74.03770575300177
400.0 74.21138741995514
412.0 74.21138741995514
425.0 74.10311282462857
437.0 73.79374362007398
450.0 73.36442601231629
462.0 72.81714445080931
475.0 72.26214053350085
487.0 71.74057740707093
500.0 71.1689363421008
515.0 70.71589696989436
530.0 70.39620630045751
545.0 70.35526473328368
560.0 70.47024115966859
580.0 70.64471619151122
600.0 70.65288199894553
615.0 70.50051797060267
630.0 70.3211575088958
650.0 70.13848363061058
670.0 69.99412208946305
690.0 70.32841118201362
710.0 71.03713555140929
730.0 71.57593860718232
750.0 71.87150525373279
775.0 72.08210917871412
800.0 72.11049377886359
825.0 72.02746782387074
850.0 71.93935609280031
875.0 71.86858365286919
900.0 71.76858365286918
925.0 71.64351790287455
950.0 71.42835417035747
975.0 71.02915915111488
1000.0 70.71521147094286
1030.0 70.62746782387073
1060.0 71.00582231486685
1090.0 71.52835417035746
1120.0 71.75197444530795
1150.0 71.46728845374221
1180.0 70.71303306201513
1220.0 70.14351790287455
1250.0 69.38863206683578
1280.0 68.16620846238295
1320.0 67.25051034655911
1360.0 68.74750146981563
1400.0 69.89167881652703
1450.0 69.88843975888086
1500.0 70.2949897841062
1550.0 70.01589695964478
1600.0 69.77179333848035
1650.0 69.11270169881467
1700.0 68.04777311802681
1750.0 68.21579887740697
1800.0 69.40946228064264
1850.0 69.92896424967397
1900.0 70.86346610899757
1950.0 71.41962646282745
2000.0 72.03094019325816
2060.0 72.51257795137363
2120.0 72.98530908642562
2180.0 72.22634865810079
2240.0 72.01853156317384
2300.0 72.09388268693283
2360.0 71.33296458734598
2400.0 71.69135802973183
2500.0 72.16080144359074
2580.0 71.49136491088312
2650.0 71.74594296805073
2720.0 71.77070651975791
2800.0 71.60857381113075
2900.0 72.04772232691965
3000.0 72.21410189312195
3070.0 72.72954495589202
3150.0 72.58686998152065
3250.0 72.5236408440699
3350.0 73.49500945985625
3450.0 74.54082429191625
3550.0 74.86909884932508
3650.0 74.25384148025474
3750.0 74.17420967607949
3870.0 74.11316563869515
4000.0 74.2499728135477
4120.0 74.44830831105648
4250.0 74.71809780406583
4370.0 73.98942293971963
4500.0 73.05972807913658
4620.0 72.6413560329673
4750.0 73.18633370759262
4870.0 73.1754551282768
5000.0 73.89302603910964
5150.0 74.85108935240861
5300.0 74.98036524827575
5450.0 74.03873161592847
5600.0 73.46991693009527
5800.0 72.83417577598296
6000.0 71.816642431013
6150.0 71.21157539688319
6300.0 71.89031871787203
6500.0 72.69502060149117
6700.0 72.76331290067593
6900.0 72.6336052662051
7100.0 72.45519152762743
7300.0 72.84132213414323
7500.0 71.89243919940988
7750.0 71.86230158502553
8000.0 72.24762454047044
8250.0 72.88522628963732
8500.0 73.59979325591424
8750.0 73.16228553077144
9000.0 71.26572414202401
9250.0 69.48865944507355
9500.0 70.1799145406058
9750.0 70.10050862944851
10000.0 68.71190702551958
10300.0 69.29863252153146
10600.0 67.90283217515892
10900.0 67.58446055354128
11200.0 71.02267154847787
11500.0 71.7090202212123
11800.0 71.03921246923761
12200.0 69.68942199972945
12500.0 69.36064606004395
12800.0 68.00232531149764
13200.0 68.43675822184314
13600.0 67.15091537605501
14000.0 64.31330385584063
14500.0 67.67303739022522
15000.0 70.20204969974814
15500.0 66.74214616412783
16000.0 70.20506825426817
16500.0 68.42526066519432
17000.0 66.62331313207255
17500.0 68.04360509230621
18000.0 66.45743388113198
18500.0 60.78276817304338
19000.0 66.9659142914818
19500.0 68.48144608603737
