Freq "Rear Wall Bounce"
22.4 32.52441071634452
23.0 33.44459347389555
23.6 34.3541951371338
24.0 35.22769824131076
25.0 36.09521432055227
25.8 36.94812707059616
26.5 37.82519895621961
27.2 38.645378059450294
28.0 39.46523050254798
29.0 40.335067942617215
30.0 41.153444892002156
30.7 41.95344489200214
31.5 42.75344489200218
32.5 43.58394534995635
33.5 44.383945349956335
34.5 45.183945349956346
35.5 45.98394534995636
36.5 46.78394534995634
37.5 47.61517212851278
38.7 48.40378700076674
40.0 49.19263212049292
41.2 49.992632120492914
42.5 50.82429579947568
43.7 51.639438046804344
45.0 52.47098532311385
46.2 53.29239484115415
47.5 54.102806640998196
48.7 54.92861528083658
50.0 55.77098532311386
51.5 56.58121062387863
53.0 57.39164923914238
54.5 58.21295738064508
56.0 59.01295738064506
58.0 59.79239484115416
60.0 60.549726513216214
61.5 61.31802386733524
63.0 62.092394841154146
65.0 62.812957380645074
67.0 63.52937178256042
69.0 64.28219587023625
71.0 64.98219587023625
73.0 65.68219587023626
75.0 66.38219587023626
77.5 67.02937178256042
80.0 67.6396954148344
82.5 68.2293717825604
85.0 68.78608809553732
87.5 69.27563608895069
90.0 69.67563608895068
92.5 70.06440857419057
95.0 70.36965124966689
97.5 70.65390419854091
100.0 70.89055889180551
103.0 71.08546301199047
106.0 71.22726812636056
109.0 71.28546301199047
112.0 71.24323466757006
115.0 71.1119735226979
118.0 70.91197352269789
122.0 70.66500836380081
125.0 70.45474479897838
128.0 70.33365800588622
132.0 70.32355559074723
136.0 70.40254740766989
140.0 70.55449415958914
145.0 70.67097970400967
150.0 70.74087930912764
155.0 70.71794758221303
160.0 70.59720845340199
165.0 70.32617856300014
170.0 69.92649704611334
175.0 69.2881453624667
180.0 68.6017509161656
185.0 68.04724618416886
190.0 67.88643806727659
195.0 68.04579737546015
200.0 68.30803709062631
206.0 68.43857561660221
212.0 68.51272043793094
218.0 68.49050673723646
224.0 68.30092167468887
230.0 68.02564693441478
236.0 67.81682885775189
240.0 67.72320902630382
250.0 67.7469095048484
258.0 67.61316607181271
265.0 67.31351484211946
272.0 66.71938473882739
280.0 66.13471300700704
290.0 65.76299213834395
300.0 65.6868898921024
307.0 65.83064380110999
315.0 65.88345712170717
325.0 65.55493481586909
335.0 65.02292194881727
345.0 64.8088842749409
355.0 64.89961168742838
365.0 65.11636961052368
375.0 65.34365540925073
387.0 65.49973020898435
400.0 65.47972677490114
412.0 65.21438627370809
425.0 64.77170809948915
437.0 64.3877031809724
450.0 63.80084293258177
462.0 62.77977292603889
475.0 61.712602023236016
487.0 61.30140575715856
500.0 61.26607730603199
515.0 61.248025346936856
530.0 61.303766475432795
545.0 61.40846325948284
560.0 60.9738364604424
580.0 60.219961212779694
600.0 59.67078050284252
615.0 58.90612443280048
630.0 57.46726720349784
650.0 56.68559624102137
670.0 57.449639353037924
690.0 57.88179841266437
710.0 58.04418798152214
730.0 58.58790300505531
750.0 58.81217847431783
775.0 58.40524688100136
800.0 57.3454069851217
825.0 56.517246574480765
850.0 56.86452069521691
875.0 56.91203556390229
900.0 57.25429452483256
925.0 56.45934758705103
950.0 56.04135763847522
975.0 55.25502138378192
1000.0 54.06122072326505
1030.0 53.5376629652455
1060.0 52.876704881700164
1090.0 52.20597911479642
1120.0 53.29918656459948
1150.0 57.17623372382003
1180.0 58.0378288069611
1220.0 58.12828889018611
1250.0 58.45807390118159
1280.0 57.36117056109137
1320.0 55.08455799704544
1360.0 53.0048044079863
1400.0 50.679736569265955
1450.0 48.46570382820842
1500.0 47.14443752060207
1550.0 42.03498762731546
1600.0 47.473061920369915
1650.0 49.31433857025361
1700.0 48.06833099008226
1750.0 47.48622072194395
1800.0 48.34214270644294
1850.0 49.361249312123206
1900.0 49.14299340324432
1950.0 49.69661116205286
2000.0 50.78219880958805
2060.0 50.78946464689109
2120.0 51.87304343135784
2180.0 52.216052281069665
2240.0 52.700958251506606
2300.0 52.80454637832274
2360.0 52.34720185843307
2400.0 53.16979007791208
2500.0 54.53367825226913
2580.0 52.84078402110994
2650.0 52.32676750145471
2720.0 52.174685407248376
2800.0 50.60070359662646
2900.0 50.19101700123903
3000.0 49.51129827738124
3070.0 47.5208514793061
3150.0 48.39398887177846
3250.0 47.95171367988125
3350.0 49.45242922717787
3450.0 50.5045208135715
3550.0 50.601380907232794
3650.0 49.502314861448085
3750.0 49.63765068246906
3870.0 49.51690030661295
4000.0 49.82732281617818
4120.0 50.852383631029696
4250.0 48.916320756421825
4370.0 45.90600955021914
4500.0 44.67726618329145
4620.0 42.971956281498464
4750.0 42.75907614724569
4870.0 47.132109647529646
5000.0 50.33339451505897
5150.0 50.95824945140089
5300.0 48.169901652450974
5450.0 45.11271450515876
5600.0 42.4664682903592
5800.0 45.457446981099324
6000.0 46.65703214396122
6150.0 43.877708857061364
6300.0 42.31703803117425
6500.0 36.07670309203381
6700.0 38.80918394287566
6900.0 43.372641111694506
7100.0 45.01508974202561
7300.0 43.60633378487877
7500.0 39.77409037166096
7750.0 34.11433399605322
8000.0 35.68439702512437
8250.0 41.578021432882295
8500.0 42.11938896812579
8750.0 42.17902803067689
9000.0 41.219289754179826
9250.0 37.55588166758049
9500.0 33.473040330483045
9750.0 39.64611754658701
10000.0 39.768742530486364
10300.0 41.756246217238285
10600.0 36.487940186562795
10900.0 31.56376049835292
11200.0 33.88141637511525
11500.0 43.40581580261214
11800.0 44.67729179361636
12200.0 39.195765571351004
12500.0 32.646166333452456
12800.0 33.826125888928644
13200.0 35.63267291860102
13600.0 36.97554636190371
14000.0 32.047976812394225
14500.0 35.760334121527606
15000.0 37.10216979086472
15500.0 33.12245599550694
16000.0 33.33007740454532
16500.0 35.398533234468815
17000.0 32.00038010237465
17500.0 27.656879515736748
18000.0 32.37908221095621
18500.0 29.69715039462052
19000.0 31.130791253154413
19500.0 34.9830097000421
