Freq "Rear Wall Bounce"
22.4 21.483973879651067
23.0 22.2073863780601
23.6 23.55704780186823
24.0 24.826241891505525
25.0 25.857132203250124
25.8 26.702640872032127
26.5 27.498278099675638
27.2 28.1555833413451
28.0 28.77925518810732
29.0 29.340700138828417
30.0 29.850534002627192
30.7 30.51163095399135
31.5 31.674005493093482
32.5 32.74625398130663
33.5 33.645768727542155
34.5 34.39793707134151
35.5 35.0979370713415
36.5 35.68727048380347
37.5 36.26023560958219
38.7 37.01874265941691
40.0 38.080718112006586
41.2 38.980480180827435
42.5 39.77001465287477
43.7 40.44851139031734
45.0 41.064653145850336
46.2 41.706421574161844
47.5 42.64386007226995
48.7 43.517041286123934
50.0 44.24361452362509
51.5 44.917041286123926
53.0 45.49577583037253
54.5 46.29577583037253
56.0 47.15878967953321
58.0 47.87974955034283
60.0 48.495775830372516
61.5 49.14250905579413
63.0 49.95328601214694
65.0 50.67427239741644
67.0 51.347655556548894
69.0 51.95817503850103
71.0 52.73711053242436
73.0 53.43182840322694
75.0 54.089581461244755
77.5 54.721244832424155
80.0 55.4
82.5 56.021244832424124
85.0 56.63182840322697
87.5 57.300000000000004
90.0 57.92124483242413
92.5 58.47913786874599
95.0 59.12653984178842
97.5 59.695157857809996
100.0 60.226539841788416
103.0 60.78472768251702
106.0 61.28472768251702
109.0 61.747655556548914
112.0 62.16891323790383
115.0 62.53735085147644
118.0 62.84238624500815
122.0 63.11111897043201
125.0 63.27439430983315
128.0 63.40072710339185
132.0 63.463914088287034
136.0 63.463914088287034
140.0 63.42246192498934
145.0 63.36988977484028
150.0 63.32799628882443
155.0 63.28667344023648
160.0 63.23510112212275
165.0 63.156197649483055
170.0 63.036074219709725
175.0 62.94159972840158
180.0 62.76388766787648
185.0 62.570954416138655
190.0 62.398814620127105
195.0 62.23023683210345
200.0 62.075221432641705
206.0 61.977151563971425
212.0 61.89053689535144
218.0 61.85253806371583
224.0 61.764326132075034
230.0 61.65197990305145
236.0 61.47263165465386
240.0 61.241685465612655
250.0 61.02284010360783
258.0 60.964800935265764
265.0 60.88952830004495
272.0 60.77513916384884
280.0 60.59130081825011
290.0 60.363797816096685
300.0 60.05426433195225
307.0 59.773425642159076
315.0 59.58959413891953
325.0 59.462178398289105
335.0 59.458646453997424
345.0 59.52812714717164
355.0 59.4499692957642
365.0 59.20311902347844
375.0 58.93696569287527
387.0 58.71714289556274
400.0 58.4173491535634
412.0 57.910828448093376
425.0 57.20378381156679
437.0 56.61579868320427
450.0 56.2473422691024
462.0 56.381426959021674
475.0 56.69821755887191
487.0 57.0859917907192
500.0 57.51648728915472
515.0 57.92500676703161
530.0 58.20011091461051
545.0 58.071550440711114
560.0 57.60633533828007
580.0 57.21365907763768
600.0 56.49828907083323
615.0 55.532531321062415
630.0 54.72068816554505
650.0 54.32792501895114
670.0 54.40083514734332
690.0 54.58236112757381
710.0 54.772526655955296
730.0 55.01364915499558
750.0 55.27179996869686
775.0 55.27734327055243
800.0 54.84621042413402
825.0 54.297223127969794
850.0 53.5227549976538
875.0 52.86380619826627
900.0 52.30610755409099
925.0 52.08982099922415
950.0 52.363327360102396
975.0 53.054832170048435
1000.0 54.088206002281304
1030.0 54.906975639170945
1060.0 54.06406987148798
1090.0 53.087354957884976
1120.0 51.76254166873829
1150.0 50.81402630653381
1180.0 50.83941990628994
1220.0 50.114207842481356
1250.0 49.48811106506391
1280.0 49.62410554097547
1320.0 49.902126953147196
1360.0 49.94110074302598
1400.0 49.74551308872385
1450.0 49.71843214405282
1500.0 49.93551129707074
1550.0 48.30488157397375
1600.0 47.5166273934692
1650.0 47.47911647474418
1700.0 47.97891103946983
1750.0 47.5199942702336
1800.0 47.39561258329062
1850.0 47.483259120347604
1900.0 47.58813937866996
1950.0 49.69970602055886
2000.0 49.17449482460689
2060.0 46.87294664187748
2120.0 48.295051786866644
2180.0 48.27813430289438
2240.0 49.18388195736812
2300.0 51.23385854151123
2360.0 50.68294326576251
2400.0 45.36728665183637
2500.0 46.446839722548965
2580.0 47.77646111757485
2650.0 48.59294705323892
2720.0 48.37116257952545
2800.0 49.53712656724604
2900.0 47.843920555298446
3000.0 48.87066387258775
3070.0 47.85823685567595
3150.0 47.677594703702006
3250.0 47.38749669645615
3350.0 47.18650455299284
3450.0 47.74920281063637
3550.0 49.06845550130054
3650.0 48.23764315723343
3750.0 46.60878777150452
3870.0 46.95070729257609
4000.0 46.70401127212292
4120.0 47.60688961598924
4250.0 45.74772110063906
4370.0 47.9518897077969
4500.0 48.40613662337413
4620.0 48.20058109334891
4750.0 47.83984614396852
4870.0 47.95097896482907
5000.0 46.630815904675835
5150.0 45.805092425213296
5300.0 45.59701568209206
5450.0 45.69984126374687
5600.0 45.57715896917765
5800.0 46.297562369460756
6000.0 47.19321842124288
6150.0 48.15378786674096
6300.0 48.52012194093812
6500.0 47.79983819379425
6700.0 48.49236349985822
6900.0 48.07838120426563
7100.0 46.71219651812927
7300.0 46.3576735123521
7500.0 45.76914339841117
7750.0 47.21630909402156
8000.0 48.39718505370434
8250.0 47.90305515367442
8500.0 45.68389701489823
8750.0 44.624806375834275
9000.0 44.40878120672564
9250.0 46.86916034374021
9500.0 46.93039425152194
9750.0 44.29421639064511
10000.0 44.156760997731446
10300.0 43.227147779572455
10600.0 43.60382091680835
10900.0 45.264380511953384
11200.0 44.54755554927531
11500.0 41.100205094165396
11800.0 37.853126245737705
12200.0 37.9587257200271
12500.0 39.3358525393083
12800.0 39.823248314922644
13200.0 40.438413900934016
13600.0 37.71873579745249
14000.0 34.868969889427454
14500.0 30.813683633348
15000.0 27.615113292101363
15500.0 25.06174128835351
16000.0 17.578331133632126
16500.0 16.59849468809005
17000.0 18.111526098221496
17500.0 21.76777318221655
18000.0 22.840590767527225
18500.0 25.26551393553185
19000.0 29.42571212818188
19500.0 31.424636616153087
