Freq "Listening Window"
22.4 -142.4502850199189
23.0 -141.58739944182128
23.6 -140.42479599285002
24.0 -139.51305041297974
25.0 -138.50160280339531
25.8 -137.6357863365701
26.5 -136.93578633657012
27.2 -136.13578633657016
28.0 -135.17022888973986
29.0 -134.02454032602793
30.0 -133.06923030618827
30.7 -132.2026440112882
31.5 -131.3138333913251
32.5 -130.35763384835383
33.5 -129.44606827274208
34.5 -128.66820870027357
35.5 -127.94606827274212
36.5 -127.14606827274211
37.5 -126.25661496635568
38.7 -125.46671094614088
40.0 -124.86671094614086
41.2 -124.4093116848179
42.5 -123.93228410081979
43.7 -123.4093116848179
45.0 -122.88893940907757
46.2 -122.4093116848179
47.5 -122.00931168481786
48.7 -121.73030243178958
50.0 -121.50706761545102
51.5 -121.25109313733894
53.0 -120.96097976027697
54.5 -120.68343207700529
56.0 -120.46097976027691
58.0 -120.34966840716662
60.0 -120.2388935812421
61.5 -120.1030926932895
63.0 -119.98053876803202
65.0 -119.78053876803197
67.0 -119.63312606580261
69.0 78.4470755128061
71.0 78.55737367466288
73.0 78.64707551280611
75.0 78.75737367466287
77.5 78.91471684358187
80.0 79.03744262996337
82.5 79.20523299314588
85.0 79.31637342008403
87.5 79.483591373336
90.0 79.60497315838575
92.5 79.66326415712508
95.0 79.68410764867822
97.5 79.62800833085701
100.0 79.61715097190223
103.0 79.73988207315664
106.0 80.07477428703045
109.0 80.47477428703047
112.0 80.87425690090892
115.0 81.21876894022466
118.0 81.51876894022466
122.0 81.73988207315662
125.0 81.90523299314587
128.0 82.01876894022466
132.0 82.09772768678214
136.0 82.23243645889231
140.0 82.320813421074
145.0 82.36326415712507
150.0 82.35409954669383
155.0 82.31229446117057
160.0 82.29651088434916
165.0 82.34737436180576
170.0 82.5295269309011
175.0 82.79173894337511
180.0 83.02951908345263
185.0 83.13784478037542
190.0 83.1799994644564
195.0 83.16511548275702
200.0 83.15357969151785
206.0 83.177429782078
212.0 83.22677183407721
218.0 83.39975967277519
224.0 83.5725038531241
230.0 83.71484964180151
236.0 83.79198679526861
240.0 83.71589887982873
250.0 83.44377438533655
258.0 83.070868566582
265.0 82.90662050403456
272.0 83.18506308188277
280.0 83.70011364730993
290.0 83.81551430606767
300.0 83.46346917856327
307.0 82.82638750303211
315.0 82.22165641558739
325.0 81.59584411859086
335.0 81.63128865124776
345.0 81.44098564832825
355.0 81.64792489547148
365.0 81.36613913357739
375.0 80.84682829156971
387.0 80.3740403647052
400.0 79.795555597046
412.0 79.52437046487532
425.0 79.45940975322075
437.0 79.26895167000953
450.0 78.76599709417503
462.0 78.04727132720055
475.0 77.21181980156416
487.0 76.56691166908772
500.0 76.50662582638053
515.0 77.03582998798916
530.0 77.7348484196408
545.0 78.12875016385819
560.0 78.11889242286789
580.0 78.06211443868433
600.0 78.08682192904884
615.0 77.86123115109514
630.0 77.45462096140281
650.0 76.9976473900985
670.0 76.88767360280589
690.0 77.2010547195849
710.0 77.72688715405845
730.0 78.14591667095536
750.0 78.42366236309235
775.0 78.62574739004812
800.0 78.6455935075724
825.0 78.61599870797217
850.0 78.53206570692704
875.0 78.52575687650403
900.0 78.65031365912812
925.0 78.75019050517771
950.0 78.58747937683505
975.0 78.32939921328621
1000.0 78.42320353608503
1030.0 79.00722029943553
1060.0 79.92096347218548
1090.0 80.71979531243572
1120.0 81.00220286973156
1150.0 81.02915124409445
1180.0 80.71397535738036
1220.0 80.10648437800178
1250.0 79.56815261565917
1280.0 79.0287880917568
1320.0 78.85661938971887
1360.0 78.82990288481346
1400.0 79.01669764328433
1450.0 79.11600074839937
1500.0 79.03028323899538
1550.0 78.68686989072937
1600.0 78.24114138189888
1650.0 78.06175764312518
1700.0 78.1826288932473
1750.0 78.50450517890195
1800.0 78.87232842886418
1850.0 79.106582119399
1900.0 78.98178610317659
1950.0 78.65996185506887
2000.0 78.50068144121359
2060.0 78.80616309765828
2120.0 79.12898194056945
2180.0 78.80800596000272
2240.0 78.17130243589703
2300.0 78.00103396831085
2360.0 78.33814800620604
2400.0 78.72393143294624
2500.0 78.54541688801557
2580.0 78.2021945436468
2650.0 78.0475945180016
2720.0 77.9917158667756
2800.0 77.78379922911203
2900.0 77.49562299353289
3000.0 77.25101600244834
3070.0 77.17130849866473
3150.0 77.35433443015474
3250.0 77.64748359189905
3350.0 77.84826652516706
3450.0 77.82948455871106
3550.0 77.8363739355637
3650.0 77.98539172103743
3750.0 77.97157346887417
3870.0 78.0398127295269
4000.0 78.06526677753153
4120.0 78.1132787844324
4250.0 78.07825945442823
4370.0 77.98468194940831
4500.0 77.70711923481088
4620.0 77.23738549459644
4750.0 76.80637479787137
4870.0 76.34330499731492
5000.0 75.98663544088902
5150.0 75.96992002823697
5300.0 76.22506406278934
5450.0 76.73739561954598
5600.0 77.32665132391885
5800.0 77.6916783816764
6000.0 77.91470224111055
6150.0 77.79983866761744
6300.0 77.29045583038558
6500.0 76.40931842268793
6700.0 75.91033017824056
6900.0 75.9119755584648
7100.0 76.2721961305444
7300.0 76.91262817595245
7500.0 77.48242154611593
7750.0 77.29601219647886
8000.0 76.52635556043786
8250.0 75.17115178276127
8500.0 74.06595296177896
8750.0 74.07665429273396
9000.0 74.8449737137219
9250.0 75.49206505819697
9500.0 75.57142996476618
9750.0 75.20287962505472
10000.0 74.70700282634112
10300.0 74.66680079460633
10600.0 75.4854307351048
10900.0 76.66279471640254
11200.0 76.91061718626209
11500.0 75.4642698294459
11800.0 73.72160074298904
12200.0 73.64451125981589
12500.0 75.09453935093137
12800.0 75.46222477756884
13200.0 74.48478848876114
13600.0 74.05588769655083
14000.0 75.351848444021
14500.0 76.95079757848698
15000.0 77.25268313016431
15500.0 76.17464858956048
16000.0 74.84287694812582
16500.0 74.03970263734648
17000.0 73.39758711200193
17500.0 72.46895960500882
18000.0 71.3401081429255
18500.0 69.91628020994399
19000.0 70.08840982001512
19500.0 70.76541192737442
