Freq "Sound Power"
22.4 -144.79895386746375
23.0 -143.85100505650837
23.6 -142.5556152979998
24.0 -141.63987040232405
25.0 -140.60928808048845
25.8 -139.78422859585737
26.5 -139.09954475442925
27.2 -138.27796164998938
28.0 -137.31438921710713
29.0 -136.1575331485633
30.0 -135.23396976471753
30.7 -134.36084980205283
31.5 -133.4931683989314
32.5 -132.56351013655495
33.5 -131.63113069780076
34.5 -130.87930238192024
35.5 -130.1638864963972
36.5 -129.38341888414652
37.5 -128.50799779315997
38.7 -127.72192245204751
40.0 -127.13651307844496
41.2 -126.69921478793519
42.5 -126.23493698511702
43.7 -125.7616283515943
45.0 -125.2577834837221
46.2 -124.79934701848929
47.5 -124.46573131787328
48.7 -124.22700986620946
50.0 -124.06539167601271
51.5 -123.83282530691444
53.0 -123.57760163695228
54.5 -123.29417122356368
56.0 -123.09866238636606
58.0 -123.04565430086403
60.0 -123.02699894756562
61.5 -123.03280173339861
63.0 -122.99792874378788
65.0 -122.8884966174471
67.0 -122.81026119952763
69.0 75.32211224802612
71.0 75.35662539920891
73.0 75.41757302310675
75.0 75.53266688696866
77.5 75.60335214033553
80.0 75.64267552565235
82.5 75.65188325447936
85.0 75.62290395296557
87.5 75.51586358706193
90.0 75.24851209188061
92.5 74.92281732418712
95.0 74.8085578197187
97.5 75.06877222744396
100.0 75.6038637239058
103.0 76.01891582616527
106.0 76.15010797726856
109.0 76.14802625100693
112.0 76.26720815295421
115.0 76.45136673560903
118.0 76.63770309320229
122.0 76.79164619078216
125.0 76.9264158150415
128.0 77.00630121742698
132.0 77.05395879435112
136.0 77.10973490744254
140.0 77.15623039166421
145.0 77.2122631410176
150.0 77.25028607564641
155.0 77.2067591735681
160.0 77.04680688990904
165.0 76.84439688565195
170.0 76.72609187641622
175.0 76.69868748895797
180.0 76.75511163314034
185.0 76.82156108524703
190.0 76.86324645067371
195.0 76.8403523925862
200.0 76.76921789836472
206.0 76.68388240974245
212.0 76.61717955305339
218.0 76.61624571539059
224.0 76.68703632883386
230.0 76.78570179287756
236.0 76.84018851158437
240.0 76.79195054969152
250.0 76.57884611426722
258.0 76.21960639138537
265.0 75.90689564089014
272.0 75.78833749560359
280.0 75.36173327560418
290.0 74.75535744885066
300.0 74.02804066761877
307.0 73.09585321954742
315.0 72.27990860998896
325.0 71.84363167864684
335.0 71.77114497729
345.0 72.17559751794154
355.0 72.5434751096172
365.0 72.75457570579114
375.0 72.90053442896749
387.0 73.21845330413987
400.0 73.61984391875735
412.0 73.82305117389625
425.0 73.86007229218998
437.0 73.7987085922146
450.0 73.59411209034138
462.0 73.25229917353799
475.0 72.7581662747326
487.0 72.31169324396488
500.0 72.28159544243742
515.0 72.62466241122878
530.0 72.99320079033835
545.0 73.07958226475444
560.0 72.70716428445483
580.0 72.03111876975667
600.0 71.31423228925925
615.0 70.74496113848379
630.0 70.44400516311494
650.0 70.2598202101241
670.0 70.0945049874267
690.0 70.18983316768171
710.0 70.56222962707709
730.0 70.91224794734829
750.0 71.12793891925786
775.0 71.14482795381089
800.0 71.04748569814616
825.0 70.92791921343043
850.0 70.80647906378364
875.0 70.70097861525026
900.0 70.65090449127548
925.0 70.64980299175753
950.0 70.50846263374751
975.0 70.37304606374012
1000.0 70.50876383002036
1030.0 70.88019505693863
1060.0 71.47178601186017
1090.0 72.03337705810388
1120.0 72.11849755268724
1150.0 71.87259150526998
1180.0 71.20954710145564
1220.0 70.16527960407268
1250.0 69.24601724154161
1280.0 68.50253889079191
1320.0 68.25549500128932
1360.0 68.30736761513565
1400.0 68.62927188796878
1450.0 68.96104931621777
1500.0 69.10901175352781
1550.0 68.95024495275642
1600.0 68.69450611294722
1650.0 68.69729974763034
1700.0 68.98515327173287
1750.0 69.30602653179804
1800.0 69.46975906588727
1850.0 69.43975849198112
1900.0 69.25761127992752
1950.0 69.02237892342123
2000.0 68.99082026189375
2060.0 69.28582783819297
2120.0 69.47810934745245
2180.0 69.00144871317663
2240.0 68.18390804476388
2300.0 67.85251704291547
2360.0 68.17024170270474
2400.0 68.52740416078342
2500.0 68.2916476263838
2580.0 67.89923770329824
2650.0 67.76227961070953
2720.0 67.80003392804562
2800.0 67.6812070736567
2900.0 67.43636029210069
3000.0 67.20511900777011
3070.0 67.08480504880428
3150.0 67.25981926395336
3250.0 67.61623795408883
3350.0 67.89540914848205
3450.0 67.94243130167608
3550.0 67.94810439942977
3650.0 68.0450744218529
3750.0 68.02808988565455
3870.0 68.10993648034912
4000.0 68.15254946255006
4120.0 68.17068024416025
4250.0 68.14398891114806
4370.0 68.02491727758074
4500.0 67.7363217651771
4620.0 67.22060359361801
4750.0 66.75442474798623
4870.0 66.26110102598889
5000.0 65.92676853114689
5150.0 65.92834332391735
5300.0 66.13435780820879
5450.0 66.59507504516579
5600.0 67.10634961661734
5800.0 67.37989664971342
6000.0 67.52794969354333
6150.0 67.38535132201704
6300.0 66.91688775969625
6500.0 66.1799646896381
6700.0 65.83899980424833
6900.0 65.93324247854879
7100.0 66.23270591100216
7300.0 66.80082178632243
7500.0 67.31201322384369
7750.0 67.03928604838688
8000.0 66.24975863127885
8250.0 64.91902128956123
8500.0 63.893372141258155
8750.0 63.993471732563194
9000.0 64.78765128939678
9250.0 65.32603877199159
9500.0 65.19964167719327
9750.0 64.7298747112162
10000.0 64.37658742585653
10300.0 64.50159000442322
10600.0 65.18845456172843
10900.0 66.02101694591461
11200.0 66.07034461996452
11500.0 64.75841420147347
11800.0 63.259601387896836
12200.0 63.29374579045195
12500.0 64.69796240820959
12800.0 65.03734041809028
13200.0 64.08093385424648
13600.0 63.53371796779503
14000.0 64.4175410429268
14500.0 65.71575578159256
15000.0 66.07789400921554
15500.0 65.3335788464844
16000.0 64.2655270898802
16500.0 63.35633749125235
17000.0 62.60283394474378
17500.0 61.80811529279784
18000.0 60.74278137085038
18500.0 59.5904941105684
19000.0 58.704613201043486
19500.0 58.074173328874494
