Freq,Floor Bounce,Ceiling Bounce,Front Wall Bounce,Side Wall Bounce,Rear Wall Bounce,Total Early Reflection
20.5078,48.436093706818056,46.86303814630885,48.18299173403416,47.44746974363757,56.80564964700055,51.577260045397324
21.9727,51.06758731924096,49.28217891061719,50.81513820505246,49.85357068221519,58.30495929461598,53.451064359286974
23.4375,52.963930983461566,51.06557708908066,52.68413640175915,51.64381063868346,59.76856870329861,55.065940754994145
24.9023,55.060482752605665,53.947861404300724,54.79726693031735,54.50077214011294,61.77686868116783,57.25596148381369
26.3672,57.445136034944696,56.31565482133142,57.18612221706108,56.839013671440526,63.16296371554661,59.096671288768775
27.832,59.454268265224826,58.55996792967379,59.22225024457957,59.018935425615425,64.71405668752853,60.93023364840339
29.2969,61.37329738806348,60.55312929194888,61.124081635173596,61.05079234217567,66.22882052515673,62.68266652907927
30.7617,63.3466935161091,62.65425961332217,63.1144314253571,63.08541745560038,67.64399213124189,64.44046785639098
32.2266,65.10383757157776,64.67196686511186,64.9099282707488,65.07231208162392,69.38789593973301,66.26733488348688
33.6914,66.84915143078963,66.40535401859638,66.63280334333147,66.8182603906926,70.72271712608487,67.84387882795191
35.1563,68.57242009374617,68.21319471990948,68.36024145564497,68.62203151955876,72.22243638347068,69.50791468106993
36.6211,70.21623295582789,69.88692145118533,70.00089083516112,70.29666075880961,73.60870323296506,71.06647233185187
38.0859,71.61455603602232,71.38086643866055,71.41263144215101,71.78100708910006,74.93133064474618,72.46923801689887
39.5508,73.10959748913322,72.8951889831363,72.90512573948025,73.28733565003539,76.08416977598691,73.85134382999605
41.0156,74.29796572149658,74.04391110575912,74.08699075350334,74.43498093882135,76.94562931015291,74.91821401837375
42.4805,75.23185847818917,74.98884547317685,75.01627501618516,75.39089887717213,77.78494365790404,75.82719078090095
43.9453,76.21296617601169,75.98043637144346,75.99695521617997,76.37496677170789,78.58224051402297,76.75365545020983
45.4102,76.92258312198493,76.68044375410399,76.70016178817862,77.07870971744022,79.12674646670222,77.40981903916658
46.875,77.45969150794846,77.2035835621544,77.23995699562157,77.5948523837629,79.4721815048791,77.88502615149402
48.3398,77.80463259433519,77.58297303518626,77.57093527338138,77.99759844349876,79.89404431857237,78.26657691189531
51.2695,78.72110345357387,78.47347711610124,78.4809964529258,78.88719140268859,80.48619995725757,79.0803777286813
52.7344,79.01775783212697,78.77906417674745,78.77971549943109,79.18514874042143,80.68220992603821,79.35161915836974
54.1992,79.32041588564717,79.08031588405382,79.08429983941859,79.47956522192563,80.86465908033279,79.62043936911465
55.6641,79.59319265941213,79.35731591341887,79.3559692675353,79.75602501006416,81.07114253203902,79.8769264236255
58.5938,80.14384042085825,79.88661976252807,79.9026916195322,80.28092956186822,81.39386545885456,80.35910554597542
60.0586,80.39610626370512,80.12739166920706,80.15635550448532,80.51748910855186,81.52606524072401,80.57628668142083
62.9883,80.94407954628318,80.66006446925586,80.6966512866726,81.05574888362864,81.95034181395611,81.0876919198208
64.4531,81.13438308774161,80.84091605086326,80.88264702005314,81.24016741232066,82.07796877121086,81.25910867204134
67.3828,81.38685304775652,81.05533006321289,81.12222085377407,81.46782616103616,82.17994950567115,81.46139886354443
68.8477,81.43224764239379,81.07472065462136,81.16262372616515,81.49199196352875,82.12560982285095,81.47351172394791
71.7773,81.7355198350267,81.3839754773396,81.48007051505988,81.7767070157488,82.2600761833831,81.738150817586
74.707,82.04101401467395,81.72025199176583,81.79512841483138,82.0870870902615,82.50444381346612,82.03843729875807
77.6367,81.9450302767551,81.58716847663446,81.68573511697355,81.9720969156113,82.31626426502619,81.90877792899398
79.1016,81.94226888793887,81.57780719497374,81.69163929499292,81.95181967521673,82.20900286846772,81.88013331517199
82.0313,82.18662485154776,81.82470918474819,81.95163145887513,82.1732849359836,82.27631641180844,82.08572370252004
84.9609,82.37047456191885,82.01370608188346,82.13524110254436,82.34847545890705,82.35772125181884,82.24751792349393
87.8906,82.15041841264184,81.73718112138414,81.8644424124594,82.14465318528694,82.30912988499843,82.04616417862661
90.8203,81.28348054909648,81.05671406130097,80.98182200630839,81.56287066090904,82.54090454743216,81.52363225661017
95.2148,82.9548539422028,82.53598267290157,82.74931323146919,82.80626556585814,82.2852059270784,82.67253139926143
98.1445,82.22976334298484,81.79133513304659,81.9688194611798,82.18209182153356,82.0890832489886,82.05507250373417
101.074,82.42244205315497,82.01546709755077,82.18212300327461,82.3418177771432,82.19632949650664,82.23391111951943
105.469,82.44576155948477,82.03806857156842,82.20303993565824,82.37025491531527,82.2536070440933,82.26442280633204
108.398,82.57290478385436,82.09037832258826,82.31728237783446,82.43816983102532,82.19833161899247,82.32676516015198
112.793,82.80007974099054,82.3195721415084,82.55523443858199,82.6339556916233,82.31926850563335,82.52961204975348
117.188,82.78718371755495,82.37300305870437,82.58262651499528,82.63177163038937,82.25888496490153,82.5307703918231
120.117,82.75799500947241,82.45421419816874,82.59184235470276,82.66363398177592,82.32387279790747,82.5610172353693
124.512,82.47440677298839,82.0426026550233,82.26701071573181,82.34537592648006,81.86637907216448,82.20458164691756
128.906,82.144814904566,81.66498094002456,81.90599040056769,81.96317115274452,81.39341697685497,81.82221696849736
133.301,82.0424546682534,81.5616105462151,81.78474887004273,81.8801906878527,81.54386471045459,81.76674663169383
139.16,81.98391732057127,81.48656835857416,81.74377433477021,81.78455743177383,81.55563576317812,81.71448019561002
143.555,81.9603363695756,81.37566861094491,81.71647383072126,81.68915961848364,81.26425648560289,81.60841348921439
147.949,81.92355814800455,81.23739887351644,81.66399674760359,81.58045729991237,81.05701599205166,81.50345467434316
153.809,81.9310122901882,81.20755701419215,81.68970037129819,81.53732385108249,80.77446132627476,81.44637590609388
159.668,82.02112499432546,81.24972436201782,81.77081667165855,81.59885548584387,80.77139954985454,81.50382725304407
165.527,81.92074443334118,81.28882042400977,81.72586671628922,81.56725570481595,80.81761216561004,81.48072053045038
171.387,81.84931887514132,81.236829336826,81.67932906163925,81.51400746561463,80.85272018649131,81.44042434275293
177.246,81.83735135679402,81.1968147609925,81.67328910667302,81.43166262578414,80.70860146641412,81.38724205878273
183.105,81.77550322971497,81.05859098439045,81.62898843725934,81.33419559447346,80.56728090396271,81.29390498381802
188.965,81.89343628717951,81.19484901010794,81.78118527679324,81.41256428707027,80.49180634961996,81.38269668598677
196.289,82.06865265917817,81.53575445542617,82.04501872161642,81.66282325874666,80.61947390592667,81.61702288397233
203.613,81.96592772221695,81.49853954757951,81.98518076359858,81.5317123768157,80.56490042117414,81.5386764735538
210.938,82.15220850082753,81.46572695901423,82.1230186477868,81.5691000638902,80.42075669467383,81.58977944233705
218.262,82.3047496158453,81.58510903344278,82.29067532099387,81.74459609501508,80.57762243533327,81.74456587537911
225.586,82.46597867123755,81.76227598889038,82.51876036125948,81.87652525634971,80.70078631214497,81.9125141444139
232.91,82.7750076962953,82.16979253920525,82.90066812275495,82.2228614178375,80.6908653640777,82.21859006452684
241.699,82.93009079698508,82.29449113390656,83.05237124253044,82.3474124083068,80.83426759633522,82.3591380428637
250.488,83.18507546867795,82.62364068814115,83.37832494961019,82.60496556447352,80.90216109603355,82.62037752801871
259.277,83.36663126922043,83.01384130647872,83.63784284192103,82.9078931759407,81.18676796306873,82.90088180084597
268.066,83.06576140072659,82.88303134045238,83.41875002690888,82.6458289601974,80.98706710687819,82.67610971839909
276.855,83.060638872318,83.28966111318381,83.603919522796,82.77837740043982,80.83223314225303,82.8132202345508
287.109,82.84455188289944,83.34845066002362,83.50925627496241,82.68991225061728,80.70320986380393,82.72495406184942
297.363,82.48187529176771,83.21505243710787,83.35064765596742,82.4393037626403,80.48486127436756,82.50526273572883
307.617,82.85795106928246,83.33279079139164,83.56457140721542,82.8489706627103,80.68839493236521,82.7675162082577
319.336,82.4826461523156,83.1098860759747,83.30396309083186,82.36761401103708,80.30181016332645,82.4325383765382
329.59,82.62894582911271,82.98493938194552,83.2972667109844,82.48010419277797,80.11645645853052,82.4324502169283
341.309,81.97193727149244,82.4867963506007,82.64668518871359,81.81108040969528,80.06108309310092,81.88564365519593
353.027,81.95882934941591,82.39593415672442,82.76933443265766,81.70987372818215,79.27796744575514,81.776792508725
366.211,82.13388066817227,82.56481269345863,82.99656101711837,81.99072732626352,78.799965758795,81.91635210477497
379.395,82.31108310459024,82.59702530106271,82.99464499065675,82.30832759125323,79.40719852715354,82.0885788241181
392.578,81.85453841173829,81.79722885120259,82.37204747916455,81.75646166918229,79.30046173050967,81.53609270092784
405.762,81.46114855038186,82.19885039144027,82.5619101858022,81.39326837485696,78.71019970801707,81.45147641388166
420.41,81.99440651279694,82.48518830073057,82.84394074688406,82.07469207943227,78.58393764993147,81.82646514976973
435.059,81.64704171178673,81.99198748648496,82.51556010149208,81.79623393293392,78.83449641858272,81.52575240280773
451.172,81.99994404888868,81.76221915413616,82.75896868880146,82.104111474942,78.66201887561708,81.66197289078414
465.82,81.62567713069875,81.50044877339649,82.41029670058973,81.68207707672296,78.55738949050529,81.3347505252616
483.398,81.41154665503434,81.12441327831944,82.60251338479209,81.00292760168192,78.1210953528083,81.07813323683528
499.512,81.96799948944788,81.75164684549839,83.27244556125835,80.95554172269202,77.76725015245441,81.48518627708714
517.09,81.70311687581973,81.58782644487206,82.73020840205066,80.78678207897546,78.09711560037866,81.23229794878519
536.133,81.92426131698633,81.10392204215538,82.85955741145764,80.98831552971933,78.17813265126009,81.26559710431418
555.176,82.26438571423144,81.75211510540942,83.06377682714424,81.70480311301681,77.50197308705971,81.61335650123769
574.219,82.49806386919794,81.46453397546492,83.08879497876522,81.89789865709803,78.13934982518556,81.71118380941344
594.727,82.27656916652315,81.1405368333848,82.73882701610165,81.13479485964663,78.6570012972824,81.39933511502666
615.234,82.7947658523954,81.48020567832913,83.33489812987824,81.15347086149986,77.76477531266943,81.68284799941857
637.207,82.95735215954865,80.9895832277788,83.6995345812019,81.5372991471481,78.09639647248363,81.84435418491027
659.18,83.60803907691474,81.7034677307691,84.0520099639766,81.91078715593461,77.62496047881282,82.2783407787786
682.617,83.36916993187954,81.35344554578423,83.926942515257,81.44294842745914,78.19085384831081,82.07437407130837
707.52,83.80301209596179,81.2545768884656,84.35168158873574,81.62202063616199,77.54538999648379,82.29436977477522
732.422,84.12646534983112,80.3806791399572,84.11836326731849,81.58330335523263,77.24196555404352,82.16366612784643
757.324,83.71019086305067,80.28081414215943,83.77088099093451,81.05957247168791,77.07623912377831,81.81026301465829
785.156,83.53841945000947,79.63367887197812,83.749416332929,81.59975435955556,76.17953690549551,81.70792363812002
811.523,83.88696872213319,79.58558432011169,84.11330400878408,81.00680018777213,76.86386226535828,81.8646152246741
840.82,84.07530144139263,80.35197471298854,83.894311281681,81.22517193968095,75.69977969234158,81.9252122412978
870.117,84.1684773254063,80.16983516169797,83.77477710478361,81.33524659264413,75.84790925374882,81.92033584908971
900.879,84.37588239353383,79.86847392462504,83.88774965292934,81.3048890371827,75.86052957719653,81.9826920014545
933.105,84.5756844307824,80.59128275222069,83.95469932182303,81.47269802926135,76.10767843198771,82.20703591442063
965.332,84.72851574976148,81.25576057735822,83.48824746881577,81.28180858490119,75.78007903440898,82.18030381563737
1000.49,84.95713543008495,80.7276444139192,83.48905545310036,81.18735994722421,75.60936777091479,82.16165579562052
1035.64,85.07103907656501,80.4339874073788,83.12824342185391,80.61660004340244,74.41646773376713,81.93325070332125
1072.27,84.86373685287485,80.78651256196999,82.7527364875909,79.66617134500457,74.2385248811826,81.66687923027072
1108.89,85.07894659497559,81.24425634612135,82.38109224311043,79.12320796327197,73.41431668547115,81.65480696588013
1148.44,84.74762436853825,81.5835781595143,82.24872144978218,78.75818590590494,73.2055082658671,81.49991417679409
1189.45,84.56500330084816,81.04969650028472,82.40566774424916,78.77235596388584,73.3187400848393,81.36267266065899
1230.47,85.0612282880934,81.19088072441338,83.40129843599865,79.12820985217208,73.12164904181971,81.894569195633
1274.41,85.21945035966144,81.8974937920825,83.65126467844355,79.54006117188807,73.86880722706363,82.21956004123227
1319.82,85.51133705702328,81.78263923872733,83.63279069218163,79.74083720630018,73.60675320596864,82.3272557205617
1366.7,85.21097695833214,83.16812475005268,83.6336105920638,79.48884873951882,73.58098760967887,82.46470330695627
1413.57,85.16741303827173,82.87005642299793,83.29531073832595,79.64340602579551,73.31804038682998,82.30168732458698
1463.38,85.47042852668534,82.36103758596589,84.12052746923045,79.70050083232505,73.36232439387965,82.5426564051851
1516.11,84.90886648509958,82.34926553337986,84.16345407015139,79.67479185235963,72.78895536305889,82.32506738250376
1568.85,83.76696171913946,81.95415037217357,84.49452555949968,80.07864604270081,72.44091745766566,82.0180303822899
1624.51,83.2723983032393,80.84518700686924,84.62356621071788,79.58628510740859,72.17329134566556,81.65128920093545
1681.64,82.70776492990942,81.30414726561406,83.24409929628531,78.70844134721028,71.27471291126163,80.93642710439947
1741.7,81.95795332267312,81.24178524391418,83.63775947426758,78.58762184922277,71.05970020196487,80.83610525227577
1803.22,81.9315927731353,80.96607530143562,84.33860431779745,78.97245126682601,71.1890112489137,81.10294608461707
1866.21,81.53709474988848,81.30723902778425,84.64155706844207,78.80749120488598,71.11682594979325,81.19047312513034
1932.13,81.710019211601,81.14652829591547,84.12106865254027,78.798246588451,71.17551139434948,80.9738931970682
1999.51,81.36994373980431,80.76659579428797,83.9519681656921,79.15537042702358,70.67455880153939,80.78329107799415
2069.82,80.01168532743428,80.61778831856144,85.17606160076002,79.748230459638,71.47491388671519,81.16128438230896
2143.07,80.70908367788347,79.16510333421203,84.5833186640515,79.72282993020592,71.07975627389747,80.74950859588122
2219.24,80.36301650924281,79.54674897670759,83.61491342726525,78.86448499374391,70.68973217066419,80.148532571377
2296.88,79.85281381986037,79.6474669883828,83.62001063084026,79.11016467163105,70.51474442560583,80.10085855785957
2378.91,80.876490079259,81.29639159218587,84.36049491818687,80.0988024364522,70.40264484720478,81.09476199557315
2462.4,80.90673704756234,80.31332801116488,83.60848906410192,79.83128047379343,69.7565896853723,80.53753318080526
2548.83,81.308798996891,80.56803278656783,82.95220975446664,79.33218121909688,69.64660669724564,80.34589331575661
2639.65,81.5705427907782,80.46522314565274,83.0815635177455,79.4717459429314,69.85476407466778,80.46417888805648
2731.93,81.75240847125559,79.80693431342566,82.72050135923367,79.17832645368621,69.25817483754047,80.20063109264615
2828.61,81.57654740458466,78.67967719529547,81.96862864032116,78.62901552969927,68.76426604761997,79.59377134348668
2928.22,81.30708886574196,77.92819198593786,81.60745745455073,78.38863784663552,68.32831113902807,79.21975033083905
3030.76,81.07698020567491,78.3247655971226,81.23422239733215,78.23979649862348,67.80047473005988,79.04943967990343
3137.7,81.18832902927227,78.63202194963041,81.1810290473448,78.36638885602812,67.95720276264302,79.1444908339813
3249.02,81.63498872630572,78.46961352760084,80.88393205494997,78.32932441539411,67.74381808876929,79.16560491651119
3363.28,81.669059641366,78.84111515077682,80.83925302357592,78.13177293746521,67.13487308287544,79.19044226699039
3481.93,81.43452544270964,79.02353842544483,80.64764443019267,77.98299242206993,66.40451525227719,79.05585851557161
3604.98,80.34009011351482,79.03072852075442,81.1462064739609,77.98918791544058,65.97904551586355,78.86768288892273
3732.42,80.10049785347736,78.78660688862225,80.83616571470235,77.72206028598625,65.28382700716843,78.59447056164623
3864.26,80.14843354660269,78.73208630609788,81.2580393222482,77.62782271900814,65.03787682939358,78.7257655842021
4000.49,79.42661882273036,78.4705616940555,81.45753384598743,77.0536629105479,64.9133360760042,78.47164185442205
4141.11,79.05444750333287,77.75184280853497,81.94876097849557,77.01524830077058,64.0539849513802,78.44471159642514
4287.6,79.47673337118907,76.97723305670738,82.12199951362055,76.76178564897937,64.10855703713705,78.46991614518234
4438.48,79.97504374949355,76.23170374865235,82.10207903478651,76.02851580040951,63.76019630230182,78.40266687160023
4595.21,79.71169827086543,75.0392983258481,80.81148607477114,75.52159476290747,63.293833656534915,77.54081168626819
4756.35,79.58327576820169,74.72112535529418,80.505437397227,75.08357183250091,62.7520511734232,77.27493581168349
4924.8,78.82748796356711,75.91268095242492,80.06339115467664,74.97772641481554,63.7876678546272,77.00151529675169
5097.66,79.74620754583087,77.15661834963332,80.14633107040329,76.07014178544853,63.31749819650457,77.66881272268397
5277.83,80.58109421007656,77.79440686758768,80.73315660645086,76.13462145625884,63.626159830768,78.27697463294736
5463.87,80.69703828536068,77.95951496968236,80.7416880730563,76.3076932301941,63.35925380915687,78.36885723248763
5657.23,80.89991298053955,78.11062470777594,80.91701260020852,76.31509776903208,62.568886064645454,78.52322538536397
5856.45,80.53968540822605,78.08295344001284,81.65415604152794,76.3548001237444,63.23209757553066,78.68299286325663
6062.99,80.52059223838368,77.7452330127387,81.69465312820759,76.71033035038938,62.94457913739889,78.67844107443784
6276.86,81.33441100341524,76.9196281559689,81.78792262733653,77.08824264041237,63.496679078707174,78.91525648288588
6498.05,80.8120104163644,76.59615155583776,81.53074631080426,76.82155361610852,62.51578620085196,78.55362780891757
6726.56,80.73241147444013,75.73619518837147,81.5222703054942,76.77293873984446,62.3528327787313,78.41483368576498
6963.87,80.86434912505011,75.43088258623173,81.0850189591279,76.45579988027376,61.0505343567164,78.2061292175099
7209.96,80.48422924564296,75.6113325650811,80.66900749134906,75.89960980736005,60.167586425652146,77.85034232643149
7464.84,79.84570784774026,75.6776670281283,79.89089465448012,75.14386745367561,59.70184761729264,77.23641497095673
7727.05,79.42505326549076,76.1410613609262,79.39842199168827,74.53144471468177,59.37178779437788,76.90273966417446
7999.51,78.6003494990036,76.49186202518304,78.80183673692241,74.59748081720313,60.02888149965226,76.48856037183629
8282.23,78.60870869202584,76.91399776355895,79.2136451237646,75.33772935815146,60.878483458330535,76.82266742792139
8573.73,79.15299765413559,77.3558596867868,80.02379737457731,75.75481721535913,60.57011425107815,77.41930595033732
8876.95,79.99280769038515,77.16446601665929,80.39893685659646,75.66715827171103,59.63345260905301,77.77138594517236
9188.96,80.23082560560684,76.60351122984478,81.24466208288106,75.18898135285109,58.319842342177836,78.03595372112949
9514.16,79.67161984732796,75.9615658151159,81.48959946444403,75.07644589563729,58.305715268430575,77.86687135595507
9849.61,79.00814660352064,75.12572160975398,81.51549205514615,75.17663904515963,58.250989085043344,77.59661881618118
