Freq "Total Early Reflection"
20.5078 52.41766004539733
21.9727 54.29146435928698
23.4375 55.90634075499415
24.9023 58.096361483813695
26.3672 59.93707128876878
27.832 61.77063364840339
29.2969 63.52306652907927
30.7617 65.28086785639098
32.2266 67.10773488348688
33.6914 68.68427882795191
35.1563 70.34831468106994
36.6211 71.90687233185187
38.0859 73.30963801689887
39.5508 74.69174382999606
41.0156 75.75861401837375
42.4805 76.66759078090095
43.9453 77.59405545020984
45.4102 78.25021903916658
46.875 78.72542615149402
48.3398 79.10697691189532
51.2695 79.9207777286813
52.7344 80.19201915836975
54.1992 80.46083936911465
55.6641 80.71732642362551
58.5938 81.19950554597543
60.0586 81.41668668142083
62.9883 81.9280919198208
64.4531 82.09950867204134
67.3828 82.30179886354443
68.8477 82.31391172394791
71.7773 82.578550817586
74.707 82.87883729875807
77.6367 82.74917792899399
79.1016 82.72053331517199
82.0313 82.92612370252004
84.9609 83.08791792349393
87.8906 82.88656417862661
90.8203 82.36403225661017
95.2148 83.51293139926143
98.1445 82.89547250373417
101.074 83.07431111951944
105.469 83.10482280633204
108.398 83.16716516015198
112.793 83.37001204975348
117.188 83.3711703918231
120.117 83.40141723536931
124.512 83.04498164691756
128.906 82.66261696849736
133.301 82.60714663169384
139.16 82.55488019561002
143.555 82.44881348921439
147.949 82.34385467434316
153.809 82.28677590609388
159.668 82.34422725304407
165.527 82.32112053045039
171.387 82.28082434275294
177.246 82.22764205878273
183.105 82.13430498381803
188.965 82.22309668598677
196.289 82.45742288397233
203.613 82.37907647355381
210.938 82.43017944233705
218.262 82.58496587537911
225.586 82.75291414441391
232.91 83.05899006452684
241.699 83.19953804286371
250.488 83.46077752801871
259.277 83.74128180084597
268.066 83.51650971839909
276.855 83.6536202345508
287.109 83.56535406184942
297.363 83.34566273572884
307.617 83.6079162082577
319.336 83.2729383765382
329.59 83.2728502169283
341.309 82.72604365519594
353.027 82.617192508725
366.211 82.75675210477498
379.395 82.9289788241181
392.578 82.37649270092784
405.762 82.29187641388167
420.41 82.66686514976973
435.059 82.36615240280773
451.172 82.50237289078414
465.82 82.1751505252616
483.398 81.91853323683529
499.512 82.32558627708714
517.09 82.07269794878519
536.133 82.10599710431418
555.176 82.45375650123769
574.219 82.55158380941344
594.727 82.23973511502666
615.234 82.52324799941857
637.207 82.68475418491028
659.18 83.1187407787786
682.617 82.91477407130837
707.52 83.13476977477522
732.422 83.00406612784643
757.324 82.65066301465829
785.156 82.54832363812002
811.523 82.7050152246741
840.82 82.7656122412978
870.117 82.76073584908971
900.879 82.8230920014545
933.105 83.04743591442063
965.332 83.02070381563738
1000.49 83.00205579562052
1035.64 82.77365070332125
1072.27 82.50727923027073
1108.89 82.49520696588013
1148.44 82.3403141767941
1189.45 82.20307266065899
1230.47 82.734969195633
1274.41 83.05996004123227
1319.82 83.1676557205617
1366.7 83.30510330695627
1413.57 83.14208732458698
1463.38 83.3830564051851
1516.11 83.16546738250376
1568.85 82.8584303822899
1624.51 82.49168920093545
1681.64 81.77682710439947
1741.7 81.67650525227577
1803.22 81.94334608461708
1866.21 82.03087312513034
1932.13 81.8142931970682
1999.51 81.62369107799415
2069.82 82.00168438230897
2143.07 81.58990859588123
2219.24 80.988932571377
2296.88 80.94125855785957
2378.91 81.93516199557315
2462.4 81.37793318080526
2548.83 81.18629331575661
2639.65 81.30457888805648
2731.93 81.04103109264615
2828.61 80.43417134348668
2928.22 80.06015033083905
3030.76 79.88983967990343
3137.7 79.9848908339813
3249.02 80.00600491651119
3363.28 80.03084226699039
3481.93 79.89625851557162
3604.98 79.70808288892273
3732.42 79.43487056164624
3864.26 79.5661655842021
4000.49 79.31204185442205
4141.11 79.28511159642514
4287.6 79.31031614518234
4438.48 79.24306687160023
4595.21 78.38121168626819
4756.35 78.1153358116835
4924.8 77.8419152967517
5097.66 78.50921272268397
5277.83 79.11737463294736
5463.87 79.20925723248763
5657.23 79.36362538536397
5856.45 79.52339286325663
6062.99 79.51884107443784
6276.86 79.75565648288588
6498.05 79.39402780891757
6726.56 79.25523368576498
6963.87 79.0465292175099
7209.96 78.69074232643149
7464.84 78.07681497095673
7727.05 77.74313966417446
7999.51 77.32896037183629
8282.23 77.66306742792139
8573.73 78.25970595033732
8876.95 78.61178594517236
9188.96 78.87635372112949
9514.16 78.70727135595507
9849.61 78.43701881618118
10196.8 78.1372527745974
10555.7 78.40455950367283
10927.7 79.04961067440233
11313.0 78.89397466922496
11712.9 78.69172969019768
12126.0 78.22033565169409
12553.7 77.9231257674781
12996.1 77.30105306078865
13454.6 76.9917796315491
13929.2 76.43969475453513
14419.9 75.95437629670614
14928.2 75.97763119847151
15455.6 75.96239013904506
16000.5 75.50446174181333
16564.5 75.37699319369386
17148.9 76.3439833981974
17752.4 76.41967822542185
18379.4 76.06076501742001
19026.9 74.97121565770452
19697.8 73.69470302494801
19999.5 73.44166511149771
