Freq "On Axis"
20.5078 54.86710000000001
21.9727 56.55319999999999
23.4375 59.78269999999999
24.9023 63.640100000000004
26.3672 65.4508
27.832 68.0477
29.2969 70.1403
30.7617 72.0441
32.2266 73.6948
33.6914 75.10950000000001
35.1562 76.3179
36.6211 77.3172
38.0859 78.17630000000001
39.5508 78.9028
41.0156 79.49809999999998
42.4805 79.9966
43.9453 80.4363
45.4102 80.7973
46.875 81.05299999999998
48.3398 81.273
51.2695 81.675
52.7344 81.8004
54.1992 81.8622
55.6641 81.95959999999998
58.5938 82.18730000000001
60.0586 82.255
62.9883 82.3468
64.4531 82.4144
67.3828 82.46490000000001
68.8477 82.49059999999999
71.7773 82.5639
74.707 82.2968
77.6367 82.5852
79.1016 82.5012
82.0312 82.4471
84.9609 82.3058
87.8906 82.1707
90.8203 82.55
95.2148 82.5604
98.1445 82.5073
101.074 82.5359
105.469 82.5194
108.398 82.51029999999999
112.793 82.25149999999998
117.188 82.1874
120.117 82.49220000000001
124.512 82.49220000000001
128.906 82.318
133.301 82.3902
139.16 82.5568
143.555 82.7471
147.949 83.1288
153.809 83.1134
159.668 82.6649
165.527 82.96230000000001
171.387 83.15769999999999
177.246 83.04290000000002
183.105 82.7464
188.965 82.7851
196.289 82.62740000000001
203.613 82.3931
210.938 81.9841
218.262 81.9222
225.586 81.7529
232.91 81.7189
241.699 82.6297
250.488 84.4851
259.277 83.5729
268.066 83.7196
276.855 83.34659999999998
287.109 82.8985
297.363 83.3127
307.617 82.8507
319.336 84.1039
329.59 83.3401
341.309 82.33389999999999
353.027 81.39040000000001
366.211 81.32699999999998
379.395 83.01560000000002
392.578 83.7123
405.762 83.26360000000001
420.41 83.015
435.059 81.6658
451.172 81.12149999999998
465.82 83.01780000000001
483.398 82.9132
499.512 82.8581
517.09 82.5078
536.133 83.0727
555.176 83.5671
574.219 82.3941
594.727 81.9333
615.234 81.73650000000002
637.207 83.05649999999999
659.18 83.76640000000002
682.617 82.1863
707.52 82.42640000000002
732.422 82.74849999999999
757.324 83.0065
785.156 82.7918
811.523 80.85000000000001
840.82 82.51789999999998
870.117 82.4459
900.879 81.7039
933.105 81.73439999999998
965.332 81.9092
1000.49 82.8366
1035.64 82.67890000000001
1072.27 83.7659
1108.89 83.6814
1148.44 82.76279999999998
1189.45 82.3795
1230.47 82.82440000000001
1274.41 82.0879
1319.82 83.1118
1366.7 83.1043
1413.57 82.9613
1463.38 82.7265
1516.11 82.32610000000001
1568.85 81.7461
1624.51 82.2658
1681.64 82.7954
1741.7 83.257
1803.22 82.9769
1866.21 82.5293
1932.13 82.0632
1999.51 82.8357
2069.82 82.7361
2143.07 81.7751
2219.24 81.80919999999999
2296.88 81.9004
2378.91 81.7445
2462.4 81.0062
2548.83 81.204
2639.65 81.8868
2731.93 82.8063
2828.61 82.9338
2928.22 82.1057
3030.76 83.0441
3137.7 82.5288
3249.02 81.6045
3363.28 82.5621
3481.93 82.7007
3604.98 82.4704
3732.42 83.0683
3864.26 82.2554
4000.49 82.9861
4141.11 82.2828
4287.6 82.20300000000002
4438.48 82.7396
4595.21 81.94929999999998
4756.35 82.30659999999999
4924.8 82.0972
5097.66 82.2783
5277.83 82.3672
5463.87 82.49239999999999
5657.23 82.7782
5856.45 82.4568
6062.99 82.8158
6276.86 82.8814
6498.05 82.89200000000001
6726.56 83.4446
6963.87 83.4243
7209.96 83.1377
7464.84 83.1368
7727.05 82.6905
7999.51 83.6805
8282.23 84.12680000000002
8573.73 83.2192
8876.95 83.2124
9188.96 83.1345
9514.16 83.08
9849.61 83.3308
10196.8 83.3422
10555.7 83.3154
10927.7 84.0067
11313.0 84.4789
11712.9 84.1685
12126.0 84.058
12553.7 84.1387
12996.1 84.2036
13454.6 84.80550000000001
13929.2 85.2714
14419.9 85.0225
14928.2 85.1264
15455.6 85.33830000000002
16000.5 86.0926
16564.5 86.6434
17148.9 86.97420000000001
17752.4 86.9446
18379.4 86.6482
19026.9 85.1669
19697.8 83.1813
19999.5 81.8849
