Freq "On Axis"
22.4 29.179746835443026
23.0 30.979746835443038
23.6 32.47974683544304
24.0 33.57974683544303
25.0 34.77974683544305
25.8 36.27974683544305
26.5 37.47974683544304
27.2 38.57974683544303
28.0 39.67974683544303
29.0 41.07974683544303
30.0 42.57974683544303
30.7 43.47974683544304
31.5 44.57974683544303
32.5 45.77974683544305
33.5 46.97974683544304
34.5 48.47974683544304
35.5 49.37974683544304
36.5 50.37974683544304
37.5 51.67974683544303
38.7 52.77974683544302
40.0 53.57974683544303
41.2 54.57974683544303
42.5 55.67974683544303
43.7 56.57974683544303
45.0 57.17974683544303
46.2 58.17974683544303
47.5 58.87974683544304
48.7 59.57974683544303
50.0 60.27974683544302
51.5 60.779746835443035
53.0 61.37974683544304
54.5 61.87974683544304
56.0 62.279746835443035
58.0 62.77974683544302
60.0 63.07974683544303
61.5 63.37974683544304
63.0 63.67974683544303
65.0 63.97974683544304
67.0 64.27974683544304
69.0 64.37974683544303
71.0 64.57974683544303
73.0 64.77974683544304
75.0 64.87974683544304
77.5 64.87974683544304
80.0 64.97974683544304
82.5 64.97974683544304
85.0 64.87974683544304
87.5 64.87974683544304
90.0 64.87974683544304
92.5 64.87974683544304
95.0 64.87974683544304
97.5 64.97974683544304
100.0 65.17974683544305
103.0 65.47974683544304
106.0 65.87974683544303
109.0 66.37974683544302
112.0 66.97974683544304
115.0 67.37974683544304
118.0 67.77974683544302
122.0 68.17974683544304
125.0 68.47974683544304
128.0 68.97974683544304
132.0 69.37974683544303
136.0 69.77974683544304
140.0 70.07974683544303
145.0 70.17974683544305
150.0 70.17974683544305
155.0 70.07974683544303
160.0 69.97974683544304
165.0 69.87974683544304
170.0 69.77974683544304
175.0 69.87974683544304
180.0 69.97974683544304
185.0 69.97974683544304
190.0 69.97974683544304
195.0 69.97974683544304
200.0 70.07974683544303
206.0 70.17974683544305
212.0 70.17974683544305
218.0 70.27974683544302
224.0 70.77974683544304
230.0 71.37974683544302
236.0 71.87974683544303
240.0 72.17974683544304
250.0 72.17974683544304
258.0 72.17974683544304
265.0 72.27974683544304
272.0 72.27974683544304
280.0 72.37974683544304
290.0 72.37974683544304
300.0 72.37974683544304
307.0 72.37974683544304
315.0 72.37974683544304
325.0 72.27974683544304
335.0 72.07974683544303
345.0 71.87974683544303
355.0 71.67974683544303
365.0 71.47974683544304
375.0 71.27974683544305
387.0 71.17974683544304
400.0 71.07974683544303
412.0 71.07974683544303
425.0 71.17974683544304
437.0 71.27974683544305
450.0 71.47974683544304
462.0 71.67974683544303
475.0 71.77974683544304
487.0 71.87974683544303
500.0 71.87974683544303
515.0 71.87974683544303
530.0 71.67974683544303
545.0 71.47974683544304
560.0 71.17974683544304
580.0 70.77974683544304
600.0 70.27974683544302
615.0 69.77974683544304
630.0 69.27974683544304
650.0 68.87974683544302
670.0 68.67974683544304
690.0 68.77974683544305
710.0 69.07974683544303
730.0 69.47974683544304
750.0 69.77974683544304
775.0 69.97974683544304
800.0 70.07974683544303
825.0 70.17974683544305
850.0 70.27974683544302
875.0 70.27974683544302
900.0 70.17974683544305
925.0 70.07974683544303
950.0 70.07974683544303
975.0 70.17974683544305
1000.0 70.37974683544303
1030.0 70.47974683544304
1060.0 70.67974683544304
1090.0 70.77974683544304
1120.0 70.97974683544304
1150.0 71.07974683544303
1180.0 71.17974683544304
1220.0 71.37974683544302
1250.0 71.57974683544303
1280.0 71.77974683544304
1320.0 71.77974683544304
1360.0 71.77974683544304
1400.0 71.77974683544304
1450.0 71.67974683544303
1500.0 71.67974683544303
1550.0 71.47974683544304
1600.0 71.07974683544303
1650.0 70.67974683544304
1700.0 70.37974683544303
1750.0 70.17974683544305
1800.0 69.87974683544304
1850.0 69.67974683544304
1900.0 69.47974683544304
1950.0 69.37974683544303
2000.0 69.37974683544303
2060.0 69.47974683544304
2120.0 69.47974683544304
2180.0 69.47974683544304
2240.0 69.37974683544303
2300.0 69.47974683544304
2360.0 69.57974683544303
2400.0 69.67974683544304
2500.0 69.67974683544304
2580.0 69.57974683544303
2650.0 69.57974683544303
2720.0 69.57974683544303
2800.0 69.67974683544304
2900.0 69.77974683544304
3000.0 69.67974683544304
3070.0 69.57974683544303
3150.0 69.37974683544303
3250.0 69.47974683544304
3350.0 69.57974683544303
3450.0 69.57974683544303
3550.0 69.57974683544303
3650.0 69.47974683544304
3750.0 69.37974683544303
3870.0 69.37974683544303
4000.0 69.47974683544304
4120.0 69.57974683544303
4250.0 69.47974683544304
4370.0 69.37974683544303
4500.0 69.17974683544303
4620.0 69.17974683544303
4750.0 69.37974683544303
4870.0 69.37974683544303
5000.0 69.17974683544303
5150.0 69.07974683544303
5300.0 69.17974683544303
5450.0 69.17974683544303
5600.0 69.27974683544304
5800.0 69.47974683544304
6000.0 69.67974683544304
6150.0 69.87974683544304
6300.0 69.87974683544304
6500.0 69.57974683544303
6700.0 69.17974683544303
6900.0 68.97974683544304
7100.0 68.77974683544305
7300.0 68.47974683544304
7500.0 68.37974683544303
7750.0 68.27974683544304
8000.0 68.27974683544304
8250.0 68.67974683544304
8500.0 69.17974683544303
8750.0 69.37974683544303
9000.0 69.77974683544304
9250.0 69.77974683544304
9500.0 69.37974683544303
9750.0 68.87974683544302
10000.0 68.57974683544303
10300.0 68.17974683544304
10600.0 67.77974683544302
10900.0 67.47974683544304
11200.0 66.97974683544304
11500.0 66.67974683544303
11800.0 66.97974683544304
12200.0 67.27974683544304
12500.0 68.07974683544303
12800.0 68.97974683544304
13200.0 69.87974683544304
13600.0 69.97974683544304
14000.0 70.07974683544303
14500.0 69.97974683544304
15000.0 69.87974683544304
15500.0 69.67974683544304
16000.0 68.77974683544305
16500.0 67.57974683544303
17000.0 65.87974683544303
17500.0 65.37974683544303
18000.0 64.87974683544304
18500.0 64.37974683544303
19000.0 64.07974683544303
19500.0 64.87974683544304
