Freq "Sound Power"
22.4 30.550038063305827
23.0 31.200802691577813
23.6 31.825224565189295
24.0 32.48744136418514
25.0 33.1156716463914
25.8 33.750336835063045
26.5 34.340010892996894
27.2 34.93687041695909
28.0 35.509997894875276
29.0 36.09272444806614
30.0 36.64901636627868
30.7 37.18326783512202
31.5 37.72993169633644
32.5 38.254556523130695
33.5 38.78341887317307
34.5 39.287304683373854
35.5 39.787841621730756
36.5 40.30171521703107
37.5 40.80730649076134
38.7 41.30628366335409
40.0 41.78532473568978
41.2 42.260470180232495
42.5 42.7513434362397
43.7 43.212095848103424
45.0 43.6637335541479
46.2 44.117143397033736
47.5 44.58061138590997
48.7 45.016934251951604
50.0 45.45460838567815
51.5 45.89729668059447
53.0 46.3295891991386
54.5 46.75582497840313
56.0 47.18471281825827
58.0 47.618400288026685
60.0 48.026535137422094
61.5 48.440847762371014
63.0 48.83229382203964
65.0 49.25716534248591
67.0 49.66200751703138
69.0 50.064617693883456
71.0 50.47008210795665
73.0 50.84179635973326
75.0 51.25969619112849
77.5 51.64533448911758
80.0 52.01065969990568
82.5 52.39561632655833
85.0 52.79381139923397
87.5 53.16873798925112
90.0 53.55331680542216
92.5 53.92517708461657
95.0 54.30420805968698
97.5 54.675545777507686
100.0 55.04742371115682
103.0 55.41218881813682
106.0 55.787041729782295
109.0 56.16717670607567
112.0 56.53942519129355
115.0 56.90677802438683
118.0 57.27312569339244
122.0 57.61829961655817
125.0 57.974229704325815
128.0 58.31299049335217
132.0 58.63860649374042
136.0 58.9496250499818
140.0 59.25689627204974
145.0 59.531029525961564
150.0 59.76924279481441
155.0 60.005548315278325
160.0 60.187364002468165
165.0 60.352425057918815
170.0 60.518817624326594
175.0 60.654565884840586
180.0 60.83971423417872
185.0 61.0260849790946
190.0 61.19052652919577
195.0 61.36851518601551
200.0 61.476102593989545
206.0 61.55534315985363
212.0 61.54668908865977
218.0 61.47605647377136
224.0 61.33344871051211
230.0 61.22283062765819
236.0 61.148190932081214
240.0 61.093062730350105
250.0 60.90898946335604
258.0 60.545592261437484
265.0 60.20851908986723
272.0 60.10977346353675
280.0 60.191902301444294
290.0 60.28148119584073
300.0 60.40805429391704
307.0 60.6344115186918
315.0 60.71986887140543
325.0 60.556335711008934
335.0 60.238897987194655
345.0 59.761954123011414
355.0 59.21728735720793
365.0 59.23145831810704
375.0 59.872226391810095
387.0 60.07553920178163
400.0 59.588882677371366
412.0 58.90331624032749
425.0 58.67441936749693
437.0 59.159495629534625
450.0 59.284465554751016
462.0 59.06429283875202
475.0 59.61341338745729
487.0 60.20006039307628
500.0 60.145089315732996
515.0 59.74815923619416
530.0 59.53910864793816
545.0 59.058030783162515
560.0 58.20576230280741
580.0 58.550414559637936
600.0 58.80694618324694
615.0 58.5686797446561
630.0 58.08559164272052
650.0 57.9844887575123
670.0 58.03764064806813
690.0 58.25913289798961
710.0 58.19399001688637
730.0 58.298524207669736
750.0 57.917942122443016
775.0 58.30290030889439
800.0 58.19582368908005
825.0 58.26381475731264
850.0 57.93411073575211
875.0 60.93777147891178
900.0 61.742812646503715
925.0 62.46892902077713
950.0 62.567371344448496
975.0 61.3648072493197
1000.0 60.40443579353718
1030.0 60.772510409302676
1060.0 61.145921001277024
1090.0 60.495816221900576
1120.0 60.103118766410496
1150.0 59.6176071307405
1180.0 58.56165138175809
1220.0 58.00679879381452
1250.0 57.492531252671164
1280.0 56.357902937469895
1320.0 56.03629643486956
1360.0 55.78963960293304
1400.0 55.91515675235285
1450.0 56.12064507803343
1500.0 57.64966901644696
1550.0 57.95049285025282
1600.0 56.529943321088176
1650.0 55.87640501713218
1700.0 54.99788957811328
1750.0 56.15328704907353
1800.0 56.87520098721762
1850.0 57.28105541438803
1900.0 57.73983307767076
1950.0 59.56032985279881
2000.0 58.77261628197271
2060.0 57.68530318329855
2120.0 56.15184720478501
2180.0 55.672729742129825
2240.0 56.53573396845763
2300.0 56.9912657826927
2360.0 57.27288252180498
2400.0 57.31913736941086
2500.0 57.59743036181299
2580.0 58.33425128801455
2650.0 59.077108600510094
2720.0 59.6670011215303
2800.0 60.11122034754751
2900.0 60.38559497428549
3000.0 60.191564066159295
3070.0 58.85036941772422
3150.0 57.880566308585465
3250.0 56.90700570726289
3350.0 55.66466704010006
3450.0 54.60745042620798
3550.0 54.261649239750476
3650.0 53.39994237168744
3750.0 52.89136581763275
3870.0 52.234960676841546
4000.0 50.203278585408974
4120.0 50.199769288914574
4250.0 53.584640139105254
4370.0 57.278474335810735
4500.0 59.22550026266064
4620.0 58.844680264205714
4750.0 57.967359839866255
4870.0 57.308433486886365
5000.0 57.30943405872849
5150.0 57.97704286507723
5300.0 60.11903083705905
5450.0 62.97387260277285
5600.0 64.35225540515754
5800.0 63.87029875111674
6000.0 63.239011593506724
6150.0 62.5951549873052
6300.0 62.47948444194778
6500.0 61.76440690350541
6700.0 61.34391629622018
6900.0 61.35618985816773
7100.0 61.47660948925411
7300.0 60.3206865682368
7500.0 57.91751095932033
7750.0 56.25154443138856
8000.0 55.506344256481405
8250.0 55.04500221390477
8500.0 55.4166239699423
8750.0 55.27990791598946
9000.0 53.07498319830477
9250.0 52.66671355256613
9500.0 53.635200274514254
9750.0 53.50524849563197
10000.0 52.25056054455302
10300.0 50.92997028721914
10600.0 49.45373696444528
10900.0 48.756205714825676
11200.0 49.64692691698476
11500.0 49.398461781816046
11800.0 48.129826126816475
12200.0 47.93228059684633
12500.0 49.73295180305879
12800.0 48.55774766525965
13200.0 50.226920446107464
13600.0 48.35900826343089
14000.0 45.36480921251465
14500.0 47.14371999431771
15000.0 47.59377674291154
15500.0 43.958291237216066
16000.0 44.063476213147204
16500.0 43.25825385581037
17000.0 43.90532071274645
17500.0 45.51486878880636
18000.0 46.532632233185076
18500.0 44.30366197518719
19000.0 39.636163779774385
19500.0 35.49725434810329
