Freq "Listening Window"
22.4 53.07024904265869
23.0 53.270249042658705
23.6 53.47024904265869
24.0 53.61482090786156
25.0 53.770249042658705
25.8 53.937190413607325
26.5 54.0702490426587
27.2 54.170249042658696
28.0 54.270249042658705
29.0 54.3702490426587
30.0 54.47024904265869
30.7 54.57024904265869
31.5 54.67024904265868
32.5 54.7033431050955
33.5 54.770249042658705
34.5 54.814820907861545
35.5 54.8702490426587
36.5 54.93719041360731
37.5 54.97024904265869
38.7 54.9807981234771
40.0 55.04806728731852
41.2 55.0702490426587
42.5 55.0702490426587
43.7 55.103343105095476
45.0 55.137190413607314
46.2 55.170249042658696
47.5 55.170249042658696
48.7 55.170249042658696
50.0 55.1807981234771
51.5 55.203075390873906
53.0 55.21482090786155
54.5 55.248067287318534
56.0 55.27024904265869
58.0 55.27024904265869
60.0 55.27024904265869
61.5 55.27024904265869
63.0 55.27024904265869
65.0 55.27024904265869
67.0 55.27024904265869
69.0 55.27024904265869
71.0 55.27024904265869
73.0 55.27024904265869
75.0 55.281043538014046
77.5 55.27024904265869
80.0 55.27024904265869
82.5 55.27024904265869
85.0 55.27024904265869
87.5 55.27024904265869
90.0 55.27024904265869
92.5 55.27024904265869
95.0 55.27024904265869
97.5 55.27024904265869
100.0 55.281043538014046
103.0 55.314820907861545
106.0 55.358916988019075
109.0 55.38079812347712
112.0 55.41403793370276
115.0 55.47024904265871
118.0 55.50255805872011
122.0 55.54626576936498
125.0 55.602558058720106
128.0 55.65711996599536
132.0 55.69027840790908
136.0 55.72293110248064
140.0 55.79002197288078
145.0 55.822931102480624
150.0 55.84498217571202
155.0 55.878233065083876
160.0 55.878233065083876
165.0 55.87797591781377
170.0 55.889001920046624
175.0 55.889001920046624
180.0 55.87797591781377
185.0 55.84472895057722
190.0 55.84472895057722
195.0 55.83358982687996
200.0 55.83358982687996
206.0 55.84472895057722
212.0 55.84472895057722
218.0 55.85583957685775
224.0 55.878233065083876
230.0 55.88925841531061
236.0 55.92267658830113
240.0 55.92267658830113
250.0 55.92267658830113
258.0 55.9114806859839
265.0 55.87848434425848
272.0 55.86717378562655
280.0 55.82343429349211
290.0 55.76843923875053
300.0 55.7469963224477
307.0 55.64675460676935
315.0 55.58152289117916
325.0 55.514269732233075
335.0 55.43688999223522
345.0 55.35938115039191
355.0 55.28227624746117
365.0 55.24827959246862
375.0 55.226245297870506
387.0 55.24827959246862
400.0 55.3030521084158
412.0 55.40305210841582
425.0 55.503052108415815
437.0 55.63662433805706
450.0 55.78000354892009
462.0 55.91350448519006
475.0 56.035372689214825
487.0 56.102023198169945
500.0 56.112495473354286
515.0 56.080003548920104
530.0 55.98000354892011
545.0 55.880003548920115
560.0 55.74725531053345
580.0 55.61453067925616
600.0 55.47071199553494
615.0 55.382276247461164
630.0 55.31652457419197
650.0 55.33964611726819
670.0 55.384758806711886
690.0 55.45479518723714
710.0 55.54342268405624
730.0 55.666935650001065
750.0 55.74738733421208
775.0 55.8245674223905
800.0 55.88115194670283
825.0 55.869314893265624
850.0 55.82376800498544
875.0 55.767320297714136
900.0 55.68823384789435
925.0 55.60975831301123
950.0 55.531482206316284
975.0 55.47721801447402
1000.0 55.43346571536976
1030.0 55.48022748017986
1060.0 55.50436441101
1090.0 55.563355449089016
1120.0 55.65663468442972
1150.0 55.740038504323294
1180.0 55.80914665265401
1220.0 55.85542485489948
1250.0 55.89108264602453
1280.0 55.88233086716238
1320.0 55.84660085032333
1360.0 55.79108264602452
1400.0 55.70022802003362
1450.0 55.631013622585684
1500.0 55.57386007723122
1550.0 55.50953646427236
1600.0 55.47597605118045
1650.0 55.46736530643297
1700.0 55.49496867041415
1750.0 55.54684041316851
1800.0 55.62225512411894
1850.0 55.68823289269449
1900.0 55.78026253747596
1950.0 55.85817388830034
2000.0 55.99145649400192
2060.0 56.05938057316864
2120.0 56.15224552054488
2180.0 56.224163927647524
2240.0 56.267463655825225
2300.0 56.295633142903384
2360.0 56.345554104705144
2400.0 56.33411111914174
2500.0 56.32007824583931
2580.0 56.21773602989806
2650.0 56.143885832652785
2720.0 56.05111337463417
2800.0 55.88190404733375
2900.0 55.76889927029637
3000.0 55.57214457319712
3070.0 55.42474185808554
3150.0 55.22988833816538
3250.0 55.07821429729806
3350.0 54.905450882566626
3450.0 54.76820100914199
3550.0 54.642833633705706
3650.0 54.55465989691511
3750.0 54.47843276985354
3870.0 54.45947859810808
4000.0 54.47150619395623
4120.0 54.50010241284561
4250.0 54.5659258859813
4370.0 54.665925885981295
4500.0 54.75103910481752
4620.0 54.84973160746159
4750.0 54.94556789722364
4870.0 55.04556789722365
5000.0 55.087205768533195
5150.0 55.150770661389544
5300.0 55.182924026434094
5450.0 55.18037850576707
5600.0 55.17888737386981
5800.0 55.19967941414784
6000.0 55.19808870437886
6150.0 55.2192814454109
6300.0 55.2192814454109
6500.0 55.25305319369497
6700.0 55.28762975323217
6900.0 55.34639060773483
7100.0 55.39196495005079
7300.0 55.4503846721081
7500.0 55.476784313536896
7750.0 55.494902038012654
8000.0 55.51089902295816
8250.0 55.47927835424959
8500.0 55.4289068925129
8750.0 55.35049480092064
9000.0 55.26445910195112
9250.0 55.19024536606199
9500.0 55.08552036794572
9750.0 55.03489423945621
10000.0 54.92236559911663
10300.0 54.904446008356274
10600.0 54.819566511377246
10900.0 54.77393261665452
11200.0 54.74175143400505
11500.0 54.704446008356285
11800.0 54.673932616654525
12200.0 54.60444600835628
12500.0 54.58211659666057
12800.0 54.50444600835627
13200.0 54.422365599116645
13600.0 54.32236559911665
14000.0 54.22236559911663
14500.0 54.10444600835628
15000.0 54.00444600835628
15500.0 53.88031594712881
16000.0 53.704446008356285
16500.0 53.60444600835629
17000.0 53.404446008356274
17500.0 53.22236559911663
18000.0 53.02236559911664
18500.0 52.82236559911664
19000.0 52.60444600835628
19500.0 52.404446008356274
