Freq "Sound Power DI"
22.4 51.38025024257729
23.0 51.414976468301234
23.6 51.46425591737511
24.0 51.51051021346012
25.0 51.5614151371
25.8 51.61721418910173
26.5 51.66060528951354
27.2 51.71120663791825
28.0 51.768507968738675
29.0 51.83221528611486
30.0 51.88062401146581
30.7 51.95781564306597
31.5 52.033656509442096
32.5 52.100308378039074
33.5 52.13144247713328
34.5 52.187041769241716
35.5 52.23261247029069
36.5 52.23668717179379
37.5 52.232217427372206
38.7 52.21080450253643
40.0 52.194319431029186
41.2 52.193019120275494
42.5 52.147274009235815
43.7 52.14999545874785
45.0 52.14143982283446
46.2 52.16388699219678
47.5 52.16727173165235
48.7 52.18577742293837
50.0 52.210838133201605
51.5 52.24678745665311
53.0 52.3048700384451
54.5 52.34909044579004
56.0 52.40171777821662
58.0 52.44894953941824
60.0 52.45829668740468
61.5 52.483786169988946
63.0 52.5020596253181
65.0 52.47257742780319
67.0 52.44150672888537
69.0 52.44003775957992
71.0 52.40118348513083
73.0 52.40563024020179
75.0 52.41007672062945
77.5 52.44650297447427
80.0 52.423860904946935
82.5 52.45766271109839
85.0 52.4879187189952
87.5 52.5006773975729
90.0 52.48999114849761
92.5 52.49691967225198
95.0 52.48402521761797
97.5 52.4696726217843
100.0 52.4847723721542
103.0 52.51832199587355
106.0 52.53595222776191
109.0 52.61623538880035
112.0 52.705690663454504
115.0 52.766529228654306
118.0 52.86080978710862
122.0 52.88710754032775
125.0 52.90187500397728
128.0 52.854392494506925
132.0 52.796291518483656
136.0 52.785115747489016
140.0 52.84703839734844
145.0 52.896761065830304
150.0 52.97536379992583
155.0 53.00348474531165
160.0 53.04121782956955
165.0 53.073717659935696
170.0 53.11458966547541
175.0 53.213971178406595
180.0 53.360820025144704
185.0 53.50556691706653
190.0 53.583260700875684
195.0 53.63604099595358
200.0 53.7139916150857
206.0 53.81576331539728
212.0 53.92695656896089
218.0 54.043408409990136
224.0 54.10166283127401
230.0 54.1615252991125
236.0 54.19770190433104
240.0 54.3028303027248
250.0 54.36251211428754
258.0 54.43883129532654
265.0 54.55543690403766
272.0 54.69335369660742
280.0 54.759008131475056
290.0 54.80899120817065
300.0 54.878102619130445
307.0 54.99382155701504
315.0 55.10081836620813
325.0 55.098423289038934
335.0 55.12737451679068
345.0 55.20070989338336
355.0 55.28643350294459
365.0 55.30625159976451
375.0 55.38782762616218
387.0 55.48414734237302
400.0 55.59191943469811
412.0 55.74863569352719
425.0 55.92824121407655
437.0 56.187172628267845
450.0 56.4261974180594
462.0 56.57029524238817
475.0 56.73721918735134
487.0 56.90028829421445
500.0 56.99359392355092
515.0 57.108531798807235
530.0 57.21975388391306
545.0 57.311088692982935
560.0 57.33437082564586
580.0 57.25833660273848
600.0 57.22398061163484
615.0 57.20057241609754
630.0 57.27378720075805
650.0 57.28725998780121
670.0 57.18030413453114
690.0 56.92691972797283
710.0 56.55559844972905
730.0 56.086120405270606
750.0 55.46814425083565
775.0 54.699437207046174
800.0 53.970244525415026
825.0 53.736874214375234
850.0 53.923856642001
875.0 54.11315743435078
900.0 54.289292395275666
925.0 54.46149764320619
950.0 54.61621959979077
975.0 54.86762933852363
1000.0 55.195082909177856
1030.0 55.626166451316536
1060.0 55.867269374773116
1090.0 55.96068506130868
1120.0 56.10238742248238
1150.0 56.25728304847263
1180.0 56.31314539100036
1220.0 56.2834615509405
1250.0 56.43631060742999
1280.0 56.445933984689205
1320.0 56.35225710419813
1360.0 56.40085526650776
1400.0 56.19057881392601
1450.0 56.043925216342956
1500.0 56.08985037133483
1550.0 56.30597633512832
1600.0 56.459824849903185
1650.0 56.79586560063949
1700.0 56.96461324317947
1750.0 56.73582500247619
1800.0 56.97354347747465
1850.0 57.137982752941895
1900.0 56.98683826138482
1950.0 57.22165384249375
2000.0 57.3642701556097
2060.0 57.58304874003095
2120.0 57.812519057225
2180.0 57.90983464097465
2240.0 58.14071898355543
2300.0 58.29238524679886
2360.0 58.43141861752285
2400.0 58.73707532278004
2500.0 58.71219937940363
2580.0 58.75149921075064
2650.0 58.75262793118938
2720.0 58.827116114253116
2800.0 58.83967996884256
2900.0 58.836903304633594
3000.0 58.62945720629148
3070.0 58.60859497184185
3150.0 58.43607258852654
3250.0 58.43410354246497
3350.0 58.43908033291194
3450.0 58.58902952983165
3550.0 58.682466689807555
3650.0 58.81736908563121
3750.0 58.85058308905927
3870.0 58.679477542037944
4000.0 58.491076220191985
4120.0 58.38319305307874
4250.0 58.14734276520042
4370.0 57.953222709413794
4500.0 58.132948284967284
4620.0 58.3416864609471
4750.0 58.45907978807355
4870.0 58.43497358683868
5000.0 58.30764402950355
5150.0 58.08150027557525
5300.0 58.34497348874058
5450.0 58.59054975905937
5600.0 58.579405933748504
5800.0 58.630797869108505
6000.0 58.778012247101
6150.0 58.692788135868085
6300.0 58.63715527493525
6500.0 58.63148611787773
6700.0 58.826007266783705
6900.0 58.86029999336668
7100.0 58.777119955880494
7300.0 58.72813651849056
7500.0 58.754135268253265
7750.0 59.0113172960331
8000.0 58.6825600705796
8250.0 59.01099674663952
8500.0 58.95066761590019
8750.0 59.063410914307966
9000.0 58.88986191948922
9250.0 58.95678235247874
9500.0 59.01649908216801
9750.0 59.00004610771251
10000.0 59.13093597363452
10300.0 59.615425820957995
10600.0 59.430171745960465
10900.0 59.592254782164915
11200.0 60.03664102568797
11500.0 60.80587589621307
11800.0 60.9764190340441
12200.0 60.02511084759006
12500.0 59.86011022226835
12800.0 60.642808407083805
13200.0 60.221265547003355
13600.0 58.45555986485688
14000.0 56.388858823587825
14500.0 56.7617790222303
15000.0 55.60180700033942
15500.0 58.553741762169935
16000.0 60.944064440443924
16500.0 61.710688974174545
17000.0 59.499091908868905
17500.0 59.940411648181694
18000.0 58.60718095862332
18500.0 57.25376942406284
19000.0 60.763844960130214
19500.0 61.74367368825369
