Freq "Listening Window"
22.4 54.813878193677766
23.0 54.850493762341216
23.6 54.87411241499112
24.0 54.86447380128763
25.0 54.8901340056471
25.8 54.878039298688265
26.5 54.92138802195606
27.2 54.92214107572019
28.0 54.87531612061639
29.0 54.94051074619671
30.0 55.076378562521086
30.7 55.33180711092976
31.5 55.67992329177878
32.5 56.250795408481565
33.5 57.11715862583691
34.5 57.85887612392034
35.5 58.75103323091389
36.5 59.826208354435266
37.5 60.852891510052984
38.7 61.853704190675586
40.0 62.84820249567181
41.2 63.84180230130531
42.5 64.7690632634899
43.7 65.97471835567805
45.0 67.18846996380498
46.2 68.15671218333671
47.5 69.39024087705556
48.7 70.85392391873164
50.0 71.96216723006329
51.5 73.44563327303314
53.0 75.02410058005603
54.5 76.35566062532142
56.0 77.3957535242296
58.0 78.78664889180327
60.0 80.19459133458278
61.5 81.23018455551096
63.0 81.91561199457333
65.0 82.60982611702426
67.0 83.38412543862441
69.0 84.03766774163128
71.0 84.91396251469828
73.0 85.60245821793792
75.0 86.29116231926054
77.5 87.20270250917409
80.0 88.3809040100436
82.5 89.4592305053414
85.0 90.13794533676875
87.5 90.75017740920642
90.0 91.37427491740377
92.5 91.87427491740378
95.0 92.22320535971343
97.5 92.51448804222369
100.0 92.59347263241479
103.0 92.59347263241479
106.0 92.61448804222368
109.0 92.61448804222368
112.0 92.54834373172513
115.0 92.48976034530124
118.0 92.33665799472594
122.0 92.2002663888868
125.0 91.98013304273935
128.0 91.73474168700521
132.0 91.52497619587903
136.0 91.35520325301142
140.0 91.23101225612514
145.0 91.08440540959575
150.0 90.91743737339246
155.0 90.70593632281262
160.0 90.59492439964264
165.0 90.61545572145687
170.0 90.7924125422064
175.0 91.19241254220643
180.0 91.70343082818191
185.0 92.18189959929558
190.0 92.49400866877363
195.0 92.62933440513898
200.0 92.5770673304916
206.0 92.3695781220172
212.0 92.08013304273938
218.0 91.85474019878777
224.0 91.67410173492266
230.0 91.62695733536286
236.0 91.695138441294
240.0 91.84763669792748
250.0 92.05958671142983
258.0 92.31095506960791
265.0 92.46473493466878
272.0 92.55673113333746
280.0 92.65542783337179
290.0 92.71696943515302
300.0 92.88409284406848
307.0 93.17840365810969
315.0 93.50969442422928
325.0 93.94767321466303
335.0 94.2830164565112
345.0 94.51737884951248
355.0 94.5723557099937
365.0 94.48246835808881
375.0 94.37424662025546
387.0 94.39058565134457
400.0 94.5944304938387
412.0 94.96880097448542
425.0 95.2666435432391
437.0 95.23903621543609
450.0 94.75992941886231
462.0 93.87156269069561
475.0 92.85123050921314
487.0 91.89751753879258
500.0 91.29450212800074
515.0 91.05407997928353
530.0 91.06193714494921
545.0 91.24959880168574
560.0 91.5063680433623
580.0 91.760291428479
600.0 91.96209020578742
615.0 92.13306352793911
630.0 92.19798416109157
650.0 92.21912238658986
670.0 92.34788669224403
690.0 92.59166216202827
710.0 92.98017335528692
730.0 93.42913738286398
750.0 93.70714496624859
775.0 93.76091449934947
800.0 93.58968403652042
825.0 93.3083097352029
850.0 92.94509485517952
875.0 92.55840088544619
900.0 92.24813723506608
925.0 92.00016586395769
950.0 91.91430704859859
975.0 91.93776726840802
1000.0 91.93624112119763
1030.0 91.89795666226577
1060.0 91.86299107510379
1090.0 92.08798558750269
1120.0 92.37634673533378
1150.0 92.88594769828265
1180.0 93.41752487872118
1220.0 93.76757763971466
1250.0 93.9498276575937
1280.0 93.80010682161759
1320.0 93.29571124308991
1360.0 92.66251547629568
1400.0 91.9024541758551
1450.0 91.36395071619279
1500.0 91.0383314517235
1550.0 90.89442918595802
1600.0 90.9834005954542
1650.0 91.06068451851579
1700.0 91.09402188072585
1750.0 91.21124926943571
1800.0 91.22810726826901
1850.0 91.20688625024883
1900.0 91.13738395887444
1950.0 91.00914267881029
2000.0 90.73805594098357
2060.0 90.31281224104032
2120.0 89.70964074221858
2180.0 89.03817365334504
2240.0 88.41133541288687
2300.0 87.92475690788618
2360.0 87.77285901999291
2400.0 87.96610078276001
2500.0 88.56661335473191
2580.0 89.349804087251
2650.0 89.90405165432765
2720.0 90.11537359931877
2800.0 89.8782442632936
2900.0 89.47339255674768
3000.0 89.1830695349555
3070.0 89.08951332481259
3150.0 88.99863931968832
3250.0 88.88812363125787
3350.0 88.73120560862299
3450.0 88.63687596021427
3550.0 88.78114378475013
3650.0 89.03002671147398
3750.0 89.33838199157194
3870.0 89.60223844079815
4000.0 89.62635121716536
4120.0 89.49911917893088
4250.0 89.23101716841892
4370.0 88.80183922413563
4500.0 88.39792875576136
4620.0 88.24611426791418
4750.0 88.47770882293123
4870.0 89.03889631137883
5000.0 89.76906313350545
5150.0 90.38331058594444
5300.0 90.60907977839017
5450.0 90.50823824773042
5600.0 90.19461394060606
5800.0 90.00361496640622
6000.0 90.05734533091943
6150.0 90.26788972369273
6300.0 90.51183004038145
6500.0 90.44006268229174
6700.0 90.02546602528628
6900.0 89.6192901183555
7100.0 89.29592641565523
7300.0 89.26538997356403
7500.0 89.50068079161306
7750.0 89.59811603733002
8000.0 89.53712327545621
8250.0 89.36941037289381
8500.0 89.00481404354089
8750.0 88.72857899687638
9000.0 88.46660212823537
9250.0 88.37481672329976
9500.0 88.5307433109596
9750.0 88.9009321783763
10000.0 89.26273255146738
10300.0 89.48333250309639
10600.0 89.57301826965579
10900.0 89.56303587784952
11200.0 89.5037443870657
11500.0 89.26141086411012
11800.0 88.85013832987784
12200.0 88.32980022674997
12500.0 87.77986043564518
12800.0 87.52216344995085
13200.0 87.49669100399021
13600.0 87.28901465458912
14000.0 86.9502335107444
14500.0 86.48111701181931
15000.0 85.96131469599936
15500.0 85.75935208055634
16000.0 85.78913962375279
16500.0 85.95904510987323
17000.0 85.90566938848639
17500.0 85.6972680791162
18000.0 85.01544172773123
18500.0 83.70640511493369
19000.0 82.2614809025909
19500.0 80.80536320380455
