Freq,On Axis,Listening Window,Sound Power,Early Reflections,Early Reflections DI,Sound Power DI,DI offset
20.5078,60.7834,60.64454769173861,61.29348773404956,60.885127527622075,39.759420164116534,39.351059957689046,40
21.9727,61.2508,61.08678410504365,61.538930560381516,61.20431927738758,39.882464827656065,39.54785354466213,40
23.4375,61.56130000000002,61.39065587504706,62.15671587625491,61.67229867750038,39.71835719754668,39.23393999879215,40
24.9023,62.4083,62.26579088769317,63.58829194865726,62.87296951459636,39.39282137309681,38.677498939035914,40
26.3672,63.93129999999999,63.82578475210843,65.22461252675505,64.49414353924246,39.331641212865975,38.60117222535338,40
27.832,65.0751,64.98452620290502,66.26229093372437,65.590199374299,39.39432682860601,38.72223526918064,40
29.2969,66.19310000000002,66.11618295315853,67.26948550328703,66.65904364033686,39.45713931282167,38.8466974498715,40
30.7617,67.0723,67.01273136501122,68.2061459078064,67.58758121131089,39.42515015370033,38.80658545720482,40
32.2266,68.17,68.119881817693,69.16458507939267,68.61363015595677,39.50625166173623,38.95529673830033,40
33.6914,69.00470000000001,68.96456194119136,69.96803453167863,69.44129506811653,39.52326687307483,38.99652740951274,40
35.1563,69.8885,69.85770915988206,70.82238050652968,70.31719165749641,39.540517502385654,39.03532865335238,40
36.6211,70.7815,70.76067274925856,71.68487177153133,71.20439461796539,39.55627813129317,39.075800977727226,40
38.0859,71.6342,71.61930768312591,72.46309201699827,72.02255078942443,39.59675689370148,39.156215666127636,40
39.5508,72.4241,72.41621217167305,73.2416924851328,72.81510245877101,39.601109712902044,39.17451968654025,40
41.0156,73.2831,73.27814103595195,73.99026445970973,73.61853208608166,39.65960894987029,39.28787657624221,40
42.4805,74.0515,74.0468558852892,74.70439419434564,74.35966812181384,39.687187763475364,39.342461690943566,40
43.9453,74.67149999999998,74.67040525187149,75.2762207604165,74.95474645696012,39.71565879491136,39.39418449145498,40
45.4102,75.3021,75.30304971781297,75.86517162335643,75.56570052058584,39.73734919722713,39.437878094456536,40
46.875,75.8769,75.88235879446363,76.45579789479014,76.15454518338295,39.72781361108068,39.42656089967349,40
48.3398,76.4639,76.4748077618457,77.05901173583845,76.75361847550502,39.721189286340675,39.41579602600724,40
51.2695,77.6442,77.65714827814269,78.12329298624635,77.87634936353291,39.780798914609775,39.53385529189633,40
52.7344,78.225,78.23903560284911,78.66285991366746,78.43757946300013,39.80145613984898,39.57617568918165,40
54.1992,78.7114,78.72718855326751,79.137113840224,78.91963894036758,39.80754961289993,39.59007471304351,40
55.6641,79.2596,79.2743639165945,79.61362523117904,79.4305955620509,39.8437683545436,39.66073868541545,40
58.5938,80.137,80.15419328191233,80.47399976678545,80.30187054916496,39.85232273274737,39.680193515126874,40
60.0586,80.497,80.51584292365328,80.83322125144717,80.66230193539712,39.85354098825616,39.68262167220611,40
62.9883,81.2775,81.29771708699371,81.58007870107652,81.42688044790293,39.87083663909078,39.7176383859172,40
64.4531,81.6818,81.7026351878094,81.97299960701206,81.8258183170474,39.876816870762,39.72963558079735,40
67.3828,82.3675,82.38924612413156,82.63359018399696,82.49891791847526,39.8903282056563,39.7556559401346,40
68.8477,82.66650000000001,82.68844184416787,82.91546623458547,82.79005002684104,39.898391817326825,39.7729756095824,40
71.7773,83.2233,83.24459633808286,83.4311249802433,83.32599431506905,39.918602023013804,39.81347135783956,40
74.707,83.7932,83.81361900177632,83.95802480500507,83.87445791305677,39.939161088719544,39.85559419677125,40
77.6367,84.3153,84.33637017154487,84.4712224800672,84.39276378383586,39.94360638770901,39.865147691477674,40
79.1016,84.5018,84.52264351516006,84.64319979440091,84.57177965923597,39.950863855924084,39.87944372075914,40
82.0313,84.8156,84.83562488887749,84.92467376418237,84.86863656994252,39.966988318934966,39.91095112469512,40
84.9609,85.1174,85.13818898651539,85.23362508369127,85.17389566534251,39.964293321172875,39.90456390282412,40
87.8906,85.4351,85.4534109696238,85.49431696305739,85.46108559843617,39.99232537118763,39.95909400656642,40
90.8203,85.63229999999999,85.6484193217895,85.6329793698554,85.62767188153774,40.02074744025177,40.0154399519341,40
95.2148,85.8664,85.88105342873995,85.83745255301791,85.84590568740147,40.03514774133848,40.043600875722035,40
98.1445,85.9817,85.99574581004522,85.95595112638519,85.96209693435779,40.03364887568743,40.039794683660034,40
101.074,86.05939999999998,86.07100888858547,85.97856491320006,86.0102024636759,40.06080642490957,40.09244397538541,40
105.469,86.0317,86.04107881836752,85.92221481301833,85.96646866414423,40.07461015422329,40.118864005349195,40
108.398,86.1169,86.12463037515386,85.97495437550141,86.03515405201443,40.08947632313942,40.149675999652445,40
112.793,86.2346,86.23814635766374,86.03383990230346,86.11953732002789,40.11860903763585,40.20430645536028,40
117.188,86.21010000000001,86.21003136273193,85.96016891733957,86.0680597876084,40.14197157512352,40.24986244539235,40
120.117,86.2338,86.23236369458255,85.97241568483082,86.084388500061,40.14797519452155,40.259948009751724,40
124.512,86.1996,86.19555807023005,85.91651644126718,86.0364067360279,40.15915133420215,40.27904162896287,40
128.906,86.1183,86.10896118631894,85.75064568914513,85.90781427311461,40.201146913204326,40.358315497173805,40
133.301,86.0666,86.05607098860767,85.67517648578792,85.8425980934134,40.21347289519427,40.38089450281976,40
139.16,85.9298,85.91605267475718,85.51053689628986,85.6872133537118,40.228839321045385,40.40551577846732,40
143.555,85.7639,85.74527702782743,85.28668114610417,85.48756700202102,40.257710025806404,40.458595881723255,40
147.949,85.6392,85.61521533580972,85.08833870508566,85.32161277640779,40.29360255940193,40.52687663072406,40
153.809,85.4977,85.46823571294608,84.84824550754362,85.1264771733864,40.34175853955968,40.61999020540246,40
159.668,85.4176,85.3863518952765,84.7328087942157,85.0249620296842,40.3613898655923,40.653543101060805,40
165.527,85.4006,85.36722796550214,84.72978012548018,85.01053573129633,40.35669223420581,40.63744784002196,40
171.387,85.277,85.23563465279275,84.5405575144319,84.85184600782361,40.383788644969144,40.69507713836086,40
177.246,85.1233,85.07703824007767,84.32649216019853,84.6649931811602,40.41204505891747,40.75054607987914,40
183.105,84.92759999999998,84.87121224343724,83.95810307543184,84.37347449599568,40.49773774744156,40.913109168005406,40
188.965,84.72730000000001,84.67390250006969,83.61273349399934,84.11857235506997,40.555330144999715,41.061169006070344,40
196.289,84.5199,84.46688381710273,83.51859450791413,83.96610824926164,40.50077556784109,40.948289309188596,40
203.613,84.3027,84.23668944306716,83.24177567261097,83.69966102445989,40.53702841860728,40.99491377045619,40
210.938,84.20660000000001,84.13461828123368,83.02157119485909,83.54398306451367,40.59063521672002,41.11304708637459,40
218.262,84.0042,83.9283493840826,82.78504339951722,83.32892730995074,40.59942207413185,41.14330598456537,40
225.586,84.0087,83.91885903313019,82.72218694294052,83.27622886439053,40.64263016873966,41.196672090189665,40
232.91,84.2515,84.14987322458157,82.58446510895017,83.35765505865247,40.7922181659291,41.5654081156314,40
241.699,83.8176,83.73210925756152,82.25698861057197,82.999152907938,40.73295634962352,41.47512064698955,40
250.488,83.63670000000002,83.5220298573644,81.98518844015452,82.71294925371045,40.80908060365395,41.536841417209885,40
259.277,84.088,83.96197476890552,82.2885375145097,83.06706401316005,40.89491075574547,41.67343725439582,40
268.066,84.0449,83.91141514004255,82.28206406149545,83.03763961962517,40.87377552041738,41.6293510785471,40
276.855,84.2766,84.14210242185004,82.02530067441376,83.04832431899733,41.09377810285271,42.116801747436284,40
287.109,84.4307,84.31089563954066,82.2165377096381,83.26723254192461,41.04366309761605,42.09435792990256,40
297.363,84.3652,84.22835109966819,82.08014778313267,83.16039702317158,41.067954076496605,42.148203316535515,40
307.617,84.3896,84.28244583085416,82.08910367147527,83.22853813967896,41.0539076911752,42.193342159378886,40
319.336,84.0461,83.9253610793223,81.80279012132218,82.90632099472202,41.01904008460028,42.122570958000125,40
329.59,83.9468,83.84064124211352,81.63526927995709,82.79615722219256,41.04448401992096,42.205371962156434,40
341.309,83.7087,83.58881401771941,81.49296986174264,82.56643187508011,41.0223821426393,42.09584415597678,40
353.027,83.629,83.47169627948443,80.98897026219412,82.26300457961266,41.20869169987178,42.48272601729032,40
366.211,83.5117,83.38302357484369,80.8144084261388,82.15704405165509,41.2259795231886,42.56861514870489,40
379.395,83.9256,83.80471569797652,81.14408151963562,82.54701750215574,41.25769819582078,42.6606341783409,40
392.578,83.16120000000001,83.05394319925666,80.93567903696277,82.04745246030228,41.00649073895438,42.1182641622939,40
405.762,82.6861,82.50014294697185,80.24482711602819,81.35376791838291,41.146375028588935,42.25531583094366,40
420.41,83.3813,83.17053761155681,80.08354275270126,81.6817003914276,41.48883722012921,43.08699485885555,40
435.059,82.66219999999998,82.49334369389506,79.96893418536145,81.26408534069918,41.229258353195874,42.52440950853361,40
451.172,83.1991,82.95992210738653,79.70273257473593,81.31955547130298,41.640366636083556,43.2571895326506,40
465.82,83.1304,82.91084781329153,79.63250535634286,81.34757754098243,41.5632702723091,43.278342456948664,40
483.398,82.7197,82.47036654529626,79.43662919464869,80.94336470305174,41.527001842244516,43.03373735064757,40
499.512,82.89499999999998,82.58582773003714,79.29264886730323,80.85480177999005,41.73102595004708,43.29317886273391,40
517.09,83.50659999999999,83.22262088239434,79.52736960597761,81.36981260922742,41.852808273166914,43.69525127641673,40
536.133,83.6824,83.31066742959857,79.45699376894414,81.1450048661641,42.165662563434466,43.85367366065442,40
555.176,84.5743,84.31538497996615,79.84587155589603,82.04654136437843,42.26884361558773,44.46951342407013,40
574.219,84.9069,84.6546942266221,80.5159254707996,82.6004810179753,42.0542132086468,44.1387687558225,40
594.727,85.2299,84.9536563505382,80.86157103962029,82.96359467975917,41.99006167077903,44.09208531091791,40
615.234,85.5854,85.27296421018086,80.85684052050509,83.12784635330466,42.1451178568762,44.41612368967577,40
637.207,85.234,84.91690378565704,80.65131280842299,82.83576111977686,42.08114266588018,44.265590977234055,40
659.18,85.383,85.06385356089176,80.35655553925531,82.84817389205446,42.215679668837296,44.70729802163645,40
682.617,84.6761,84.39788861403517,79.92916218717377,82.2403546768273,42.15753393720787,44.468726426861394,40
707.52,84.4197,84.20176267138766,79.77855828765298,82.16706683720241,42.03469583418524,44.42320438373467,40
732.422,84.5572,84.28635795883771,79.67613860059934,82.10731437599597,42.17904358284174,44.61021935823837,40
757.324,84.5767,84.29161767464066,79.78663329345649,82.10727968551188,42.18433798912878,44.50498438118417,40
785.156,85.3114,85.00470145965132,80.331976545542,82.90029165034673,42.104409809304585,44.67272491410931,40
811.523,84.814,84.52467516437322,79.87349684841816,82.27968664524374,42.24498851912948,44.651178315955065,40
840.82,84.9905,84.63036983601907,79.8189476211167,82.2990961905691,42.33127364544997,44.811422214902365,40
870.117,84.4634,84.16383992439675,79.37461364723688,81.82487560378459,42.33896432061216,44.78922627715987,40
900.879,84.471,84.08763148093958,79.06018396698114,81.64422686668928,42.4434046142503,45.027447513958435,40
933.105,84.60389999999998,84.09165265581505,78.84605694921106,81.44469230851463,42.64696034730042,45.24559570660399,40
965.332,84.4333,83.89974595924271,78.4514558354864,81.04973549766815,42.850010461574556,45.44829012375631,40
1000.49,84.7185,84.15580306282712,78.33634692601638,81.03583445873745,43.119968604089664,45.81945613681074,40
1035.64,84.62970000000001,84.1002181386418,78.10626057265328,80.79210559311626,43.30811254552553,45.99395756598851,40
1072.27,84.7527,84.27531821055999,78.20900847890888,80.9621068141567,43.31321139640329,46.0663097316511,40
1108.89,85.31709999999998,84.72727091792355,78.94803048104738,81.71997062408204,43.00730029384151,45.779240436876165,40
1148.44,85.9487,85.32727823531707,79.4392927302526,82.47168095433946,42.855597280977605,45.887985505064464,40
1189.45,85.6015,85.02815838207135,79.115485393326,82.07784037132534,42.95031801074602,45.912672988745356,40
1230.47,85.4243,84.97672517155995,78.86181332322117,81.74941337247122,43.227311799088724,46.11491184833878,40
1274.41,85.1442,84.81369854559564,78.61550061348585,81.56686557300468,43.246832972590965,46.19819793210979,40
1319.82,84.8968,84.47423248822425,78.210254592138,81.17844627241035,43.29578621581389,46.263977896086246,40
1366.7,84.321,83.89458439735091,77.67347071285236,80.6980485543175,43.196535843033416,46.22111368449855,40
1413.57,84.2403,83.58065165709107,77.0848792750297,80.13368819498886,43.446963462102204,46.49577238206136,40
1463.38,84.9033,84.1118036367395,77.05470787484286,80.14313833066043,43.96866530607906,47.05709576189663,40
1516.11,85.3085,84.57464962734554,77.2301518700896,80.37333247096024,44.2013171563853,47.34449775725594,40
1568.85,85.0927,84.48088118337357,77.05755457984532,80.23735327965079,44.24352790372278,47.42332660352825,40
1624.51,84.6446,83.93808100377836,76.40130562862709,79.51581114146688,44.42226986231148,47.53677537515128,40
1681.64,84.50229999999999,83.78671384663637,76.02434891098319,79.02081208462347,44.7659017620129,47.76236493565318,40
1741.7,85.2912,84.55107855634861,76.5116255602532,79.53863609577272,45.0124424605759,48.03945299609542,40
1803.22,85.5518,84.67669606763896,76.60535232247406,79.48538006631796,45.191316001321,48.071343745164896,40
1866.21,85.549,84.51808070918128,76.81153821097641,79.30255691899458,45.215523790186694,47.70654249820487,40
1932.13,85.513,84.5582711907678,77.94180579443551,80.051903268956,44.5063679218118,46.61646539633229,40
1999.51,84.962,84.50843066148407,78.38240319273265,80.27891184114108,44.22951882034299,46.12602746875142,40
2069.82,84.3497,84.08981724096226,78.45329753634344,80.14844553070091,43.94137171026135,45.63651970461882,40
2143.07,83.76430000000002,83.59237209946062,77.94023883075661,79.66658496390511,43.92578713555551,45.652133268704006,40
2219.24,84.4845,84.5554479706979,78.68041873691959,80.5270284767729,44.028419493925,45.87502923377831,40
2296.88,84.1658,84.06429103705186,78.53805700199267,80.44661285838258,43.61767817866928,45.52623403505919,40
2378.91,83.6413,84.14066570199836,78.87529858539574,80.94652945099104,43.19413625100732,45.26536711660262,40
2462.4,83.763,84.29199999550313,78.94901158692122,81.01783159239736,43.274168403105776,45.34298840858192,40
2548.83,82.6089,83.38257081101524,78.38045670565371,80.39413003089717,42.98844078011807,45.00211410536153,40
2639.65,83.5221,83.97526031325339,78.61772990839857,80.84766247620932,43.127597837044064,45.35753040485481,40
2731.93,83.8604,84.38283638503613,79.02906153557521,81.17073582207325,43.212100562962874,45.35377484946092,40
2828.61,83.06900000000002,83.67046924343904,78.67500045539278,80.84894609961843,42.82152314382061,44.99546878804627,40
2928.22,83.3883,84.00885037249492,78.73828227501183,81.1142441966958,42.894606175799126,45.27056809748309,40
3030.76,82.8863,83.67291397136225,78.81585928563608,81.21799966822067,42.45491430314158,44.85705468572617,40
3137.7,82.626,83.35497919615406,78.73234242676921,81.08682181679626,42.2681573793578,44.622636769384854,40
3249.02,82.3333,83.36636203328905,78.84898445061117,81.26490316226919,42.10145887101986,44.51737758267788,40
3363.28,82.2707,83.21730753475074,78.73709276055085,81.40772446868203,41.80958306606871,44.480214774199894,40
3481.93,82.5414,83.18083646501208,78.5585911691287,81.39366680013778,41.7871696648743,44.622245295883374,40
3604.98,82.9833,83.36323978712223,78.8669824370531,81.73387751175858,41.62936227536365,44.49625735006913,40
3732.42,83.3007,83.19652423179281,78.74278438722024,81.77801884037459,41.41850539141822,44.45373984457257,40
3864.26,84.4889,83.45165198746294,78.95336461818728,82.03559605188354,41.416055935579394,44.49828736927566,40
4000.49,84.3902,83.12370685351013,78.86837107103946,81.97353623009666,41.15017062341347,44.25533578247067,40
4141.11,84.4001,83.17469384003671,78.65816803159126,81.83402713558397,41.340666704452744,44.51652580844545,40
4287.6,84.5731,83.06665861725668,78.29385660054746,81.60338941964946,41.46326919760722,44.77280201670922,40
4438.48,85.0361,83.30030233591177,78.08195676390943,81.65581378485133,41.644488551060434,45.218345572002335,40
4595.21,84.9539,83.07199497810814,77.50729977167103,81.33377525778953,41.73821972031861,45.56469520643711,40
4756.35,84.7165,83.13182819947954,77.4053363383478,81.06370213379404,42.068126065685504,45.72649186113175,40
4924.8,83.8008,82.62469494731114,77.07312310970867,80.80216459426802,41.82253035304312,45.55157183760247,40
5097.66,83.9058,83.05354922633464,77.2767904658922,81.00655043793981,42.04699878839483,45.77675876044243,40
5277.83,83.7588,82.96365721342444,77.062754305222,80.6832037213519,42.28045349207254,45.90090290820244,40
5463.87,83.0565,82.73090821932406,76.79659190844184,80.47309344387156,42.2578147754525,45.934316310882224,40
5657.23,83.6323,82.98639510412569,76.59435331586431,80.53069387123682,42.45570123288887,46.39204178826138,40
5856.45,83.4162,83.20511504370842,76.3444354234142,80.42997116949401,42.77514387421441,46.86067962029422,40
6062.99,83.989,83.3592358367184,76.22277094291405,80.38483079634392,42.97440504037448,47.136464893804344,40
6276.86,84.2518,83.6258454437924,76.25100929949767,80.42539047730679,43.20045496648561,47.37483614429473,40
6498.05,85.12639999999999,83.96492368830756,76.32027524088267,80.44367406427517,43.52124962403239,47.6446484474249,40
6726.56,85.5591,84.19421860347113,76.33509629318807,80.4516203082764,43.742598295194725,47.859122310283055,40
6963.87,85.9915,84.44731226291229,76.3506351830218,80.5283980882327,43.918914174679585,48.0966770798905,40
7209.96,86.0696,84.54178598062306,76.4417262954717,80.67701541939644,43.86477056122662,48.100059685151365,40
7464.84,86.0538,84.52243630294043,76.52535957690853,80.62767737241812,43.894758930522315,47.997076726031906,40
7727.05,85.5455,84.08623098284909,76.23447586109955,80.24410065019228,43.84213033265681,47.851755121749534,40
7999.51,85.1485,83.88547035584205,76.09727240090653,80.11605668867237,43.76941366716967,47.78819795493551,40
8282.23,84.4277,83.49602083855305,75.92912117882368,79.89868665885041,43.59733417970264,47.56689965972937,40
8573.73,83.783,83.20868976314088,75.74360117286389,79.76641289490833,43.442276868232554,47.46508859027699,40
8876.95,83.19409999999999,82.90806821453097,75.5333221426172,79.59965591724155,43.30841229728942,47.374746071913776,40
9188.96,82.529,82.70659766492511,75.40228957354783,79.47206347457197,43.234534190353145,47.30430809137728,40
9514.16,81.8741,82.41949366158201,75.06009344262552,79.0836611039105,43.33583255767151,47.359400218956495,40
9849.61,81.9272,82.28240498168724,74.7621456912861,78.84673754560185,43.43566743608538,47.52025929040114,40
10196.8,81.9709,82.1626473126128,74.29883885257257,78.50332849599914,43.65931881661366,47.86380846004023,40
10555.7,82.1573,81.95755040950522,73.88749503172173,78.17954499768781,43.778005411817404,48.07005537778349,40
10927.7,82.6507,82.0255327320376,73.64238717316144,78.05206145752834,43.973471274509265,48.383145558876166,40
11313.0,83.0042,82.21825196226777,73.50906569699706,77.94671447068023,44.27153749158754,48.709186265270716,40
11712.9,83.3384,82.5280411673863,73.59121875928619,77.98231992920788,44.54572123817843,48.93682240810011,40
12126.0,83.8193,82.94733112676172,73.83456701737093,78.24201828816803,44.7053128385937,49.112764109390795,40
12553.7,84.2356,83.22806161159397,73.72543462207167,78.32640676662932,44.90165484496465,49.5026269895223,40
