Freq "Sound Power"
20.5078 61.29348773404956
21.9727 61.538930560381516
23.4375 62.15671587625491
24.9023 63.58829194865726
26.3672 65.22461252675505
27.832 66.26229093372437
29.2969 67.26948550328703
30.7617 68.2061459078064
32.2266 69.16458507939267
33.6914 69.96803453167863
35.1563 70.82238050652968
36.6211 71.68487177153133
38.0859 72.46309201699827
39.5508 73.2416924851328
41.0156 73.99026445970973
42.4805 74.70439419434564
43.9453 75.2762207604165
45.4102 75.86517162335643
46.875 76.45579789479014
48.3398 77.05901173583845
51.2695 78.12329298624635
52.7344 78.66285991366746
54.1992 79.137113840224
55.6641 79.61362523117904
58.5938 80.47399976678545
60.0586 80.83322125144717
62.9883 81.58007870107652
64.4531 81.97299960701206
67.3828 82.63359018399696
68.8477 82.91546623458547
71.7773 83.4311249802433
74.707 83.95802480500507
77.6367 84.4712224800672
79.1016 84.64319979440091
82.0313 84.92467376418237
84.9609 85.23362508369127
87.8906 85.49431696305739
90.8203 85.6329793698554
95.2148 85.83745255301791
98.1445 85.95595112638519
101.074 85.97856491320006
105.469 85.92221481301833
108.398 85.97495437550141
112.793 86.03383990230346
117.188 85.96016891733957
120.117 85.97241568483082
124.512 85.91651644126718
128.906 85.75064568914513
133.301 85.67517648578792
139.16 85.51053689628986
143.555 85.28668114610417
147.949 85.08833870508566
153.809 84.84824550754362
159.668 84.7328087942157
165.527 84.72978012548018
171.387 84.5405575144319
177.246 84.32649216019853
183.105 83.95810307543184
188.965 83.61273349399934
196.289 83.51859450791413
203.613 83.24177567261097
210.938 83.02157119485909
218.262 82.78504339951722
225.586 82.72218694294052
232.91 82.58446510895017
241.699 82.25698861057197
250.488 81.98518844015452
259.277 82.2885375145097
268.066 82.28206406149545
276.855 82.02530067441376
287.109 82.2165377096381
297.363 82.08014778313267
307.617 82.08910367147527
319.336 81.80279012132218
329.59 81.63526927995709
341.309 81.49296986174264
353.027 80.98897026219412
366.211 80.8144084261388
379.395 81.14408151963562
392.578 80.93567903696277
405.762 80.24482711602819
420.41 80.08354275270126
435.059 79.96893418536145
451.172 79.70273257473593
465.82 79.63250535634286
483.398 79.43662919464869
499.512 79.29264886730323
517.09 79.52736960597761
536.133 79.45699376894414
555.176 79.84587155589603
574.219 80.5159254707996
594.727 80.86157103962029
615.234 80.85684052050509
637.207 80.65131280842299
659.18 80.35655553925531
682.617 79.92916218717377
707.52 79.77855828765298
732.422 79.67613860059934
757.324 79.78663329345649
785.156 80.331976545542
811.523 79.87349684841816
840.82 79.8189476211167
870.117 79.37461364723688
900.879 79.06018396698114
933.105 78.84605694921106
965.332 78.4514558354864
1000.49 78.33634692601638
1035.64 78.10626057265328
1072.27 78.20900847890888
1108.89 78.94803048104738
1148.44 79.4392927302526
1189.45 79.115485393326
1230.47 78.86181332322117
1274.41 78.61550061348585
1319.82 78.210254592138
1366.7 77.67347071285236
1413.57 77.0848792750297
1463.38 77.05470787484286
1516.11 77.2301518700896
1568.85 77.05755457984532
1624.51 76.40130562862709
1681.64 76.02434891098319
1741.7 76.5116255602532
1803.22 76.60535232247406
1866.21 76.81153821097641
1932.13 77.94180579443551
1999.51 78.38240319273265
2069.82 78.45329753634344
2143.07 77.94023883075661
2219.24 78.68041873691959
2296.88 78.53805700199267
2378.91 78.87529858539574
2462.4 78.94901158692122
2548.83 78.38045670565371
2639.65 78.61772990839857
2731.93 79.02906153557521
2828.61 78.67500045539278
2928.22 78.73828227501183
3030.76 78.81585928563608
3137.7 78.73234242676921
3249.02 78.84898445061117
3363.28 78.73709276055085
3481.93 78.5585911691287
3604.98 78.8669824370531
3732.42 78.74278438722024
3864.26 78.95336461818728
4000.49 78.86837107103946
4141.11 78.65816803159126
4287.6 78.29385660054746
4438.48 78.08195676390943
4595.21 77.50729977167103
4756.35 77.4053363383478
4924.8 77.07312310970867
5097.66 77.2767904658922
5277.83 77.062754305222
5463.87 76.79659190844184
5657.23 76.59435331586431
5856.45 76.3444354234142
6062.99 76.22277094291405
6276.86 76.25100929949767
6498.05 76.32027524088267
6726.56 76.33509629318807
6963.87 76.3506351830218
7209.96 76.4417262954717
7464.84 76.52535957690853
7727.05 76.23447586109955
7999.51 76.09727240090653
8282.23 75.92912117882368
8573.73 75.74360117286389
8876.95 75.5333221426172
9188.96 75.40228957354783
9514.16 75.06009344262552
9849.61 74.7621456912861
10196.8 74.29883885257257
10555.7 73.88749503172173
10927.7 73.64238717316144
11313.0 73.50906569699706
11712.9 73.59121875928619
12126.0 73.83456701737093
12553.7 73.72543462207167
12996.1 73.35715472940277
13454.6 73.32111531409144
13929.2 73.4969500949116
14419.9 73.23663211056005
14928.2 72.75770251206087
15455.6 72.37038744032392
16000.5 72.32007812986444
16564.5 72.06523848092651
17148.9 70.86765621581092
17752.4 68.91120818799274
18379.4 67.13871915042273
19026.9 65.55831995249447
19697.8 64.11866663240762
19999.5 63.49919214400845
