Freq "Floor Bounce"
20.5078 51.89271970047062
21.9727 54.99450284055348
23.4375 57.06192202956879
24.9023 59.35505764542768
26.3672 61.02042230712789
27.832 62.52834911048794
29.2969 63.754472617955145
30.7617 65.3487533027054
32.2266 66.39328128747246
33.6914 67.79590038124971
35.1563 69.06129296910733
36.6211 70.06785470595311
38.0859 71.01176467272029
39.5508 72.2358043911774
41.0156 73.19931327679481
42.4805 74.19904842347876
43.9453 75.02914788007674
45.4102 75.86385562262547
46.875 76.62235110130968
48.3398 77.30437586660871
51.2695 78.80063643548598
52.7344 79.42857871449556
54.1992 80.05884698044187
55.6641 80.65032494335006
58.5938 81.71698969741043
60.0586 82.18786799260057
62.9883 83.00333616813063
64.4531 83.38525978097246
67.3828 83.93597641175936
68.8477 84.14887206303298
71.7773 84.58346245694422
74.707 84.99969519017492
77.6367 85.21996244906043
79.1016 85.28993099755878
82.0313 85.49350101065355
84.9609 85.65919323664642
87.8906 85.66993075425543
90.8203 85.42313910543142
95.2148 85.93600200832196
98.1445 85.7004004175449
101.074 85.6525927657523
105.469 85.56596287153977
108.398 85.67309119339599
112.793 85.89353099228299
117.188 85.92180014273985
120.117 86.19730852809931
124.512 86.08183673322253
128.906 85.90419429971
133.301 85.890474720518
139.16 85.41413435497407
143.555 85.3117974155171
147.949 85.3200904661078
153.809 85.5508402855935
159.668 85.622571875192
165.527 85.3514479629299
171.387 84.80915564482905
177.246 84.34262941233172
183.105 84.41111180007694
188.965 84.77562579810044
196.289 84.9975836376582
203.613 84.78880216460253
210.938 84.8442397788341
218.262 84.72722552277818
225.586 84.58623526298078
232.91 84.83426960855624
241.699 84.96080801015242
250.488 84.93770597557409
259.277 84.97278581983326
268.066 84.55286939008732
276.855 84.47988696680233
287.109 84.2972537148867
297.363 84.26914608192726
307.617 84.4811961262269
319.336 84.16095005882568
329.59 84.41664053321574
341.309 83.98009475354411
353.027 83.84359596498498
366.211 83.90912171523286
379.395 84.34995134099313
392.578 83.91301579919406
405.762 83.3592707784527
420.41 83.86909106919583
435.059 83.57164007301449
451.172 83.78342465818697
465.82 84.01409711764602
483.398 83.36665761563496
499.512 83.8348498201637
517.09 83.86126797369647
536.133 83.41587756316503
555.176 83.72948771494205
574.219 83.53569283830868
594.727 83.25321281748222
615.234 84.15143515967479
637.207 84.47621874195141
659.18 85.31749537496933
682.617 84.63831789214744
707.52 84.67762099545791
732.422 84.1647116331097
757.324 83.39156966778447
785.156 83.44583962186532
811.523 83.37971593606983
840.82 82.99903904812425
870.117 82.9257212519087
900.879 82.95165266078459
933.105 83.13402393692164
965.332 83.65560850927898
1000.49 83.53540018745187
1035.64 83.04837700430846
1072.27 83.9019335437738
1108.89 85.28285304995876
1148.44 85.37067805992106
1189.45 85.00891161019
1230.47 85.61660888331068
1274.41 85.69094012628474
1319.82 85.3242766760169
1366.7 85.4187965927448
1413.57 84.84839360228005
1463.38 84.13420058137761
1516.11 83.95345591610788
1568.85 83.72226829018325
1624.51 84.04037818047627
1681.64 83.74331826272166
1741.7 82.31286103272075
1803.22 81.84675451645114
1866.21 80.56933105197973
1932.13 80.32043160156147
1999.51 79.26348736563362
2069.82 77.91064322195726
2143.07 77.06168886496287
2219.24 76.6809313322268
2296.88 75.34835790286579
2378.91 74.89883294785261
2462.4 75.30583768088289
2548.83 75.74051685028999
2639.65 76.07748060006023
2731.93 76.0161349463155
2828.61 76.60980008388698
2928.22 77.04746555334626
3030.76 77.97893312838465
3137.7 79.14619444161761
3249.02 79.4088599357133
3363.28 79.39264140197889
3481.93 80.06794091282428
3604.98 80.44000694775153
3732.42 80.51083684397001
3864.26 80.7690336681165
4000.49 80.93480618696313
4141.11 81.71237536725158
4287.6 82.32955160693676
4438.48 82.3052149122353
4595.21 82.08318449824861
4756.35 81.88344738637566
4924.8 81.53252660888029
5097.66 81.43891218620504
5277.83 81.99009147547633
5463.87 82.38859985955351
5657.23 81.93147367581554
5856.45 81.89211620363332
6062.99 82.71059428339302
6276.86 82.75578119663166
6498.05 83.09398283396042
6726.56 82.7577740159849
6963.87 82.53332448243691
7209.96 82.4940290325288
7464.84 82.11863310409151
7727.05 81.7183251139533
7999.51 81.4747855367668
8282.23 81.78279778465763
8573.73 81.84603128318643
8876.95 82.07933386240302
9188.96 81.90776637503475
9514.16 81.79949699828691
9849.61 81.75687524112583
10196.8 81.90409182055298
10555.7 81.86791277474704
10927.7 81.96264906340376
11313.0 82.04729180245516
11712.9 81.70769024687253
12126.0 81.01535913168712
12553.7 80.41793435762509
12996.1 79.66989626140784
13454.6 78.92261778379299
13929.2 78.51218890758281
14419.9 77.94888192383132
14928.2 77.09968074576231
15455.6 76.17579450248195
16000.5 76.38739866861604
16564.5 77.56171481212112
17148.9 77.51506296218807
17752.4 76.57027815834105
18379.4 75.54257898422462
19026.9 74.70149840573114
19697.8 74.45466958871647
19999.5 74.71977089160464
