Freq "Floor Bounce"
20.5078 53.187875267710595
21.9727 54.16213935353299
23.4375 53.98785640464048
24.9023 54.90600781755843
26.3672 56.422415430992444
27.832 57.656305046505665
29.2969 59.00860457005275
30.7617 60.717858822032966
32.2266 61.657919619778326
33.6914 63.228783692586816
35.1563 64.78812138244271
36.6211 66.27919726186711
38.0859 67.52239235356693
39.5508 68.97978188926704
41.0156 70.47051265099076
42.4805 71.61416863214315
43.9453 72.87184961334096
45.4102 74.50537221867056
46.875 75.52264010214789
48.3398 76.2691543383654
51.2695 77.87859122882321
52.7344 78.5060124634664
54.1992 79.07645813808804
55.6641 79.57902995904453
58.5938 80.40158499668868
60.0586 80.7520576858246
62.9883 81.41729318647575
64.4531 81.65008278165419
67.3828 82.04735072708
68.8477 82.18679865179807
71.7773 82.74975204076699
74.707 83.15828475976768
77.6367 83.38391882119667
79.1016 83.46867045145889
82.0313 83.86786377268567
84.9609 84.18815884393531
87.8906 84.25686786129192
90.8203 84.10084984148082
95.2148 84.94153401271834
98.1445 84.97167973694833
101.074 85.06634624535856
105.469 85.27270884095903
108.398 85.45532074470053
112.793 85.83925147727061
117.188 86.0585932501051
120.117 86.38516506983372
124.512 86.53527509302468
128.906 86.57551522157958
133.301 86.65006123642128
139.16 86.70327050243066
143.555 86.82822196002634
147.949 86.9276915416463
153.809 87.17875383905279
159.668 87.4085188949294
165.527 87.54153218714903
171.387 87.45952661682477
177.246 87.42018875984571
183.105 87.32459522916899
188.965 87.42969421416409
196.289 87.60866899963847
203.613 87.52257309159653
210.938 87.45834103624667
218.262 87.45339603063121
225.586 87.3442954779428
232.91 87.33372127822503
241.699 87.38711096262949
250.488 87.35884406546525
259.277 87.51166724664733
268.066 87.11062769815179
276.855 87.26982396970992
287.109 87.42728267217518
297.363 87.18238330003147
307.617 86.91961264958695
319.336 86.77115746286309
329.59 86.82187740517413
341.309 86.54668797832208
353.027 86.08277595315212
366.211 85.8676941036466
379.395 87.6115093613656
392.578 87.23707986022949
405.762 86.78108758937174
420.41 87.0958898419067
435.059 86.72159231214178
451.172 86.725899987771
465.82 86.74306478023612
483.398 86.20588025998272
499.512 86.06041348332329
517.09 85.73665553175472
536.133 85.23154068316076
555.176 85.33859061828777
574.219 84.96199329722465
594.727 84.20838225498726
615.234 83.76395073777978
637.207 83.04873011018725
659.18 84.71362910500649
682.617 86.93305046559257
707.52 87.50660894040367
732.422 86.84283860567989
757.324 86.20618149973875
785.156 86.48964043568276
811.523 85.80482360824128
840.82 86.02020825936668
870.117 85.72214037564648
900.879 85.75729053263764
933.105 85.74898575658251
965.332 85.74712869687743
1000.49 86.12380780893656
1035.64 85.81988962463613
1072.27 85.44372545741145
1108.89 84.17428713381916
1148.44 83.40338785736817
1189.45 84.42753381219781
1230.47 84.80378173172815
1274.41 85.64131307486493
1319.82 86.27171767337735
1366.7 86.26277353160468
1413.57 85.14131831147512
1463.38 84.53019015257344
1516.11 83.41512199891163
1568.85 82.7081021774626
1624.51 82.19918371958218
1681.64 81.84576816623195
1741.7 80.5865192900104
1803.22 79.57132147991622
1866.21 79.8517968202093
1932.13 80.30485752458891
1999.51 79.22173820185253
2069.82 78.26093517839833
2143.07 78.0838736697449
2219.24 77.49638075683588
2296.88 76.7125755636679
2378.91 78.32754673139459
2462.4 78.70628039095406
2548.83 77.77896651328224
2639.65 77.38161216114715
2731.93 77.48679694450351
2828.61 78.06329876954966
2928.22 77.64093128285052
3030.76 77.44583171019175
3137.7 77.25372849555545
3249.02 77.22668668031612
3363.28 77.14606149644045
3481.93 77.57534124443065
3604.98 78.17118898876039
3732.42 79.18482484682922
3864.26 80.27159608827463
4000.49 81.3896168933987
4141.11 82.8243538977907
4287.6 83.2846971114123
4438.48 83.34566874491183
4595.21 85.17209439290195
4756.35 86.68139467107339
4924.8 86.80174156900517
5097.66 86.64516693822148
5277.83 87.45210761785889
5463.87 87.57798354026006
5657.23 87.06789324250254
5856.45 86.41615146530987
6062.99 86.57124661880421
6276.86 86.8272259100755
6498.05 86.55395049859226
6726.56 86.20254526694366
6963.87 86.34295498467021
7209.96 85.70038036512294
7464.84 85.54038793609242
7727.05 85.57302703422585
7999.51 84.81122068628471
8282.23 85.15689097227485
8573.73 84.75777947356353
8876.95 84.69530323647935
9188.96 84.74064521388411
9514.16 84.71760282631728
9849.61 84.89210738696575
10196.8 85.15641040810083
10555.7 84.96727006968804
10927.7 85.07186792795933
11313.0 85.04350641085502
11712.9 84.74142780607656
12126.0 84.40284623688497
12553.7 84.39707092087727
12996.1 84.36295563551418
13454.6 83.99727329431789
13929.2 83.88127235826053
14419.9 83.37635017221564
14928.2 83.06346003391833
15455.6 82.7440126348197
16000.5 82.16460673755135
16564.5 81.20867245518116
17148.9 80.46293419643938
17752.4 79.94219939536153
18379.4 79.22345689309023
19026.9 78.26464874911454
19697.8 77.88052599263305
19999.5 77.82165307639725
