Freq,Floor Bounce,Ceiling Bounce,Front Wall Bounce,Side Wall Bounce,Rear Wall Bounce,Total Early Reflection
22.4,30.637387295234404,30.906082082314626,30.821891341945715,30.927607443058648,31.20027663722128,30.902487623887467
23.0,32.37071931951492,32.70608208231464,32.60812589689466,32.68693506937153,32.94699090951018,32.667715093563444
23.6,34.137387295234404,34.406082082314626,34.3499282143117,34.41707583380007,34.6627879150745,34.39789597079705
24.0,35.87071931951495,36.10608208231464,36.04992821431169,36.12738364048862,36.35102822818642,36.103771102662805
25.0,37.53738729523441,37.80608208231463,37.74992821431171,37.80674350372574,38.03542920278311,37.790018093114796
25.8,39.20456496281004,39.43814887703947,39.377785248608646,39.46657127323364,39.67122213170471,39.434266535022985
26.5,40.87071931951495,41.07224830640878,41.04992821431169,41.08624139794752,41.276111683221544,41.07295867442731
27.2,42.47071931951494,42.672248306408775,42.649928214311714,42.686241397947484,42.87087222335258,42.67186112333941
28.0,44.070719319514936,44.23814887703945,44.21987921187322,44.26611203373362,44.4234947980968,44.24513059520548
29.0,45.637387295234404,45.838148877039444,45.7916470445672,45.81595339312186,45.97536804521293,45.81304151763665
30.0,47.137387295234404,47.338148877039444,47.31987921187324,47.33608748392275,47.47012768757823,47.32162156835973
30.7,48.63738729523443,48.838148877039444,48.805786069274646,48.81572376199033,48.964758712447676,48.813614030030735
31.5,50.13738729523443,50.30456496281003,50.276122389143765,50.29549482163621,50.400535403800475,50.28364012889831
32.5,51.570719319514936,51.770719319514924,51.73392676918125,51.72512849872682,51.84308463763939,51.729629019452105
33.5,53.00456496281005,53.17071931951493,53.14792903514605,53.14544827320255,53.22155757970647,53.13863965525242
34.5,54.37071931951495,54.53738729523441,54.54792903514604,54.514815331797195,54.594952484945935,54.51381928526487
35.5,55.73738729523441,55.87071931951493,55.890311964215385,55.855456197723,55.91056528766863,55.853309226224
36.5,57.070719319514936,57.170719319514944,57.1903119642154,57.15545619772301,57.200162991422815,57.15771723328902
37.5,58.33738729523441,58.4373872952344,58.44693686369226,58.4150450109653,58.44678934708131,58.4169050529277
38.7,59.570719319514936,59.70379746835444,59.7044553290487,59.65477338571792,59.68949253860326,59.66493776969878
40.0,60.77071931951494,60.903797468354426,60.91855278364655,60.85477338571792,60.85205792430111,60.860288151623806
41.2,61.97071931951494,62.10379746835444,62.104455329048704,62.03449729667888,62.031062789411294,62.04919947369619
42.5,63.137387295234404,63.20379746835444,63.261221959712586,63.195049015328564,63.16257872796213,63.19220950629702
43.7,64.27071931951492,64.30379746835443,64.3612219597126,64.28535800849966,64.25169276116507,64.29471990021146
45.0,65.37071931951495,65.43738729523442,65.47546022227336,65.39504901532858,65.33610708127374,65.40322134816812
46.2,66.43738729523442,66.47071931951494,66.5182249317519,66.4246700721266,66.38330065460109,66.44709744524776
47.5,67.47071931951494,67.50379746835443,67.57546022227335,67.45477338571791,67.38864677015108,67.47911120522984
48.7,68.4373872952344,68.47071931951493,68.5612219597126,68.4246700721266,68.36197250685547,68.45168671650332
50.0,69.40456496281006,69.43738729523442,69.48965195745681,69.38490075139423,69.28317888551523,69.40047253540187
51.5,70.33738729523442,70.33738729523442,70.41855278364653,70.2948182761942,70.18852515087146,70.3159801879152
53.0,71.17071931951494,71.17071931951494,71.28965195745681,71.15500626220502,71.04126847437028,71.16618712527143
54.5,72.00456496281006,71.97071931951493,72.08965195745681,71.95500626220502,71.8412684743703,71.97298447253273
56.0,72.77071931951495,72.7373872952344,72.87546022227335,72.69481827619418,72.57258863988103,72.73131892185214
58.0,73.47071931951493,73.47071931951493,73.57546022227335,73.40494341901228,73.26722270812613,73.43898994445628
60.0,74.1373872952344,74.10456496281004,74.2612219597126,74.06499221069626,73.89362189306675,74.09398574230157
61.5,74.80456496281006,74.73738729523441,74.8896519574568,74.71528002747475,74.56197250685548,74.74312245296147
63.0,75.40456496281006,75.33738729523442,75.48965195745681,75.29528511637777,75.13045776415466,75.33312308591111
65.0,75.9373872952344,75.87071931951493,76.0612219597126,75.83473126291882,75.66722270812612,75.87617248138247
67.0,76.43738729523442,76.40456496281006,76.56122195971258,76.32512849872684,76.14618371336259,76.37705877882941
69.0,76.87071931951495,76.80456496281006,76.98965195745681,76.74544827320256,76.56722270812611,76.7977714191244
71.0,77.33738729523441,77.27071931951494,77.46122195971257,77.19528511637778,76.99907665371326,77.25545660145764
73.0,77.77071931951495,77.60456496281004,77.8612219597126,77.58536865881214,77.37246657007285,77.6421234511448
75.0,78.07071931951494,77.97149268140738,78.1896519574568,77.89528511637778,77.68840352818593,77.96638920959559
77.5,78.30456496281005,78.20456496281005,78.46122195971257,78.15638760577343,77.92540409361008,78.21400741617892
80.0,78.60456496281006,78.40456496281006,78.71855278364653,78.35638760577342,78.12540409361007,78.44676019622179
82.5,78.80456496281006,78.60456496281006,78.87546022227335,78.55638760577342,78.29907665371326,78.6327326775771
85.0,78.90456496281006,78.77224830640877,79.06122195971258,78.6770307948006,78.42540409361007,78.77337227192285
87.5,79.00456496281005,78.80456496281006,79.13293139329731,78.75638760577341,78.49398631278414,78.84401150922626
90.0,79.07224830640875,78.87224830640876,79.21888061079329,78.79758719296466,78.53082191160725,78.90475519809735
92.5,79.10456496281004,78.87224830640876,79.24726255533342,78.79758719296466,78.5154055793669,78.91478440626967
95.0,79.10456496281004,78.87224830640876,79.24726255533342,78.78767599645074,78.48900883943404,78.90805102017823
97.5,79.07224830640875,78.80686703939696,79.20445532904868,78.70794130388663,78.39968606626685,78.84738339731744
100.0,78.97224830640876,78.70686703939697,79.13293139329731,78.60909200674861,78.28998455088175,78.7520590527787
103.0,78.87224830640876,78.60686703939696,79.01888061079327,78.48025917333106,78.13179656201045,78.63299996113791
106.0,78.73892806013428,78.43892806013427,78.91888061079328,78.33020593933756,77.94776607519584,78.48791143133475
109.0,78.57224830640877,78.30686703939695,78.73325813691035,78.13180945167957,77.73240433439767,78.30926942644604
112.0,78.40686703939696,78.10686703939696,78.61888061079328,77.93180945167957,77.53314087880202,78.13577073682139
115.0,78.27224830640877,77.90686703939697,78.41888061079327,77.73226179672558,77.30708860953095,77.94534851186548
118.0,78.07224830640877,77.70686703939695,78.26220331339506,77.53458869654987,77.08622544094325,77.75190414087213
122.0,77.90686703939697,77.47530547622382,78.09128676727485,77.30564821546417,76.80249562327839,77.53999481290111
125.0,77.70686703939695,77.2753054762238,77.93359246591349,77.11622358722981,76.59752243600899,77.35080223385029
128.0,77.57530547622382,77.14200876724188,77.79128676727485,76.91829324499788,76.37745609965636,77.18912931301521
132.0,77.47530547622382,77.01070247870902,77.69128676727485,76.79015882064186,76.18939841800447,77.0631485210353
136.0,77.37530547622383,76.91070247870904,77.61986411755585,76.65201746513725,76.02669059302117,76.95244757149874
140.0,77.37530547622383,76.81070247870905,77.60609223529137,76.54678952084868,75.87077291013729,76.88498404891499
145.0,77.2753054762238,76.74662777307418,77.59128676727485,76.4789198104221,75.6876023613321,76.8052664370155
150.0,77.24423914780935,76.64662777307417,77.50609223529138,76.34283512109243,75.5107128028344,76.70585546786208
155.0,77.17530547622383,76.51606925151061,77.47773987139472,76.24546989117924,75.32680033954377,76.61213550185413
160.0,77.07530547622383,76.41606925151062,77.37904869477902,76.10993618957659,75.09726428758725,76.4868914155869
165.0,77.01070247870902,76.28599714167748,77.29259151503501,75.93241040304027,74.88275903994519,76.3618913796292
170.0,76.87988922284664,76.11606925151064,77.17904869477901,75.78022998034866,74.63869420611283,76.20788583377724
175.0,76.77988922284665,75.98599714167749,77.12214329999951,75.63656388513299,74.39287042245142,76.08493150874527
180.0,76.67988922284665,75.92296452338198,77.05054897210799,75.5278106107424,74.21631769539367,75.9875691991526
185.0,76.67988922284665,75.92296452338198,77.07904869477902,75.49346334265256,74.07209982262836,75.96981418185852
190.0,76.77988922284665,75.89362603508917,77.10869246209066,75.48062602600565,73.94820723819255,75.97745025063843
195.0,76.77988922284665,75.89362603508917,77.10869246209066,75.43686411886797,73.78205592863196,75.94915839815037
200.0,76.77988922284665,75.89362603508917,77.17904869477901,75.4346177987091,73.65502560035164,75.95208372333032
206.0,76.84956466273916,75.89362603508917,77.22378170236888,75.42878549679627,73.51451315782664,75.96366530644373
212.0,76.91606925151063,75.96476261072627,77.32378170236888,75.49441908985374,73.42604449440408,76.02258625617625
218.0,77.01606925151061,76.03138466119036,77.42378170236888,75.52588517097583,73.31913050696701,76.0815631334633
224.0,77.08599714167748,76.1027719196637,77.52378170236888,75.5489355351646,73.24424741897279,76.13669136259871
230.0,77.14956466273912,76.1027719196637,77.59550743157067,75.58519045770778,73.13843156844091,76.16803927750993
236.0,77.24956466273913,76.20277191966369,77.69550743157068,75.65314917790174,73.05632358779955,76.24463836083117
240.0,77.28599714167747,76.20277191966369,77.72378170236887,75.66313939248356,72.91066954874566,76.24977815278727
250.0,77.28599714167747,76.20277191966369,77.7822822498246,75.66653014631763,72.73335920978163,76.25080296562018
258.0,77.28599714167747,76.17462717119743,77.7822822498246,75.65654773751847,72.53902952300014,76.22653303554816
265.0,77.28599714167747,76.17462717119743,77.81064247201859,75.65682332015257,72.37133738126631,76.22064486973422
272.0,77.28599714167747,76.14132524135472,77.79746336932227,75.61515685262664,72.17118327228684,76.18674400331203
280.0,77.32296452338198,76.14132524135472,77.81064247201859,75.627575029531,72.0116131720775,76.18988211915611
290.0,77.28599714167747,76.11343003517065,77.79746336932227,75.5785034239817,71.8040545594258,76.14672765237636
300.0,77.22296452338198,76.01343003517063,77.75313047746856,75.52757502953101,71.54921374977148,76.07017000375409
307.0,77.12296452338197,75.91343003517063,77.6822822498246,75.4393793634856,71.29806803633407,75.97038480571145
315.0,77.05640700037662,75.81343003517064,77.59746336932226,75.3393793634856,71.04320657488012,75.8732742172664
325.0,76.99362603508916,75.75278105986285,77.59746336932226,75.32669948066473,70.84594427440787,75.82988510275247
335.0,77.09362603508916,75.75278105986285,77.69746336932225,75.40298932764655,70.77883227779992,75.8957089331712
345.0,77.09362603508916,75.785995596255,77.75608195029044,75.43304404967746,70.64779723261788,75.91741716892342
355.0,77.03138466119036,75.65278105986285,77.69746336932225,75.34689221831322,70.37447849736171,75.82601365659076
365.0,76.8027719196637,75.42559485524339,77.54304022557436,75.1532073777981,70.02858230180844,75.62032666002516
375.0,76.63636964882002,75.16574614399208,77.37158910379925,74.96699150317083,69.71719074127115,75.42314513828168
387.0,76.57462717119742,75.03926009970125,77.34304022557437,74.86699150317082,69.50958538556651,75.34512719933299
400.0,76.44694572944879,74.83926009970126,77.30232553497424,74.76699150317083,69.24211931141973,75.2296886900368
412.0,76.18599559625498,74.48021376567597,77.07552476611916,74.45723761451318,68.8357652816524,74.94606901243688
425.0,75.685995596255,73.85441874845809,76.61743687442325,73.90695914457707,68.15639339166768,74.41992846106064
437.0,75.05901716143823,73.09617645645245,76.07808647785114,73.24720642406307,67.4191837863507,73.78866022422216
450.0,74.49886204871272,72.47106305695056,75.55142523632797,72.63995272426327,66.73153792593028,73.21481385967658
462.0,73.97257780832236,71.813626023922,75.06569560074429,72.04825987031,66.05163604496538,72.66247800681965
475.0,73.81321995261463,71.53255356963757,75.01448713138075,71.80162768620785,65.72061864884947,72.49911597226529
487.0,74.92906200764294,72.55294950834273,76.18485152105724,72.80736172914263,66.64071902562392,73.59281478325153
500.0,75.9041385977527,73.42982199192136,77.23063202148404,73.6746748969968,67.54688089518937,74.55796569190903
515.0,76.12212291020415,73.4981049138011,77.55013819177618,73.77175083200164,67.59552792903985,74.76518330509865
530.0,74.94156481120984,72.20160731217301,76.61248832938556,72.53563666879417,66.41234045095173,73.6529882712151
545.0,71.98478237386125,69.52035566012614,74.0175884028197,69.69660553886105,64.54797441237092,70.94426508130306
560.0,72.19268293990447,71.34132524135471,73.4477863185505,69.99021257949097,66.04756564254106,71.2259989062288
580.0,74.32296452338197,72.98042545089349,74.73895794831265,71.58681989798447,66.79008131838984,72.82780398448133
600.0,75.09362603508917,73.0657461439921,75.37125008514408,72.00893397450452,66.64394763491221,73.32489885466514
615.0,75.14956466273914,73.15278105986285,75.11220277867115,71.91835454578599,66.61332952793656,73.26282314667299
630.0,77.67530547622381,76.47530547622382,76.39933931456143,74.22637455469103,69.87166364988177,75.62964001334562
650.0,81.66245774436278,80.78357492626013,78.49648231371067,77.14092036456925,74.43940667471011,79.20866626026924
670.0,77.38478237386123,73.44932080003971,79.18527025666175,73.73194063926343,63.80790825985376,75.70081875107874
690.0,77.43990454812793,73.84829406255153,78.96365774605005,73.81737493277625,64.56268205340412,75.69216236262527
710.0,76.91837642588754,73.50812659085301,78.32132191238007,73.20264854296288,64.23871205596727,75.13524614305854
730.0,76.89828615767733,73.58075522450362,78.12157622720449,73.06448701956502,64.27757609205699,75.04013112175204
750.0,77.39886204871273,74.86245470853314,78.01634228257821,73.39909911939841,65.39212993594138,75.42188857707742
775.0,76.72212291020416,73.50812659085301,77.79195504657473,72.42459392026255,62.86644517609966,74.74208995671319
800.0,76.84156481120984,73.70812659085301,78.08119947576579,72.47771925861385,62.865970760312806,74.93381168393672
825.0,77.04638020498459,74.06028060250271,78.05673389164554,72.47821359299994,62.96359153563225,75.0440176435869
850.0,76.88762081003038,74.03370704220588,77.69809076668984,72.07795653646001,62.65259609161035,74.79976457668111
875.0,77.44673726195633,74.78723207864996,78.03913450291445,72.41454464241015,63.03494614853311,75.28335774498282
900.0,77.71321995261462,75.06631068900963,78.33913450291443,72.65168450729963,62.83631621659673,75.55650074930928
925.0,77.49886204871274,75.16286010492952,78.15673389164553,72.38832827021228,62.949422722880115,75.41000986297007
950.0,77.09865452718616,75.09559562512852,77.13248029042764,71.97660471775738,62.8391045538941,74.85592069076615
975.0,77.18357492626012,75.45185411591059,76.68074454606732,72.07094099369714,63.11659312736147,74.83156055640548
1000.0,78.36147874657398,76.38478237386124,78.14875852045036,73.3541349496234,63.58820037415468,76.04869216478518
1030.0,78.78097642825247,76.68723207864996,78.93137767580346,73.79230789038634,63.144632121675144,76.55827176326966
1060.0,79.05396822048014,77.24132940412349,78.64109134968301,74.31130332346157,63.80545175441726,76.73809935965586
1090.0,78.63141102579,78.06341781035555,76.61015156555204,74.36455089283204,65.6775829261959,76.31085846431223
1120.0,79.73157771630589,80.48339868268904,73.02998285535764,76.1957989504007,71.07244339343893,77.48682116452716
1150.0,70.62469662600822,71.23306277719014,70.9681729282034,68.72240712472968,64.18156011626134,69.76792084987297
1180.0,63.74995344891023,63.863359302840934,71.78588617431657,64.64034293549035,61.62602118988197,66.85867294554933
1220.0,66.38256861621329,63.737729425126545,72.37581232591732,64.16761229831758,62.32833629506234,67.53030208929373
1250.0,75.34446003126773,70.59655102519457,72.26141777858491,64.19036255230782,62.121634986461615,71.25755001380163
1280.0,74.12703804838428,68.83503194923117,72.19394064596311,64.15686816031563,58.75242355665131,70.28888434786442
1320.0,73.83990454812793,69.75622058177824,73.21243293859767,68.1661691142681,59.48797149583905,70.93850244479533
1360.0,79.08787428134389,74.59775108289686,75.18620749683444,74.15447430432295,66.408824286869,75.39809405609462
1400.0,81.94771335904683,76.42890295009904,77.93539873954022,72.89958873583416,63.673472323159885,77.55152536069797
1450.0,75.3543235966685,70.47029285260525,76.16369915231441,69.44715938634813,56.26852213848338,72.83404316902777
1500.0,75.22008257988769,70.57250276794579,76.17711921765992,69.5980059235386,55.91320603330594,72.81713603211674
1550.0,74.99295686127685,70.77085664567214,76.12375263754497,69.84936713493973,55.825368831806955,72.7653869718665
1600.0,76.94301067178141,71.80933374747485,76.84925603172644,70.22265030769938,55.435049161851,73.94164582213159
1650.0,74.63554018145742,71.0423482997749,76.4177593217992,67.64711436272957,53.150106830285196,72.63134355689189
1700.0,73.40710258583849,71.35039439640276,76.3749144518051,67.53781608336494,53.38872341807378,72.29689358905595
1750.0,73.7640340230251,72.36139628962984,76.86099905998161,68.44300651648042,54.93335736247255,72.8714441867965
1800.0,73.05315513313717,72.98619607596217,76.73826282728866,67.77256843631082,55.53873418145197,72.7240193007383
1850.0,72.98042545089349,73.14521869193341,76.68760928404119,68.69524724220558,56.34684497008608,72.78618384942827
1900.0,73.15206864856275,73.14199318382661,76.25418122955885,69.29808593647793,58.15273620475128,72.6787936514998
1950.0,70.28320326736069,74.94792632164068,74.58548216903014,70.48499101248383,61.458343754520854,72.2138448923559
2000.0,77.75851461962078,75.31082993863501,77.78187301061848,74.99040462907841,61.275166262725676,75.71828434557692
2060.0,75.51810384697725,73.1996762142572,76.93293554094213,73.541404073588,60.651432990750635,74.13752870913335
2120.0,72.13667839491966,72.7020520647281,73.45201395412629,72.33019492094195,60.90235664615325,71.78737545049479
2180.0,74.34379674794188,73.94301067178142,75.1720646422966,72.0820999645666,60.42847395673333,73.10206445209512
2240.0,75.9041385977527,71.55908735126486,76.60991690449194,70.88603571887137,55.19070618403589,73.48956417024446
2300.0,75.4352957106798,67.77547272416825,76.39226920520765,70.7572199993803,56.635472069100345,72.87299429161259
2360.0,73.22692098062477,69.78097642825247,74.23617594225537,70.06690424612721,56.710719439935616,71.31476792856849
2400.0,72.99061710050779,70.07048299625467,74.0482546523923,70.1818038610592,55.73505694453988,71.2237807924213
2500.0,72.55054118371285,69.77595411729126,73.56387156268428,69.5794612334237,53.59562295222493,70.75641654916541
2580.0,71.9116246219089,67.4498820850212,73.14882615048113,67.75574049357994,51.37328024438666,69.80807383308839
2650.0,71.62081400071271,67.82232772161126,73.36753358636842,67.93342379563892,51.71880412584157,69.8817807401817
2720.0,71.76018246232346,68.16554732891976,73.54846452211945,67.90940496036576,52.56144226192224,70.04753938868748
2800.0,72.65240444886267,68.65322386675723,74.35000344210017,67.99165287468948,52.9697959210868,70.7535887928728
2900.0,73.51503031579996,69.59042422030487,74.65847902504237,68.13937621830564,53.19175853929495,71.30462509092608
3000.0,73.66476261072627,69.65027328038629,74.37573276302525,68.24372282986775,53.94726165117579,71.25740845071078
3070.0,72.2367023582757,68.06064183388351,73.53919870484269,67.49013345365368,53.39591826035259,70.13295914219074
3150.0,71.0074013838599,66.68918457301343,73.02624798020375,66.47001836884797,50.67782792866036,69.23275321392121
3250.0,70.4564879194218,65.95278105986286,72.98384338671609,65.78389704592163,51.207405158941626,68.90362431753488
3350.0,71.16034904151518,66.52386503081624,73.90255185715914,66.29634675493477,51.14050642451265,69.6855733650246
