Freq "Rear Wall Bounce"
22.4 30.296479168866867
23.0 32.043193441155736
23.6 33.75899044672006
24.0 35.44723075983198
25.0 37.131631734428666
25.8 38.76742466335027
26.5 40.37231421486713
27.2 41.96707475499814
28.0 43.51969732974236
29.0 45.07157057685849
30.0 46.56633021922379
30.7 48.060961244093235
31.5 49.496737935446035
32.5 50.93928716928498
33.5 52.31776011135203
34.5 53.69115501659151
35.5 55.00676781931419
36.5 56.29636552306836
37.5 57.54299187872688
38.7 58.785695070248806
40.0 59.94826045594667
41.2 61.12726532105685
42.5 62.25878125960769
43.7 63.34789529281066
45.0 64.43230961291933
46.2 65.47950318624665
47.5 66.48484930179663
48.7 67.45817503850104
50.0 68.3793814171608
51.5 69.28472768251702
53.0 70.13747100601584
54.5 70.93747100601584
56.0 71.6687911715266
58.0 72.36342523977167
60.0 72.98982442471231
61.5 73.65817503850104
63.0 74.22666029580022
65.0 74.76342523977168
67.0 75.24238624500813
69.0 75.66342523977168
71.0 76.09527918535882
73.0 76.4686691017184
75.0 76.78460605983149
77.5 77.02160662525564
80.0 77.22160662525563
82.5 77.39527918535883
85.0 77.52160662525563
87.5 77.5901888444297
90.0 77.62702444325281
92.5 77.61160811101247
95.0 77.58521137107961
97.5 77.49588859791241
100.0 77.38618708252731
103.0 77.22799909365601
106.0 77.0439686068414
109.0 76.82860686604323
112.0 76.62934341044759
115.0 76.40329114117651
118.0 76.1824279725888
122.0 75.89869815492395
125.0 75.69372496765455
128.0 75.4736586313019
132.0 75.28560094965003
136.0 75.12289312466672
140.0 74.96697544178284
145.0 74.78380489297766
150.0 74.60691533447998
155.0 74.4230028711893
160.0 74.19346681923281
165.0 73.97896157159074
170.0 73.73489673775839
175.0 73.48907295409698
180.0 73.31252022703923
185.0 73.16830235427392
190.0 73.04440976983811
195.0 72.87825846027752
200.0 72.7512281319972
206.0 72.6107156894722
212.0 72.52224702604964
218.0 72.41533303861259
224.0 72.34044995061836
230.0 72.23463410008648
236.0 72.15252611944511
240.0 72.00687208039122
250.0 71.82956174142717
258.0 71.63523205464571
265.0 71.46753991291187
272.0 71.2673858039324
280.0 71.10781570372305
290.0 70.90025709107137
300.0 70.64541628141701
307.0 70.39427056797963
315.0 70.13940910652568
325.0 69.94214680605343
335.0 69.87503480944548
345.0 69.74399976426342
355.0 69.47068102900725
365.0 69.12478483345399
375.0 68.81339327291671
387.0 68.60578791721208
400.0 68.3383218430653
412.0 67.93196781329797
425.0 67.25259592331325
437.0 66.51538631799626
450.0 65.82774045757584
462.0 65.14783857661094
475.0 64.81682118049504
487.0 65.73692155726948
500.0 66.64308342683492
515.0 66.6917304606854
530.0 65.50854298259729
545.0 63.64417694401648
560.0 65.14376817418663
580.0 65.88628385003538
600.0 65.74015016655778
615.0 65.70953205958212
630.0 68.96786618152731
650.0 73.53560920635566
670.0 62.904110791499335
690.0 63.65888458504969
710.0 63.33491458761283
730.0 63.37377862370255
750.0 64.48833246758696
775.0 61.96264770774522
800.0 61.962173291958365
825.0 62.05979406727781
850.0 61.748798623255894
875.0 62.13114868017868
900.0 61.93251874824229
925.0 62.045625254525675
950.0 61.93530708553966
975.0 62.21279565900703
1000.0 62.68440290580024
1030.0 62.24083465332072
1060.0 62.90165428606282
1090.0 64.77378545784147
1120.0 70.16864592508448
1150.0 63.2777626479069
1180.0 60.72222372152753
1220.0 61.424538826707916
1250.0 61.217837518107174
1280.0 57.84862608829687
1320.0 58.58417402748461
1360.0 65.50502681851457
1400.0 62.769674854805444
1450.0 55.364724670128936
1500.0 55.0094085649515
1550.0 54.9215713634525
1600.0 54.53125169349656
1650.0 52.246309361930756
1700.0 52.48492594971934
1750.0 54.02955989411811
1800.0 54.63493671309752
1850.0 55.44304750173164
1900.0 57.24893873639682
1950.0 60.55454628616643
2000.0 60.37136879437122
2060.0 59.74763552239618
2120.0 59.998559177798825
2180.0 59.52467648837889
2240.0 54.28690871568145
2300.0 55.731674600745905
2360.0 55.806921971581176
2400.0 54.83125947618545
2500.0 52.69182548387049
2580.0 50.46948277603225
2650.0 50.81500665748713
2720.0 51.6576447935678
2800.0 52.06599845273236
2900.0 52.28796107094051
3000.0 53.04346418282135
3070.0 52.49212079199815
3150.0 49.77403046030592
3250.0 50.303607690587214
3350.0 50.23670895615821
3450.0 50.87413663785823
3550.0 51.815138580018626
3650.0 52.64619246227643
3750.0 53.77574572445276
3870.0 52.70087064842254
4000.0 52.088645479897096
4120.0 51.59498332340986
4250.0 51.57586463628327
4370.0 52.49682885101193
4500.0 52.27074780301437
4620.0 51.483364733958254
4750.0 50.92500046323117
4870.0 50.40607609151853
5000.0 49.977328434064574
5150.0 49.83103313384255
5300.0 49.35441173505721
5450.0 51.33340094389952
5600.0 52.44919246995069
5800.0 52.15810536533708
6000.0 48.55798740101055
6150.0 46.7208745830704
6300.0 47.231358951485234
6500.0 47.24910642487903
6700.0 47.952627196434875
6900.0 46.86132337416025
7100.0 45.45309758081659
7300.0 44.80833824968015
7500.0 44.38303551274426
7750.0 45.6272718756001
8000.0 48.459254509651416
8250.0 49.71308581634098
8500.0 47.21789299552823
8750.0 45.45441118955161
9000.0 46.339586950976994
9250.0 48.54665176205684
9500.0 49.0163867093827
9750.0 49.2545271081171
10000.0 48.84981564346727
10300.0 51.000652463990335
10600.0 50.894533156294145
10900.0 47.848673631906124
11200.0 42.76749636924977
11500.0 38.08679171207079
11800.0 45.56395331493705
12200.0 45.73282049027857
12500.0 46.782581790048496
12800.0 48.339710545611254
13200.0 47.07542428937079
13600.0 47.28452238526221
14000.0 48.3373282384611
14500.0 48.79313996499981
15000.0 39.01587434139903
15500.0 47.55193983398628
16000.0 50.36124926287293
16500.0 41.350548407072225
17000.0 38.20800831035659
17500.0 47.380703546419156
18000.0 39.51690236526004
18500.0 37.77546287445263
19000.0 38.398320200329536
19500.0 36.33141308379983
