Freq "Rear Wall Bounce"
22.4 31.20027663722128
23.0 32.94699090951018
23.6 34.6627879150745
24.0 36.35102822818642
25.0 38.03542920278311
25.8 39.67122213170471
26.5 41.276111683221544
27.2 42.87087222335258
28.0 44.4234947980968
29.0 45.97536804521293
30.0 47.47012768757823
30.7 48.964758712447676
31.5 50.400535403800475
32.5 51.84308463763939
33.5 53.22155757970647
34.5 54.594952484945935
35.5 55.91056528766863
36.5 57.200162991422815
37.5 58.44678934708131
38.7 59.68949253860326
40.0 60.85205792430111
41.2 62.031062789411294
42.5 63.16257872796213
43.7 64.25169276116507
45.0 65.33610708127374
46.2 66.38330065460109
47.5 67.38864677015108
48.7 68.36197250685547
50.0 69.28317888551523
51.5 70.18852515087146
53.0 71.04126847437028
54.5 71.8412684743703
56.0 72.57258863988103
58.0 73.26722270812613
60.0 73.89362189306675
61.5 74.56197250685548
63.0 75.13045776415466
65.0 75.66722270812612
67.0 76.14618371336259
69.0 76.56722270812611
71.0 76.99907665371326
73.0 77.37246657007285
75.0 77.68840352818593
77.5 77.92540409361008
80.0 78.12540409361007
82.5 78.29907665371326
85.0 78.42540409361007
87.5 78.49398631278414
90.0 78.53082191160725
92.5 78.5154055793669
95.0 78.48900883943404
97.5 78.39968606626685
100.0 78.28998455088175
103.0 78.13179656201045
106.0 77.94776607519584
109.0 77.73240433439767
112.0 77.53314087880202
115.0 77.30708860953095
118.0 77.08622544094325
122.0 76.80249562327839
125.0 76.59752243600899
128.0 76.37745609965636
132.0 76.18939841800447
136.0 76.02669059302117
140.0 75.87077291013729
145.0 75.6876023613321
150.0 75.5107128028344
155.0 75.32680033954377
160.0 75.09726428758725
165.0 74.88275903994519
170.0 74.63869420611283
175.0 74.39287042245142
180.0 74.21631769539367
185.0 74.07209982262836
190.0 73.94820723819255
195.0 73.78205592863196
200.0 73.65502560035164
206.0 73.51451315782664
212.0 73.42604449440408
218.0 73.31913050696701
224.0 73.24424741897279
230.0 73.13843156844091
236.0 73.05632358779955
240.0 72.91066954874566
250.0 72.73335920978163
258.0 72.53902952300014
265.0 72.37133738126631
272.0 72.17118327228684
280.0 72.0116131720775
290.0 71.8040545594258
300.0 71.54921374977148
307.0 71.29806803633407
315.0 71.04320657488012
325.0 70.84594427440787
335.0 70.77883227779992
345.0 70.64779723261788
355.0 70.37447849736171
365.0 70.02858230180844
375.0 69.71719074127115
387.0 69.50958538556651
400.0 69.24211931141973
412.0 68.8357652816524
425.0 68.15639339166768
437.0 67.4191837863507
450.0 66.73153792593028
462.0 66.05163604496538
475.0 65.72061864884947
487.0 66.64071902562392
500.0 67.54688089518937
515.0 67.59552792903985
530.0 66.41234045095173
545.0 64.54797441237092
560.0 66.04756564254106
580.0 66.79008131838984
600.0 66.64394763491221
615.0 66.61332952793656
630.0 69.87166364988177
650.0 74.43940667471011
670.0 63.80790825985376
690.0 64.56268205340412
710.0 64.23871205596727
730.0 64.27757609205699
750.0 65.39212993594138
775.0 62.86644517609966
800.0 62.865970760312806
825.0 62.96359153563225
850.0 62.65259609161035
875.0 63.03494614853311
900.0 62.83631621659673
925.0 62.949422722880115
950.0 62.8391045538941
975.0 63.11659312736147
1000.0 63.58820037415468
1030.0 63.144632121675144
1060.0 63.80545175441726
1090.0 65.6775829261959
1120.0 71.07244339343893
1150.0 64.18156011626134
1180.0 61.62602118988197
1220.0 62.32833629506234
1250.0 62.121634986461615
1280.0 58.75242355665131
1320.0 59.48797149583905
1360.0 66.408824286869
1400.0 63.673472323159885
1450.0 56.26852213848338
1500.0 55.91320603330594
1550.0 55.825368831806955
1600.0 55.435049161851
1650.0 53.150106830285196
1700.0 53.38872341807378
1750.0 54.93335736247255
1800.0 55.53873418145197
1850.0 56.34684497008608
1900.0 58.15273620475128
1950.0 61.458343754520854
2000.0 61.275166262725676
2060.0 60.651432990750635
2120.0 60.90235664615325
2180.0 60.42847395673333
2240.0 55.19070618403589
2300.0 56.635472069100345
2360.0 56.710719439935616
2400.0 55.73505694453988
2500.0 53.59562295222493
2580.0 51.37328024438666
2650.0 51.71880412584157
2720.0 52.56144226192224
2800.0 52.9697959210868
2900.0 53.19175853929495
3000.0 53.94726165117579
3070.0 53.39591826035259
3150.0 50.67782792866036
3250.0 51.207405158941626
3350.0 51.14050642451265
3450.0 51.77793410621267
3550.0 52.71893604837307
3650.0 53.549989930630844
3750.0 54.67954319280723
3870.0 53.60466811677698
4000.0 52.992442948251565
4120.0 52.498780791764304
4250.0 52.47966210463771
4370.0 53.40062631936637
4500.0 53.174545271368814
4620.0 52.387162202312695
4750.0 51.82879793158561
4870.0 51.30987355987297
5000.0 50.881125902419015
5150.0 50.73483060219699
5300.0 50.25820920341165
5450.0 52.23719841225393
5600.0 53.35298993830513
5800.0 53.06190283369152
6000.0 49.46178486936499
6150.0 47.62467205142484
6300.0 48.135156419839674
6500.0 48.15290389323347
6700.0 48.85642466478929
6900.0 47.76512084251469
7100.0 46.35689504917106
7300.0 45.71213571803459
7500.0 45.28683298109867
7750.0 46.53106934395454
8000.0 49.363051978005856
8250.0 50.61688328469542
8500.0 48.12169046388267
8750.0 46.35820865790605
9000.0 47.243384419331434
9250.0 49.45044923041125
9500.0 49.92018417773717
9750.0 50.15832457647154
10000.0 49.75361311182171
10300.0 51.904449932344775
10600.0 51.798330624648585
10900.0 48.752471100260564
11200.0 43.67129383760421
11500.0 38.99058918042523
11800.0 46.46775078329149
12200.0 46.63661795863301
12500.0 47.68637925840294
12800.0 49.243508013965695
13200.0 47.97922175772523
13600.0 48.18831985361665
14000.0 49.24112570681554
14500.0 49.69693743335425
15000.0 39.91967180975347
15500.0 48.45573730234072
16000.0 51.26504673122737
16500.0 42.25434587542664
17000.0 39.11180577871103
17500.0 48.284501014773596
18000.0 40.42069983361448
18500.0 38.67926034280704
19000.0 39.30211766868398
19500.0 37.23521055215427
