Freq "Floor Bounce"
22.4 19.255623098444033
23.0 20.822056912814674
23.6 22.422056912814668
24.0 23.922056912814668
25.0 25.45562309844405
25.8 27.02205691281469
26.5 28.72205691281468
27.2 30.355623098444028
28.0 32.02205691281466
29.0 33.622056912814685
30.0 35.02205691281469
30.7 36.287438179826495
31.5 37.32205691281467
32.5 38.055623098444045
33.5 38.622056912814685
34.5 38.95562309844402
35.5 39.25562309844403
36.5 39.52205691281469
37.5 39.82205691281467
38.7 40.1874381798265
40.0 40.72205691281468
41.2 41.42205691281467
42.5 42.32205691281467
43.7 43.32205691281467
45.0 44.32205691281467
46.2 45.32205691281467
47.5 46.3220569128147
48.7 47.15562309844401
50.0 47.85562309844403
51.5 48.32205691281469
53.0 48.622056912814685
54.5 48.92205691281467
56.0 49.122056912814685
58.0 49.42205691281468
60.0 49.82205691281469
61.5 50.522056912814676
63.0 51.42205691281467
65.0 52.72205691281468
67.0 54.32205691281467
69.0 56.055623098444016
71.0 57.92205691281467
73.0 59.82205691281467
75.0 61.72205691281468
77.5 63.42205691281468
80.0 64.92205691281468
82.5 66.22205691281468
85.0 67.2220569128147
87.5 68.02205691281468
90.0 68.62205691281468
92.5 69.02205691281469
95.0 69.35562309844403
97.5 69.62205691281467
100.0 69.7220569128147
103.0 69.92205691281468
106.0 70.02205691281469
109.0 70.12205691281468
112.0 70.22205691281468
115.0 70.2874381798265
118.0 70.32205691281467
122.0 70.38743817982649
125.0 70.42205691281467
128.0 70.48743817982648
132.0 70.52205691281468
136.0 70.58743817982649
140.0 70.62205691281468
145.0 70.72205691281468
150.0 70.82205691281467
155.0 70.99049534964155
160.0 71.19049534964154
165.0 71.39049534964154
170.0 71.59049534964153
175.0 71.89049534964153
180.0 72.09049534964154
185.0 72.29049534964153
190.0 72.42589235212675
195.0 72.49049534964155
200.0 72.45942902122707
206.0 72.35942902122707
212.0 72.15942902122708
218.0 71.92589235212675
224.0 71.65942902122707
230.0 71.35942902122706
236.0 71.09507909626439
240.0 70.85942902122707
250.0 70.72589235212675
258.0 70.62589235212674
265.0 70.62589235212674
272.0 70.65942902122708
280.0 70.75942902122708
290.0 70.85942902122707
300.0 70.92885362849546
307.0 70.99507909626436
315.0 71.02885362849545
325.0 70.96475453615685
335.0 70.9011870150952
345.0 70.8011870150952
355.0 70.63491426403924
365.0 70.47159687379433
375.0 70.30881590850689
387.0 70.14248419243197
400.0 69.97995248414398
412.0 69.88981704461513
425.0 69.78981704461515
437.0 69.76213560286651
450.0 69.67420703485595
462.0 69.64767979545013
475.0 69.58776768174008
487.0 69.52840982603234
500.0 69.46192713537405
515.0 69.36192713537406
530.0 69.26192713537407
545.0 69.10281068344811
560.0 69.06192713537406
580.0 69.0028106834481
600.0 68.98776768174007
615.0 69.06192713537406
630.0 69.18776768174007
650.0 69.4215989007258
670.0 69.7215989007258
690.0 70.06192713537406
710.0 70.36192713537406
730.0 70.63652537417151
750.0 70.87075655281441
775.0 71.01155745590826
800.0 71.0870184083345
825.0 71.0047251533517
850.0 70.74710834667164
875.0 70.4670439893283
900.0 70.08840720543944
925.0 69.66883884863914
950.0 69.22098637339373
975.0 68.79353791547325
1000.0 68.39077867373422
1030.0 68.07016751636789
1060.0 67.79883968183468
1090.0 67.54264550182279
1120.0 67.27845067890794
1150.0 67.06383124738426
1180.0 66.7638269251708
1220.0 66.41941643504609
1250.0 65.99062361016331
1280.0 65.42198243072913
1320.0 64.80252253303192
1360.0 64.13957916883146
1400.0 63.44510660429876
1450.0 62.775557489810694
1500.0 62.11370951827688
1550.0 61.569975576784344
1600.0 61.07076171711958
1650.0 60.64910800152025
1700.0 60.334912730571986
1750.0 60.03789714318913
1800.0 59.9213249213572
1850.0 59.864260410608196
1900.0 59.83596810626882
1950.0 59.897731961356996
2000.0 59.996638716453575
2060.0 60.16625226680999
2120.0 60.31998004307947
2180.0 60.515799230879594
2240.0 60.75340769268405
2300.0 61.01195740096357
2360.0 61.25777355566092
2400.0 61.53071709587374
2500.0 61.86105112313268
2580.0 62.2337325999722
2650.0 62.63731634241343
2720.0 63.07096937130764
2800.0 63.58125653834941
2900.0 64.08484461772471
3000.0 64.57702256327478
3070.0 65.0589866213596
3150.0 65.54774344305531
3250.0 65.90059942710637
3350.0 66.20059942710637
3450.0 66.42396402854023
3550.0 66.60858262738414
3650.0 66.74275185108182
3750.0 66.83766728326546
3870.0 66.8109152213027
4000.0 66.79215798074105
4120.0 66.75012201866099
4250.0 66.68166924996113
4370.0 66.53803183962557
4500.0 66.47547047592042
4620.0 66.30343496540226
4750.0 66.26475957656868
4870.0 66.21383398632676
5000.0 66.19524169319854
5150.0 66.32706585232914
5300.0 66.42706585232914
5450.0 66.60936618224935
5600.0 66.79199943421625
5800.0 66.96021787214055
6000.0 67.09199943421626
6150.0 67.17496064261586
6300.0 67.20736993411118
6500.0 67.1073699341112
6700.0 66.9402856462082
6900.0 66.7402856462082
7100.0 66.52381989548405
7300.0 66.20765224208048
7500.0 65.94134555891742
7750.0 65.64134555891744
8000.0 65.34134555891744
8250.0 65.09182633625943
8500.0 64.89182633625943
8750.0 64.74288261116025
9000.0 64.56200837284759
9250.0 64.41460450110658
9500.0 64.26777434910133
9750.0 64.13654447765882
10000.0 64.02151707999973
10300.0 63.89067265532438
10600.0 63.790672655324386
10900.0 63.69067265532439
11200.0 63.5906726553244
11500.0 63.621517079999734
11800.0 63.69067265532439
12200.0 63.790672655324386
12500.0 64.02151707999973
12800.0 64.23654447765881
13200.0 64.62151707999973
13600.0 64.93654447765881
14000.0 65.32151707999972
14500.0 65.62151707999972
15000.0 65.73654447765881
15500.0 65.82151707999974
16000.0 65.73654447765881
16500.0 65.43654447765883
17000.0 65.02151707999974
17500.0 64.42151707999973
18000.0 63.72151707999973
18500.0 63.021517079999725
19000.0 62.22151707999973
19500.0 61.43654447765881
