Freq "Front Wall Bounce"
22.4 19.214427463397442
23.0 20.771662753918918
23.6 22.35742449135816
24.0 23.871662753918912
25.0 25.41442746339746
25.8 27.0
26.5 28.657424491358142
27.2 30.34313939533783
28.0 31.971662753918906
29.0 33.55742449135815
30.0 34.971662753918906
30.7 36.243139395337806
31.5 37.257424491358165
32.5 38.04313939533782
33.5 38.5716627539189
34.5 38.94313939533782
35.5 39.21442746339744
36.5 39.471662753918906
37.5 39.77166275391892
38.7 40.14313939533781
40.0 40.65742449135814
41.2 41.37166275391891
42.5 42.27166275391892
43.7 43.257424491358165
45.0 44.27166275391892
46.2 45.34313939533783
47.5 46.27166275391892
48.7 47.14313939533781
50.0 47.814427463397465
51.5 48.27166275391889
53.0 48.599999999999994
54.5 48.843139395337815
56.0 49.0716627539189
58.0 49.37166275391891
60.0 49.8
61.5 50.471662753918906
63.0 51.400000000000006
65.0 52.67166275391891
67.0 54.243139395337835
69.0 56.01442746339747
71.0 57.87166275391891
73.0 59.7716627539189
75.0 61.65742449135816
77.5 63.400000000000006
80.0 64.94313939533782
82.5 66.17166275391891
85.0 67.19999999999999
87.5 67.9716627539189
90.0 68.5716627539189
92.5 69.01442746339745
95.0 69.3431393953378
97.5 69.5716627539189
100.0 69.74313939533782
103.0 69.85742449135816
106.0 69.95742449135815
109.0 70.04313939533782
112.0 70.08585448910237
115.0 70.15742449135814
118.0 70.17166275391891
122.0 70.2147553152921
125.0 70.25742449135815
128.0 70.30065786069426
132.0 70.34346508697898
136.0 70.40065786069425
140.0 70.45742449135814
145.0 70.5716627539189
150.0 70.71508314243883
155.0 70.87166275391891
160.0 71.04346508697898
165.0 71.31508314243885
170.0 71.51508314243883
175.0 71.81508314243884
180.0 72.01508314243884
185.0 72.21508314243883
190.0 72.37297191737704
195.0 72.44412398190063
200.0 72.42979499755904
206.0 72.30130813607781
212.0 72.10130813607779
218.0 71.83044092512276
224.0 71.53044092512275
230.0 71.21606664920141
236.0 70.91606664920141
240.0 70.65971162455999
250.0 70.45971162455999
258.0 70.31801062006426
265.0 70.24638849111075
272.0 70.24638849111075
280.0 70.27622924621438
290.0 70.34638849111074
300.0 70.40454428904084
307.0 70.4762292462144
315.0 70.50454428904085
325.0 70.50454428904085
335.0 70.41769047133513
345.0 70.40454428904084
355.0 70.30454428904085
365.0 70.21769047133515
375.0 70.11769047133515
387.0 70.07361898907655
400.0 70.05905509047517
412.0 70.04510093472827
425.0 70.07361898907655
437.0 70.11606664920141
450.0 70.14510093472826
462.0 70.18748929892041
475.0 70.20229476693692
487.0 70.20229476693692
500.0 70.13175513861907
515.0 70.03175513861908
530.0 69.93175513861905
545.0 69.79009840257405
560.0 69.64770564348939
580.0 69.52124978319365
600.0 69.44963652984531
615.0 69.39497765699284
630.0 69.4248458197569
650.0 69.5248458197569
670.0 69.71231286508058
690.0 69.91548751763068
710.0 70.14624629512439
730.0 70.36085313867372
750.0 70.5764503209539
775.0 70.73318639800505
800.0 70.82124129132606
825.0 70.82124129132606
850.0 70.76085313867371
875.0 70.63318639800505
900.0 70.51743277830693
925.0 70.33318639800507
950.0 70.2023346551486
975.0 70.05932909922397
1000.0 70.01743277830694
1030.0 70.00458551926982
1060.0 70.03318639800506
1090.0 70.1203857253813
1120.0 70.19460907312816
1150.0 70.27017698064472
1180.0 70.34398885019604
1220.0 70.34398885019604
1250.0 70.306340829963
1280.0 70.20634082996301
1320.0 70.02250186488519
1360.0 69.79512482609096
1400.0 69.56602310454484
1450.0 69.35496037582864
1500.0 69.13854556059216
1550.0 68.95496037582863
1600.0 68.85496037582864
1650.0 68.82605213543434
1700.0 68.86721895982187
1750.0 68.9572031995477
1800.0 69.0682602238869
1850.0 69.21320081728314
1900.0 69.34504696967853
1950.0 69.44504696967853
2000.0 69.53313448527203
2060.0 69.54504696967854
2120.0 69.52046950720225
2180.0 69.44734704606772
2240.0 69.3316448019434
2300.0 69.22010058180872
2360.0 69.07754255067522
2400.0 68.9160523674973
2500.0 68.71605236749728
2580.0 68.55313546327987
2650.0 68.36395122491425
2720.0 68.21611914341102
2800.0 68.02524878356157
2900.0 67.88148548659561
3000.0 67.73564480912574
3070.0 67.62255294462022
3150.0 67.50972084547199
3250.0 67.41371586529795
3350.0 67.34841707665443
3450.0 67.27356537723091
3550.0 67.2115702207797
3650.0 67.1593018675828
3750.0 67.11128990683744
3870.0 67.0046075326891
4000.0 66.90802078063055
4120.0 66.78627701554248
4250.0 66.62686452926815
4370.0 66.47425730147826
4500.0 66.32879698388484
4620.0 66.20988830848867
4750.0 66.13558013635364
4870.0 66.11238838499614
5000.0 66.09952617288016
5150.0 66.21601723935356
5300.0 66.36355045348344
5450.0 66.53061643143053
5600.0 66.70799064456173
5800.0 66.89617440551964
6000.0 67.02122152435112
6150.0 67.11128362425251
6300.0 67.1316372258035
6500.0 67.06056724401283
6700.0 66.93044038760203
6900.0 66.71371397903906
7100.0 66.46491660328432
7300.0 66.21433488829621
7500.0 65.93391547071657
7750.0 65.69152004947986
8000.0 65.45810512567715
8250.0 65.310827426972
8500.0 65.1634687782086
8750.0 65.05143069175229
9000.0 64.99455346742376
9250.0 64.93252160193731
9500.0 64.88868665415102
9750.0 64.82842726279277
10000.0 64.74526021135577
10300.0 64.66264027544351
10600.0 64.57190515100021
10900.0 64.52547010809606
11200.0 64.42547010809605
11500.0 64.42547010809605
11800.0 64.45131069356364
12200.0 64.54052191275021
12500.0 64.74526021135577
12800.0 65.00783162243437
13200.0 65.33060074030173
13600.0 65.68740722694582
14000.0 66.03060074030172
14500.0 66.33060074030173
15000.0 66.51927504920576
15500.0 66.54526021135577
16000.0 66.46735451657918
16500.0 66.20783162243437
17000.0 65.74526021135577
17500.0 65.14526021135578
18000.0 64.46735451657919
18500.0 63.74526021135577
19000.0 62.96735451657919
19500.0 62.207831622434355
