Freq "Rear Wall Bounce"
22.4 19.140232174196285
23.0 20.71402386864372
23.6 22.266642898321038
24.0 23.808811766484467
25.0 25.334930701164154
25.8 26.929622748664315
26.5 28.5774071070731
27.2 30.24552718356057
28.0 31.90881176648446
29.0 33.466642898321055
30.0 34.90881176648446
30.7 36.14023217419631
31.5 37.177407107073094
32.5 37.93493070116415
33.5 38.48265701267971
34.5 38.84552718356056
35.5 39.134930701164166
36.5 39.40359340160364
37.5 39.677284745396946
38.7 40.056097874196524
40.0 40.58265701267973
41.2 41.314023868643716
42.5 42.18265701267973
43.7 43.177407107073094
45.0 44.20881176648447
46.2 45.24023217419631
47.5 46.20881176648447
48.7 47.04552718356058
50.0 47.734930701164146
51.5 48.203593401603655
53.0 48.53493070116414
54.5 48.74552718356057
56.0 48.98265701267971
58.0 49.30359340160365
60.0 49.734930701164146
61.5 50.382657012679715
63.0 51.334930701164126
65.0 52.61935090868471
67.0 54.16149639756628
69.0 55.934930701164134
71.0 57.80881176648447
73.0 59.71402386864372
75.0 61.5774071070731
77.5 63.32962274866432
80.0 64.84023217419629
82.5 66.10881176648446
85.0 67.12974364459708
87.5 67.90359340160367
90.0 68.50359340160365
92.5 68.9402321741963
95.0 69.25609787419651
97.5 69.48790057967597
100.0 69.64023217419629
103.0 69.75622083425885
106.0 69.8613735867803
109.0 69.9402321741963
112.0 70.01402386864373
115.0 70.0719058243328
118.0 70.10359340160366
122.0 70.12479245644326
125.0 70.13541367408591
128.0 70.16197922049903
132.0 70.18838603265924
136.0 70.22008077347735
140.0 70.25731332736538
145.0 70.33639070557014
150.0 70.39447606430015
155.0 70.48924043516237
160.0 70.60542040953776
165.0 70.74698643542817
170.0 70.90043585681654
175.0 71.06369262301817
180.0 71.17935626771666
185.0 71.26931586761415
190.0 71.34351574773778
195.0 71.31790298316471
200.0 71.20773342073821
206.0 70.99775848670843
212.0 70.70321902066678
218.0 70.35702473604468
224.0 69.9475184870971
230.0 69.52228488223666
236.0 69.07638924289418
240.0 68.65145182081355
250.0 68.23312987304344
258.0 67.86678256615924
265.0 67.55371079621659
272.0 67.24589805858879
280.0 66.99690410790926
290.0 66.75827627508087
300.0 66.57191215618808
307.0 66.37709541686846
315.0 66.23540520351814
325.0 66.09369240322718
335.0 65.96435744446039
345.0 65.86117722485194
355.0 65.77148072525785
365.0 65.68617263865414
375.0 65.65016316443342
387.0 65.60956328095745
400.0 65.60619845799548
412.0 65.60514073243463
425.0 65.6350509477638
437.0 65.641274587307
450.0 65.63597352105
462.0 65.59054779643706
475.0 65.53549829157564
487.0 65.41587125737193
500.0 65.23271155685973
515.0 64.99184335967266
530.0 64.70267958278959
545.0 64.35709743206144
560.0 63.997765166598256
580.0 63.688511839756046
600.0 63.389762670409525
615.0 63.127877598246215
630.0 62.93639312850327
650.0 62.8233913086773
670.0 62.79068682838171
690.0 62.78901077077123
710.0 62.829078925860756
730.0 62.85958065436104
750.0 62.86518116667611
775.0 62.84415053369909
800.0 62.7622550432111
825.0 62.59326646223502
850.0 62.3528810749725
875.0 62.06385056872075
900.0 61.710993526627334
925.0 61.32831543265425
950.0 60.9680660304013
975.0 60.570934861086585
1000.0 60.24203462379087
1030.0 59.93535277764596
1060.0 59.66678961409488
1090.0 59.43124102266563
1120.0 59.23922852297869
1150.0 59.088164391560554
1180.0 58.960265255877616
1220.0 58.84314833583446
1250.0 58.78704265693412
1280.0 58.7218493903725
1320.0 58.65950089230972
1360.0 58.627251872204965
1400.0 58.60076876103062
1450.0 58.595841835670925
1500.0 58.54248213494476
1550.0 58.499084083762995
1600.0 58.413838507378884
1650.0 58.30106705175831
1700.0 58.151350439608166
1750.0 57.98260973765419
1800.0 57.75369447673023
1850.0 57.53721900704335
1900.0 57.27921113864545
1950.0 57.02299204036093
2000.0 56.75208620327196
2060.0 56.43942904538437
2120.0 56.1476834117413
2180.0 55.83688524586853
2240.0 55.51054648190798
2300.0 55.179172651459524
2360.0 54.83528172486895
2400.0 54.486557822255435
2500.0 54.135464741320234
2580.0 53.76274983201816
2650.0 53.42358791432375
2720.0 53.0625382344424
2800.0 52.731147433350486
2900.0 52.4205182053537
3000.0 52.1333112828643
3070.0 51.870913604953245
3150.0 51.635319059487415
3250.0 51.426506527784795
3350.0 51.234498322834014
3450.0 51.02503752409683
3550.0 50.81582946788089
3650.0 50.55504889275289
3750.0 50.24915309742937
3870.0 49.91075590734795
4000.0 49.484384194804875
4120.0 48.94526936551539
4250.0 48.3605121294581
4370.0 47.72266934185876
4500.0 47.11781692824604
4620.0 46.5158632638267
4750.0 45.98840999865732
4870.0 45.50987811536521
5000.0 45.14119368882771
5150.0 44.919266866164605
5300.0 44.76477599198131
5450.0 44.76080117619247
5600.0 44.73428139334956
5800.0 44.762707290781236
6000.0 44.79326157829999
6150.0 44.759289894175
6300.0 44.66578467545
6500.0 44.46127227591353
6700.0 44.19308309229322
6900.0 43.87033730442971
7100.0 43.52165079250264
7300.0 43.11721013117875
7500.0 42.73727888313522
7750.0 42.38120854060827
8000.0 42.08052118330272
8250.0 41.78381935080202
8500.0 41.58429907876635
8750.0 41.37233324957984
9000.0 41.222677150772114
9250.0 41.10137911237027
9500.0 41.00398800471427
9750.0 40.9144656581247
10000.0 40.79696141673679
10300.0 40.707183796046365
10600.0 40.58444059296815
10900.0 40.51349250558053
11200.0 40.45196583144093
11500.0 40.44976255848809
11800.0 40.44613452384402
12200.0 40.57525287536308
12500.0 40.77288180280581
12800.0 41.05110116231643
13200.0 41.37316682376522
13600.0 41.74667389830901
14000.0 42.06563086106908
14500.0 42.35529916165447
15000.0 42.55110116231643
15500.0 42.63405609509064
16000.0 42.532723139244155
16500.0 42.23607282749856
17000.0 41.781934328599306
17500.0 41.18969434623054
18000.0 40.53175724248854
18500.0 39.78660874667352
19000.0 39.032723139244155
19500.0 38.25217301963619
