Freq "Side Wall Bounce"
22.4 58.98651409924328
23.0 60.18651409924327
23.6 61.386514099243286
24.0 62.522193395286635
25.0 63.68651409924327
25.8 64.81324234397194
26.5 65.98651409924325
27.2 67.08651409924327
28.0 68.18651409924327
29.0 69.29443680234216
30.0 70.38651409924329
30.7 71.48651409924325
31.5 72.56322338815808
32.5 73.6508577429063
33.5 74.78651409924326
34.5 75.88651409924329
35.5 77.03424601954659
36.5 78.19443680234217
37.5 79.38651409924329
38.7 80.58651409924329
40.0 81.78651409924328
41.2 82.91432121200896
42.5 84.08651409924329
43.7 85.28651409924328
45.0 86.38651409924327
46.2 87.51432121200897
47.5 88.61553140288261
48.7 89.68651409924327
50.0 90.72543681345643
51.5 91.69648583804658
53.0 92.68651409924328
54.5 93.58651409924327
56.0 94.38651409924329
58.0 95.18651409924328
60.0 95.90439038739737
61.5 96.58651409924329
63.0 97.18651409924327
65.0 97.68651409924328
67.0 98.10234507860748
69.0 98.49443680234216
71.0 98.79443680234218
73.0 99.02993444621096
75.0 99.23980709791229
77.5 99.34781538807833
80.0 99.44781538807833
82.5 99.47780120589584
85.0 99.4867074680973
87.5 99.45580893831776
90.0 99.36476036882054
92.5 99.25580893831776
95.0 99.13384069931459
97.5 98.96476036882055
100.0 98.80368565865179
103.0 98.62395445964486
106.0 98.42808409103625
109.0 98.21590200845797
112.0 98.02808409103626
115.0 97.82003930023997
118.0 97.6023450786075
122.0 97.39443680234217
125.0 97.19443680234218
128.0 97.05769223237644
132.0 96.8787577503474
136.0 96.75350008123243
140.0 96.60113944850436
145.0 96.48238778494864
150.0 96.38601801759631
155.0 96.3043026148545
160.0 96.2083527632206
165.0 96.1487085294978
170.0 96.05832104978245
175.0 96.02743071444192
180.0 95.9470663277996
185.0 95.92381576958645
190.0 95.88410711503556
195.0 95.8607027355845
200.0 95.83153130969073
206.0 95.81860505271867
212.0 95.7764402827063
218.0 95.79205375852582
224.0 95.76418998438447
230.0 95.75813930017777
236.0 95.73083634276128
240.0 95.7149711791477
250.0 95.69331900317376
258.0 95.70193858437575
265.0 95.6785976633096
272.0 95.62625921136025
280.0 95.6151192948039
290.0 95.59491810666108
300.0 95.54929769090394
307.0 95.49634964366966
315.0 95.4689259657787
325.0 95.43394582820004
335.0 95.39948755829775
345.0 95.35998612644956
355.0 95.31617409466605
365.0 95.24791944412561
375.0 95.20610789438265
387.0 95.15062639114262
400.0 95.08212181042528
412.0 95.01441590373985
425.0 94.98577009072007
437.0 94.88577009072007
450.0 94.81481382882976
462.0 94.75306368596084
475.0 94.6650376521193
487.0 94.59097321739189
500.0 94.49222717722553
515.0 94.41926546030116
530.0 94.31796315933569
545.0 94.23074081881028
560.0 94.15137284156678
580.0 94.04976001023212
600.0 93.94717799770713
615.0 93.86464946262858
630.0 93.74347358042807
650.0 93.66136639579324
670.0 93.53788606644883
690.0 93.44061539832174
710.0 93.3263859557666
730.0 93.2163369444629
750.0 93.12191995000033
775.0 93.00610555598159
800.0 92.9059454016437
825.0 92.79630384793224
850.0 92.6800220177889
875.0 92.56850010061768
900.0 92.47450927147241
925.0 92.37923337236667
950.0 92.26342987243181
975.0 92.1523850148371
1000.0 92.04523700813483
1030.0 91.97237478706555
1060.0 91.85048442561522
1090.0 91.77957170039282
1120.0 91.68423998832813
1150.0 91.59214947564143
1180.0 91.50678558761196
1220.0 91.40678558761194
1250.0 91.31329738295119
1280.0 91.23350803492826
1320.0 91.16183627288525
1360.0 91.06693534906971
1400.0 90.99243031484667
1450.0 90.9261033827384
1500.0 90.8261033827384
1550.0 90.75179580994198
1600.0 90.68547757320793
1650.0 90.59892690133123
1700.0 90.54561382000384
1750.0 90.45591241219192
1800.0 90.3951145220502
1850.0 90.33726481202378
1900.0 90.2718430640776
1950.0 90.21885604098755
2000.0 90.16156354363828
2060.0 90.09326762438347
2120.0 90.05991871539233
2180.0 89.98333306436777
2240.0 89.95491756400091
2300.0 89.90597277398173
2360.0 89.84080007107603
2400.0 89.79749396474612
2500.0 89.72695945277555
2580.0 89.68819146004004
2650.0 89.6188472372878
2720.0 89.57423614495481
2800.0 89.5314822220331
2900.0 89.46740896044305
3000.0 89.39853379434065
3070.0 89.3500337354811
3150.0 89.28148665802415
3250.0 89.20380469234314
3350.0 89.12980561482271
3450.0 89.05033525506754
3550.0 88.9825837737962
3650.0 88.88089106572144
3750.0 88.77699113531231
3870.0 88.69037676097112
4000.0 88.58177255205908
4120.0 88.49407762545609
4250.0 88.391277913894
4370.0 88.28072256369002
4500.0 88.14259724464084
4620.0 88.00171282760573
4750.0 87.88498605197937
4870.0 87.75903655872916
5000.0 87.66649360311652
5150.0 87.52221477000542
5300.0 87.39859338757718
5450.0 87.25006223479494
5600.0 87.12417261678104
5800.0 86.99614902511512
6000.0 86.91970375669833
6150.0 86.78650403761819
6300.0 86.6664576435744
6500.0 86.53523925989481
6700.0 86.41553819358029
6900.0 86.3104538341396
7100.0 86.23923987821708
7300.0 86.11984018011901
7500.0 86.00793663992202
7750.0 85.93538527195854
8000.0 85.86311815863635
8250.0 85.81700846467466
8500.0 85.74485857310863
8750.0 85.67920470243475
9000.0 85.6378001270593
9250.0 85.60086764325449
9500.0 85.520078132037
9750.0 85.47027401065213
10000.0 85.43780012705928
10300.0 85.40086764325449
10600.0 85.33224852249154
10900.0 85.30086764325448
11200.0 85.24022126710568
11500.0 85.20729750834775
11800.0 85.13780012705928
12200.0 85.04485857310864
12500.0 85.0291326314785
12800.0 84.9437532470871
13200.0 84.84485857310862
13600.0 84.74485857310864
14000.0 84.61700846467465
14500.0 84.48832354775169
15000.0 84.35946923176223
15500.0 84.1883235477517
16000.0 84.0513467163777
16500.0 83.8563424041092
17000.0 83.65381652224885
17500.0 83.45381652224884
18000.0 83.1883235477517
18500.0 82.96311815863636
19000.0 82.6883235477517
19500.0 82.42353831694662
20000.0 82.1260239834825
