Freq "Estimated In-Room Response"
22.4 66.86342370732629
23.0 67.95988128226804
23.6 69.33968017561233
24.0 70.71432034372953
25.0 72.04395369420246
25.8 73.45403405096212
26.5 74.60647241968303
27.2 75.57267058784618
28.0 76.80541474845069
29.0 77.81504080335591
30.0 79.0393335586541
30.7 80.17946196240507
31.5 81.20215518176397
32.5 82.25192434647226
33.5 83.03071764032981
34.5 83.84488787272139
35.5 84.42883097370597
36.5 85.27371924421811
37.5 86.07785270853702
38.7 86.55224992085368
40.0 86.72093280358894
41.2 86.72532687898794
42.5 87.49278999360848
43.7 89.13049062218238
45.0 91.33887827326592
46.2 93.1796775753559
47.5 94.78166596609546
48.7 96.1223661915577
50.0 97.39330115202665
51.5 98.52142006674681
53.0 99.50733295567093
54.5 100.40690311968204
56.0 101.52433043426758
58.0 102.71407880770714
60.0 103.74229142068063
61.5 104.57607676664405
63.0 105.14281710288802
65.0 105.49139404070135
67.0 105.76209608861129
69.0 105.97756534594292
71.0 106.3158441157563
73.0 106.75498339108084
75.0 107.23852882059327
77.5 107.71044715746251
80.0 108.14343956241373
82.5 108.6019199512389
85.0 108.98031042147372
87.5 109.25952937931389
90.0 109.27450756535463
92.5 109.09341095999612
95.0 108.7332235604585
97.5 108.32065387259759
100.0 108.00309904874464
103.0 107.83607929769862
106.0 107.86066684505475
109.0 108.00383410116216
112.0 108.20078673008945
115.0 108.39384739091616
118.0 108.56910638240404
122.0 108.646285684199
125.0 108.69679726918567
128.0 108.72648018838105
132.0 108.80866093707267
136.0 108.85381803779364
140.0 108.88885993288393
145.0 108.9084579830669
150.0 108.8832102244648
155.0 108.84054090365535
160.0 108.7488824444433
165.0 108.58863232601023
170.0 108.50077232986493
175.0 108.58284358048854
180.0 108.51938642140107
185.0 108.05946719765146
190.0 107.5889135733189
195.0 107.4101917344206
200.0 107.26078059801901
206.0 106.98036759502097
212.0 106.56864324815436
218.0 106.36570658980946
224.0 107.22680051788255
230.0 108.32251231501075
236.0 108.75783997021192
240.0 108.59089876000984
250.0 108.27407236088936
258.0 108.06696994706002
265.0 108.05278662360307
272.0 108.0511442846429
280.0 108.02529659895623
290.0 107.99532984648062
300.0 107.94375470075147
307.0 107.73950803219512
315.0 107.52346573421676
325.0 107.31758016779784
335.0 107.07388312254864
345.0 106.78613708501092
355.0 106.48873951222805
365.0 106.43769433947804
375.0 106.72284416300154
387.0 107.15087097982473
400.0 107.34411667871984
412.0 107.21152489634409
425.0 106.91547795680324
437.0 106.45960944478213
450.0 106.15354688095806
462.0 106.20107263361828
475.0 106.21218697752515
487.0 105.94822246522682
500.0 105.8868492970198
515.0 106.00466090131553
530.0 106.48092343596721
545.0 106.90212648783945
560.0 106.58667089705696
580.0 105.85017539486782
600.0 105.47916209315375
615.0 105.6750885137231
630.0 105.76308576320028
650.0 105.56333997077064
670.0 105.31218140216755
690.0 105.24948732965866
710.0 105.22657595161118
730.0 104.73485592054647
750.0 103.67138500419225
775.0 102.47431125164444
800.0 102.4984388140417
825.0 103.81142091910039
850.0 104.66790399323915
875.0 104.91915584983838
900.0 104.92900653519057
925.0 105.09573168689091
950.0 105.32391653491742
975.0 105.19357284520164
1000.0 105.21489652895528
1030.0 105.34418501562473
1060.0 105.56805159880966
1090.0 105.96776900859656
1120.0 106.07160788807927
1150.0 106.01681091925417
1180.0 106.2440897858884
1220.0 106.51524879764074
1250.0 106.3704810590196
1280.0 105.98327340351969
1320.0 105.53645123919276
1360.0 105.09852086978631
1400.0 104.73485871662145
1450.0 104.32410556129534
1500.0 103.97119169846195
1550.0 103.83611065300838
1600.0 104.31961483518995
1650.0 104.70159068639924
1700.0 104.32217419612972
1750.0 103.84923024839976
1800.0 103.63461996221464
1850.0 103.4023489672781
1900.0 103.35564435409803
1950.0 103.65294232883267
2000.0 104.03610446699757
2060.0 104.50654732831396
2120.0 105.1627429883065
2180.0 105.15807731110087
2240.0 104.38750325834111
2300.0 103.51317185488999
2360.0 102.92660632138245
2400.0 103.348807712812
2500.0 104.1397388524307
2580.0 104.32590402817746
2650.0 104.2735211251168
2720.0 104.09161899837811
2800.0 103.97758137584314
2900.0 103.88175869362702
3000.0 103.69533288349996
3070.0 104.12253437878314
3150.0 104.8863946542215
3250.0 104.929836967198
3350.0 103.69447449212248
3450.0 102.8499586552146
3550.0 104.01446319321809
3650.0 105.02827299464204
3750.0 105.0977999652385
3870.0 104.76026628967836
4000.0 104.24329087302415
4120.0 104.26631811691702
4250.0 104.12113718778764
4370.0 104.38837545820974
4500.0 105.42629502803709
4620.0 104.81314335782281
4750.0 103.93884010695584
4870.0 104.17343245821631
5000.0 104.32188890815365
5150.0 104.60822757380734
5300.0 104.49124097260982
5450.0 104.11774191658421
5600.0 104.65563286094371
5800.0 104.63942454800363
6000.0 104.91842051728378
6150.0 105.1104261134011
6300.0 104.93508713674841
6500.0 104.67259134071126
6700.0 104.61302977928258
6900.0 104.57866142100703
7100.0 104.24450552028037
7300.0 104.18397274463372
7500.0 104.34501032822823
7750.0 104.39759979527221
8000.0 105.28142142430801
8250.0 105.23652642714083
8500.0 104.30702455228527
8750.0 104.74566677902732
9000.0 106.8607167689569
9250.0 106.83175016179598
9500.0 107.18888075260972
9750.0 107.4108225053131
10000.0 107.33800780341464
10300.0 107.90789166196078
10600.0 105.84266040151721
10900.0 107.1639437229633
11200.0 107.57688770248916
11500.0 106.8328473723665
11800.0 107.47476723099604
12200.0 107.77754060822485
12500.0 107.6710681200006
12800.0 106.94148142191722
13200.0 106.45672075574302
13600.0 105.61873124360042
14000.0 105.10809657068853
14500.0 104.43616964376801
15000.0 103.44356031841369
15500.0 102.32110694744614
16000.0 103.01085133907931
16500.0 101.78775309173444
17000.0 100.05695834855447
17500.0 96.29897748427598
18000.0 93.8827591369304
18500.0 90.85934923944822
19000.0 91.78607428731337
19500.0 89.81028092810561
