Freq "Ceiling Bounce"
22.4 -11.670657585397578
23.0 -9.247966335097516
23.6 -6.359132954698737
24.0 -2.412178954644503
25.0 0.3645338795471673
25.8 2.194974698016466
26.5 3.006951045844005
27.2 6.2612934814939365
28.0 9.213700495015672
29.0 11.408073248345886
30.0 15.4587078142346
30.7 18.904223377942543
31.5 20.132679862373863
32.5 21.156615475072527
33.5 25.294974698016432
34.5 28.427324492020176
35.5 31.792115597275142
36.5 38.219521431700144
37.5 42.058939888634455
38.7 45.456484700962136
40.0 49.185613790100376
41.2 51.60993654827902
42.5 54.636210532430255
43.7 57.30389387602898
45.0 59.70545792054942
46.2 62.23621053243026
47.5 64.16979444665968
48.7 65.54086704530127
50.0 66.58925278156912
51.5 67.9822528731828
53.0 69.27365433686208
54.5 70.30695104584402
56.0 71.24086704530126
58.0 72.23851260901716
60.0 73.20389387602899
61.5 74.03772765193486
63.0 74.60616036292873
65.0 75.14076110563937
67.0 75.67365433686209
69.0 76.24234804832923
71.0 76.77588471742956
73.0 77.30695104584403
75.0 77.80695104584402
77.5 78.30695104584402
80.0 78.87365433686207
82.5 79.23851260901718
85.0 79.63851260901717
87.5 79.97365433686207
90.0 80.23851260901716
92.5 80.43851260901717
95.0 80.53851260901716
97.5 80.67057362975447
100.0 80.70389387602899
103.0 80.63621053243025
106.0 80.53621053243027
109.0 80.53621053243027
112.0 80.46903286485463
115.0 80.36903286485462
118.0 80.06903286485462
122.0 79.67057362975447
125.0 79.14234804832924
128.0 78.88442818677015
132.0 78.79211559727514
136.0 78.87297081097493
140.0 79.14507560479086
145.0 79.40627274081763
150.0 79.9344174892839
155.0 80.55461009300217
160.0 81.01153479246688
165.0 81.33851260901716
170.0 81.43621053243027
175.0 81.23544303797465
180.0 80.26903286485462
185.0 78.5031382510276
190.0 76.19780046739544
195.0 75.1452715935422
200.0 74.91705512330887
206.0 75.69450567454973
212.0 78.11926637965061
218.0 79.70627274081762
224.0 80.51764271129768
230.0 80.44234804832924
236.0 79.63851260901717
240.0 78.77365433686208
250.0 77.74234804832923
258.0 76.19192298459072
265.0 75.78396319256271
272.0 76.36187601539973
280.0 77.15002199550774
290.0 78.094103313983
300.0 78.91764116587521
307.0 79.20627274081764
315.0 79.29640818034648
325.0 78.81764271129771
335.0 78.05461009300217
345.0 77.72167816252703
355.0 77.73016232916669
365.0 77.31951985096408
375.0 76.73807654336235
387.0 76.85263778232823
400.0 77.30644915808946
412.0 77.66187601539973
425.0 78.15448753582807
437.0 78.48643127298685
450.0 78.65448753582808
462.0 78.8078955300511
475.0 78.46187601539974
487.0 78.0493924671007
500.0 77.76300937943157
515.0 77.96334311150594
530.0 78.61495782081315
545.0 79.10845513041875
560.0 78.89345108566808
580.0 78.83271615764208
600.0 79.94465444517868
615.0 79.91887764827018
630.0 78.78643127298685
650.0 77.3078955300511
670.0 76.38064819896847
690.0 76.26853241474542
710.0 76.54923300553055
730.0 76.46241124091695
750.0 75.55724356481439
775.0 75.24939955885739
800.0 74.72993172729755
825.0 74.46070757726312
850.0 73.78459507796296
875.0 73.19812494616362
900.0 73.5771625612844
925.0 73.1839631925627
950.0 73.23874687626395
975.0 72.88349968553081
1000.0 73.5174920946842
1030.0 74.35139504129799
1060.0 75.5380961704908
1090.0 76.07321038083005
1120.0 76.19506337997576
1150.0 76.68703620657337
1180.0 76.38703620657337
1220.0 75.00070415137233
1250.0 72.41290783798104
1280.0 71.72682436833703
1320.0 72.09896859299599
1360.0 71.86427308603761
1400.0 71.09414089890632
1450.0 70.35603486503395
1500.0 70.12037358661776
1550.0 70.45208894127927
1600.0 71.07672031097854
1650.0 72.37382820665407
1700.0 72.81096979996823
1750.0 72.57907852642961
1800.0 72.09622428959159
1850.0 71.70426447312317
1900.0 71.26334311150592
1950.0 70.4539896722398
2000.0 71.63280355773473
2060.0 71.29448834410806
2120.0 71.80460092445409
2180.0 73.81737721674887
2240.0 74.60532470976052
2300.0 76.45612218386218
2360.0 76.75389558327159
2400.0 76.19141633881833
2500.0 76.68819298011825
2580.0 76.26632307211786
2650.0 76.59866808583067
2720.0 76.79416761539761
2800.0 76.59944423080879
2900.0 75.83234288541153
3000.0 76.46334311150594
3070.0 76.78010257413361
3150.0 76.30755329596802
3250.0 76.40845513041874
3350.0 77.45468089236138
3450.0 76.14267010703037
3550.0 75.52158706920872
3650.0 77.26224730313072
3750.0 75.77784314464668
3870.0 75.34697893721612
4000.0 76.22128017730061
4120.0 72.97585372529609
4250.0 74.32456364888682
4370.0 73.44324992471479
4500.0 74.34352154853164
4620.0 75.04221843644586
4750.0 74.9962242895916
4870.0 74.45890123670286
5000.0 74.61679669958139
5150.0 73.13629271856797
5300.0 73.22633372545283
5450.0 70.79024825913329
5600.0 71.51377729466446
5800.0 71.27994438529564
6000.0 71.89706277353542
6150.0 71.35209272081065
6300.0 70.97808869229651
6500.0 71.7666785458143
6700.0 72.0189895333159
6900.0 73.96446507606227
7100.0 73.09185139140878
7300.0 72.12551532783526
7500.0 71.89402513518921
7750.0 72.24932814974187
8000.0 73.6745216254187
8250.0 74.3531228048446
8500.0 73.84184642373705
8750.0 73.128575073522
9000.0 74.04670184665383
9250.0 74.43444517747142
9500.0 74.9808377654787
9750.0 74.53500002316287
10000.0 74.37653362835353
10300.0 75.13842159695653
10600.0 75.29719327123331
10900.0 74.12942545552424
11200.0 74.90248554212492
11500.0 73.77613275105126
11800.0 77.3971932712333
12200.0 77.54494237374671
12500.0 76.07175581747529
12800.0 76.07896346241236
13200.0 76.903317207206
13600.0 77.89812383692357
14000.0 72.40851714265268
14500.0 74.55347981630588
15000.0 78.20309906990998
15500.0 73.95012481216743
16000.0 72.26867781406348
16500.0 72.18668310355204
17000.0 73.11884120027813
17500.0 74.36027983373357
18000.0 67.01961816650226
18500.0 62.41753474939472
19000.0 63.05002199550776
19500.0 59.695004872461155
