Freq "Estimated In-Room Response"
22.4 60.47846341898662
23.0 60.23315894913469
23.6 59.564111048029474
24.0 58.55904116978297
25.0 57.399129005746374
25.8 56.22298876540697
26.5 55.20034625758069
27.2 54.401333934808974
28.0 53.77016508024738
29.0 53.365678620650414
30.0 53.055468078811145
30.7 52.87666755543444
31.5 52.837770302703376
32.5 52.970318379854945
33.5 53.36720779326802
34.5 54.062849303013024
35.5 55.1025686445532
36.5 56.38492697323784
37.5 57.76307520756717
38.7 59.03689490190476
40.0 60.09715147701232
41.2 60.93775275217101
42.5 61.64147636371152
43.7 62.352049676935934
45.0 63.23379602962197
46.2 64.26525498136023
47.5 65.48030976537189
48.7 66.83508625817277
50.0 68.29250340097592
51.5 69.78339823951922
53.0 71.25765758629413
54.5 72.62811729266193
56.0 73.74915165163499
58.0 74.57857508404167
60.0 75.08383785172336
61.5 75.37892502458763
63.0 75.63141111211857
65.0 75.96531737879566
67.0 76.46271730256476
69.0 77.11007770361275
71.0 77.78187283905564
73.0 78.42267055590374
75.0 79.03071757777565
77.5 79.53423269293101
80.0 80.01031170196302
82.5 80.48260207381944
85.0 81.00943295549797
87.5 81.55270138116818
90.0 82.13488301999769
92.5 82.63797688354714
95.0 83.07254370921422
97.5 83.40106395210496
100.0 83.67000905619255
103.0 83.8719311714288
106.0 84.07784811768671
109.0 84.30431254680778
112.0 84.54955646419951
115.0 84.79932019523349
118.0 84.9923911106235
122.0 85.13874017720572
125.0 85.17387406115785
128.0 85.08057308693492
132.0 84.91895901124407
136.0 84.71945347643913
140.0 84.60411589114733
145.0 84.56139818034828
150.0 84.5984697380171
155.0 84.64995264198663
160.0 84.66839483004925
165.0 84.67239351315449
170.0 84.58436472290201
175.0 84.52301386471696
180.0 84.4348946843623
185.0 84.38707750432846
190.0 84.34498562428577
195.0 84.31702498384253
200.0 84.28679669714461
206.0 84.14291092608336
212.0 83.89236714215365
218.0 83.5705387592714
224.0 83.21615231320756
230.0 82.96078315301263
236.0 82.8724242699998
240.0 82.9409602065803
250.0 83.08602050447944
258.0 83.21868417491092
265.0 83.27675200918428
272.0 83.24219648237296
280.0 83.15018104717188
290.0 83.07422165162771
300.0 83.0803719829766
307.0 83.15170585110539
315.0 83.27647621776129
325.0 83.38886626000291
335.0 83.40198201830766
345.0 83.33349459454098
355.0 83.19685978811198
365.0 83.00510097468586
375.0 82.80179824342184
387.0 82.62853303358206
400.0 82.47550776750049
412.0 82.3652498801535
425.0 82.2573404707477
437.0 82.17132525258734
450.0 82.07463720562819
462.0 82.00319252447576
475.0 81.88524063235538
487.0 81.76099487168582
500.0 81.55780511566168
515.0 81.30165432811289
530.0 80.99492440864616
545.0 80.73056881341505
560.0 80.49080377247755
580.0 80.33885047823443
600.0 80.26116429718053
615.0 80.18340075910373
630.0 80.07467294673408
650.0 79.86800813789998
670.0 79.6441478064763
690.0 79.46410263805319
710.0 79.42438817928306
730.0 79.55949193383687
750.0 79.75254884270285
775.0 79.83582602141743
800.0 79.62790998508791
825.0 79.20783568090009
850.0 78.67714207263512
875.0 78.32304542816414
900.0 78.32607147606417
925.0 78.75920317317869
950.0 79.50642531267029
975.0 80.3325530954246
1000.0 81.03522122689245
1030.0 81.63970519479751
1060.0 82.19407118180385
1090.0 82.69233179092627
1120.0 82.9188290389938
1150.0 82.72472775243854
1180.0 82.34776546641079
1220.0 81.89592383916639
1250.0 81.4528507840093
1280.0 80.95477158701313
1320.0 80.33505089447354
1360.0 79.58453209267039
1400.0 78.59053919784938
1450.0 77.49231809757038
1500.0 76.6591399508067
1550.0 76.27177773822223
1600.0 76.23387343171049
1650.0 76.61604857432181
1700.0 77.32534221180256
1750.0 78.01323540086352
1800.0 78.80061660197586
1850.0 79.57868089705
1900.0 80.1269579215199
1950.0 80.41682636629389
2000.0 80.50683112384638
2060.0 80.42358269514094
2120.0 80.26040886632657
2180.0 80.03405413604355
2240.0 79.86734335607237
2300.0 79.7234491031815
2360.0 79.48668416498883
2400.0 79.15127761007525
2500.0 78.72837297971887
2580.0 78.39915763495097
2650.0 78.2525645636788
2720.0 78.16072275032131
2800.0 77.97451729524641
2900.0 77.65416843202743
3000.0 77.10016971055046
3070.0 76.55749923244932
3150.0 76.20020791880681
3250.0 76.1225120471079
3350.0 76.28404008146717
3450.0 76.542830400541
3550.0 76.82199157329723
3650.0 77.06889809424773
3750.0 77.28576684380005
3870.0 77.41868332098556
4000.0 77.48713345923527
4120.0 77.5412367902651
4250.0 77.6285500765353
4370.0 77.88091135728362
4500.0 78.26918459896626
4620.0 78.65115539781465
4750.0 78.96436700567112
4870.0 79.05802376002573
5000.0 78.90757582531694
5150.0 78.70303071361425
5300.0 78.6268616696401
5450.0 78.72696531762685
5600.0 79.02057804205018
5800.0 79.40364872422334
6000.0 79.56745483119965
6150.0 79.48272354128721
6300.0 79.23654682013412
6500.0 78.77939144065597
6700.0 78.39432539798024
6900.0 78.13922399307164
7100.0 78.15606503956317
7300.0 78.5405747458179
7500.0 78.99210014983603
7750.0 79.01571036076778
8000.0 78.43824302056683
8250.0 77.84746553312195
8500.0 77.68107182234608
8750.0 78.21193491717004
9000.0 79.02589349203453
9250.0 79.47577165544627
9500.0 79.21998847583927
9750.0 78.8403001039764
10000.0 78.60134036878684
10300.0 78.65832296744557
10600.0 78.69382748476205
10900.0 78.72818352727823
11200.0 78.74260243170069
11500.0 78.58894539632249
11800.0 78.44487222827827
12200.0 78.69240867260585
12500.0 79.04954389041603
12800.0 79.68817024087463
13200.0 80.08163524413708
13600.0 79.96796432386238
14000.0 80.16627430516975
14500.0 79.78114561822521
15000.0 79.27880684801042
15500.0 78.96187187920751
16000.0 77.7048032974576
16500.0 77.47434777125292
17000.0 77.59165216049323
17500.0 76.99044036969589
18000.0 76.7685180500246
18500.0 75.86329329105685
19000.0 74.90554455232243
19500.0 73.9801523797696
