Freq "Front Wall Bounce"
22.4 18.842255541523386
23.0 20.81951372455744
23.6 22.864868289667996
24.0 26.280676188222643
25.0 29.442797577556732
25.8 32.61004692019044
26.5 37.12831889443778
27.2 39.78887091812568
28.0 40.75765675733889
29.0 41.57027524540503
30.0 42.29909613153636
30.7 43.06662134022035
31.5 43.77442344335212
32.5 44.54485198606308
33.5 46.98694525725607
34.5 49.540630747116055
35.5 52.28291123110468
36.5 54.4103940274003
37.5 55.880852422555606
38.7 56.31180210322381
40.0 56.34390716842226
41.2 57.11888268517859
42.5 58.89726615867485
43.7 61.52591797752363
45.0 64.24036451516254
46.2 64.02528685522448
47.5 64.63232478927526
48.7 67.80880843003754
50.0 70.22379640503489
51.5 69.51597988264876
53.0 69.18598283948509
54.5 70.21027361598085
56.0 71.21704993328868
58.0 71.97397253892372
60.0 72.71871865150548
61.5 73.32492954673289
63.0 74.09675502454564
65.0 74.83737408129085
67.0 75.30914589305827
69.0 75.66394512452715
71.0 76.00489499373622
73.0 76.23175513861906
75.0 76.40229476693693
77.5 76.64313939533781
80.0 76.85808883252638
82.5 76.94313939533782
85.0 77.14313939533783
87.5 77.24313939533782
90.0 77.3577566746453
92.5 77.51508314243884
95.0 77.58618450501949
97.5 77.6861845050195
100.0 77.81442746339746
103.0 77.88618450501949
106.0 78.0
109.0 78.02880715674529
112.0 78.0
115.0 77.9716627539189
118.0 77.94313939533782
122.0 77.90065786069425
125.0 77.81508314243884
128.0 77.6861845050195
132.0 77.64313939533781
136.0 77.4861845050195
140.0 77.35840584504062
145.0 77.25907003611941
150.0 77.13175513861906
155.0 77.03175513861906
160.0 76.94675150375353
165.0 76.84675150375354
170.0 76.81998423401444
175.0 76.79044363353323
180.0 76.73537086618988
185.0 76.66528715999551
190.0 76.63924275721992
195.0 76.52940676691627
200.0 76.45491760385289
206.0 76.42940676691627
212.0 76.32940676691628
218.0 76.32940676691628
224.0 76.35491760385288
230.0 76.34817815442679
236.0 76.23968362647592
240.0 76.1152383542856
250.0 75.99121584965016
258.0 75.72550314698992
265.0 75.37440768759194
272.0 75.62386986096213
280.0 75.62946066855592
290.0 75.62946066855592
300.0 75.85742449135815
307.0 76.25742449135815
315.0 76.51508314243883
325.0 76.70229476693693
335.0 76.77525122642456
345.0 76.55000634017073
355.0 76.19366590096782
365.0 75.80914589305827
375.0 75.49817545090703
387.0 75.31363940606882
400.0 75.1136394060688
412.0 74.87602210108666
425.0 74.6268345531296
437.0 74.37455785944567
450.0 74.4106896630263
462.0 74.76005936857909
475.0 75.36779163544479
487.0 75.89817545090703
500.0 76.0136394060688
515.0 75.7268345531296
530.0 75.57455785944566
545.0 75.85251964068127
560.0 75.5106896630263
580.0 74.59343859806334
600.0 73.39343859806336
615.0 73.22758020744902
630.0 74.70470702014275
650.0 76.36301220938269
670.0 76.98664191481758
690.0 76.52758020744902
710.0 75.75086213388187
730.0 75.11080457045652
750.0 75.38810079587952
775.0 75.77181099747155
800.0 75.54273131524616
825.0 74.82914789453235
850.0 74.61666285681936
875.0 75.35378373474548
900.0 76.05990168395996
925.0 75.90748009891588
950.0 75.07983775130111
975.0 75.06976085057073
1000.0 74.45160253959158
1030.0 74.64762624819672
1060.0 75.14917018545893
1090.0 74.76438765972678
1120.0 74.71063265137015
1150.0 74.52833223333886
1180.0 74.26352795397769
1220.0 74.91063265137014
1250.0 74.94329663334433
1280.0 75.57146493467718
1320.0 75.3563032996247
1360.0 75.25990168395997
1400.0 74.51063265137014
1450.0 73.98147278830731
1500.0 74.12693012006524
1550.0 74.46899166293483
1600.0 74.49590741289698
1650.0 74.79407419601688
1700.0 75.39407419601689
1750.0 75.49701065999302
1800.0 75.81018325240991
1850.0 76.77071823989354
1900.0 76.56234632454169
1950.0 75.22369527469371
2000.0 74.67838410378246
2060.0 73.79882325480008
2120.0 73.32048739268494
2180.0 72.98628823596651
2240.0 73.40046586640925
2300.0 75.26119477115702
2360.0 75.6814760095729
2400.0 74.51017173734809
2500.0 73.26137115602617
2580.0 72.46586348570116
2650.0 71.413053614899
2720.0 71.97626311709833
2800.0 72.68859613204678
2900.0 74.20244420519383
3000.0 75.39928620518147
3070.0 74.74922943684776
3150.0 74.03119961561009
3250.0 73.26747478194702
3350.0 73.05909081887162
3450.0 73.43584229728275
3550.0 74.56537086011784
3650.0 74.68539423733203
3750.0 74.94901654619404
3870.0 75.29034495072258
4000.0 75.82810040770062
4120.0 75.75879093252641
4250.0 75.42451588090934
4370.0 75.73602994476704
4500.0 75.68937784534005
4620.0 74.94351098830087
4750.0 74.7428312558148
4870.0 74.26836218452574
5000.0 74.76784732908128
5150.0 75.63820081422196
5300.0 75.39107801997793
5450.0 74.62642077987239
5600.0 74.21353036618913
5800.0 74.23832780507131
6000.0 74.19457602681264
6150.0 74.70912794474744
6300.0 74.93423105325535
6500.0 74.61699254292911
6700.0 74.55872380351627
6900.0 75.19104604876644
7100.0 75.57659323529258
7300.0 75.27836910458176
7500.0 74.6652431033665
7750.0 73.57661257335643
8000.0 73.32971443800234
8250.0 74.26864968838834
8500.0 74.60691573658221
8750.0 74.42976506405482
9000.0 73.38356787417898
9250.0 73.2490880897098
9500.0 74.00871824695122
9750.0 73.7554670088221
10000.0 73.95247744683635
10300.0 74.36461447282002
10600.0 74.24385896380915
10900.0 74.92166309952165
11200.0 74.38237782119376
11500.0 75.34674482038523
11800.0 76.7382585803087
12200.0 77.13380958370415
12500.0 78.88855296183566
12800.0 78.75891009873452
13200.0 78.38876656095105
13600.0 77.25681503403354
14000.0 78.15934315978659
14500.0 76.0911125180722
15000.0 72.78083441874199
15500.0 74.30901195240236
16000.0 74.459861831375
16500.0 73.71467349152947
17000.0 74.086596493087
17500.0 72.92144236761224
18000.0 74.205206023135
18500.0 73.91159105550933
19000.0 74.03183310589694
19500.0 71.12928407375206
