Freq "Side Wall Bounce"
22.4 17.026928108582027
23.0 19.296603295071876
23.6 22.09049680044471
24.0 25.05667994882954
25.0 27.49910388300607
25.8 29.85167808150537
26.5 32.974968305528094
27.2 36.13767039972781
28.0 38.17309145219021
29.0 39.89990085941268
30.0 41.70238399579672
30.7 43.830264426474585
31.5 45.214408506090095
32.5 45.95102670353985
33.5 47.042711966892554
34.5 47.92889599300587
35.5 48.63601422767714
36.5 52.42293114637771
37.5 55.632545064366255
38.7 57.513074798792076
40.0 57.58793779822511
41.2 57.99750819617263
42.5 59.09340311321594
43.7 60.59291828262228
45.0 62.204940072970814
46.2 62.87480407890406
47.5 63.65361467458044
48.7 64.94080065549873
50.0 65.97077688238305
51.5 66.92605538103852
53.0 68.13259924345238
54.5 68.72604468036096
56.0 69.48141593316227
58.0 70.26326749742701
60.0 71.14281553261142
61.5 72.05845305073383
63.0 72.89359181737284
65.0 73.6544429425558
67.0 74.21334750947472
69.0 74.77046252427117
71.0 75.3463016485018
73.0 75.64396845048444
75.0 75.96074062498236
77.5 76.36027588070904
80.0 76.66074062498235
82.5 76.88018335884989
85.0 77.02018505541588
87.5 77.12018505541589
90.0 77.2201850554159
92.5 77.24027672897047
95.0 77.30046051294919
97.5 77.32157071745497
100.0 77.32342518384304
103.0 77.32757995317387
106.0 77.40920611180408
109.0 77.44858052607876
112.0 77.50920611180409
115.0 77.45034056676337
118.0 77.3693974704667
122.0 77.2693974704667
125.0 77.10920611180407
128.0 77.10920611180407
132.0 77.1467367724147
136.0 76.90598456990743
140.0 76.62757995317386
145.0 76.43128689490088
150.0 76.23441685017133
155.0 76.03441685017131
160.0 75.87822458438252
165.0 75.7207018812124
170.0 75.62070188121241
175.0 75.54375958238676
180.0 75.38249272529741
185.0 75.2254542095587
190.0 75.0122903582015
195.0 74.6306122765752
200.0 74.18748222197395
206.0 73.8460467708813
212.0 73.62783218957027
218.0 73.54127965709309
224.0 73.6746029580601
230.0 73.86171751117966
236.0 73.41707239352735
240.0 72.88589437139116
250.0 72.55178296151932
258.0 72.18176967841644
265.0 71.83998227561125
272.0 72.94392635049887
280.0 73.71484304074148
290.0 73.90342595058968
300.0 74.45561596459537
307.0 75.34395987319405
315.0 75.34454127010612
325.0 75.32967066020257
335.0 75.23688464551715
345.0 74.80805424837285
355.0 74.13126350338631
365.0 73.50111029491154
375.0 73.11047488932165
387.0 72.89919185929209
400.0 72.62831022912997
412.0 72.16884502061684
425.0 71.58469471225864
437.0 71.20053457571096
450.0 71.27866112801208
462.0 71.82628336622136
475.0 72.61113742999397
487.0 73.2247595456392
500.0 73.23439060897626
515.0 72.43040700233229
530.0 72.07519000099893
545.0 72.87044888898232
560.0 71.81346352084942
580.0 70.28593492630525
600.0 69.29289729759601
615.0 69.50893474838466
630.0 70.20341984011795
650.0 71.52374652067824
670.0 72.3105089040456
690.0 71.7645688605342
710.0 70.7990011004403
730.0 70.10692641111625
750.0 70.36880699320632
775.0 70.63820290448385
800.0 69.69667880360845
825.0 68.52795838693206
850.0 69.36022344684281
875.0 70.72814615685867
900.0 70.65005631471118
925.0 69.55460105448134
950.0 68.63846440270271
975.0 68.97129432755348
1000.0 67.8199727206909
1030.0 69.08902688916781
1060.0 69.78404126883072
1090.0 69.22894137788575
1120.0 68.39019486898623
1150.0 67.94696624197839
1180.0 67.92034532644381
1220.0 69.60322223977322
1250.0 68.0503401789239
1280.0 68.97177452180557
1320.0 68.79901082132118
1360.0 69.1236707945807
1400.0 68.71296461994176
1450.0 68.34245989150891
1500.0 67.885591553487
1550.0 68.48510219795226
1600.0 66.67146353139974
1650.0 66.9801870637948
1700.0 67.33104140435579
1750.0 67.08328406148368
1800.0 69.23815482280595
1850.0 71.3914253194486
1900.0 70.67688599608938
1950.0 68.67517441422486
2000.0 65.76026678102485
2060.0 62.63317810495148
2120.0 61.54570592441564
2180.0 63.58155355289078
2240.0 63.9429791189589
2300.0 65.84086715181918
2360.0 64.95567707319033
2400.0 62.06983523661734
2500.0 61.157389424703595
2580.0 62.758709953598895
2650.0 62.56349775179426
2720.0 63.52355491369758
2800.0 64.16343186626904
2900.0 65.14046941456489
3000.0 65.45625001623269
3070.0 66.2621597644726
3150.0 65.29487440914393
3250.0 65.64138562163578
3350.0 66.06342098654054
3450.0 66.0887375125082
3550.0 66.80843760931887
3650.0 66.70714582050594
3750.0 66.78528205745833
3870.0 67.26187314283591
4000.0 67.19755844453779
4120.0 66.53032747824496
4250.0 65.99492073129056
4370.0 66.48255380204901
4500.0 66.24521189351488
4620.0 65.84846872189463
4750.0 66.44559980734788
4870.0 66.63240085701565
5000.0 67.13575062408509
5150.0 68.6111773026075
5300.0 67.53322036278632
5450.0 67.00139663331065
5600.0 65.20712200492541
5800.0 64.67344665318413
6000.0 64.29377990454213
6150.0 64.20828071744437
6300.0 65.35892720560894
6500.0 65.803993160824
6700.0 66.60170931194278
6900.0 66.94685938339433
7100.0 66.89363193850626
7300.0 65.61391381707811
7500.0 63.71272584691843
7750.0 63.53125031052774
8000.0 64.74737054839329
8250.0 66.30478623784236
8500.0 66.08931125545165
8750.0 65.42853093372415
9000.0 63.571012162613044
9250.0 63.11722851597072
9500.0 64.92158679007682
9750.0 64.88459362108803
10000.0 64.28365617553601
10300.0 64.22935724647404
10600.0 64.11835016797596
10900.0 65.99148933351965
11200.0 67.5714229869116
11500.0 68.94435922326208
11800.0 67.55545029576027
12200.0 66.15635424941894
12500.0 71.1157095380362
12800.0 72.50328694066896
13200.0 71.32017745675213
13600.0 67.0161994350851
14000.0 69.59257374701735
14500.0 68.79597740661414
15000.0 64.69254592823964
15500.0 62.884990028479976
16000.0 66.62365514315958
16500.0 67.0594379454307
17000.0 62.829837885069125
17500.0 61.347040763767296
18000.0 62.335333126235156
18500.0 63.539867214595674
19000.0 64.23443943110891
19500.0 64.14923004829645
