Freq "Ceiling Bounce"
20.0 71.1752043417822
20.2909 71.25690406391267
20.586 71.3382043417822
20.8855 71.39855067248595
21.1893 71.45855067248596
21.4975 71.51890406391269
21.8102 71.57890406391269
22.1274 71.63890406391269
22.4492 71.69890406391269
22.7758 71.7589040639127
23.1071 71.81890406391267
23.4432 71.87990406391268
23.7841 71.9992043417822
24.1301 72.11890406391268
24.4811 72.2379040639127
24.8372 72.35790406391268
25.1984 72.47690406391267
25.5649 72.5962043417822
25.9368 72.71590406391269
26.3141 72.83490406391269
26.6968 72.99120434178221
27.0851 73.15355067248598
27.4791 73.31590406391267
27.8788 73.47790406391269
28.2843 73.6399040639127
28.6957 73.80220434178219
29.1131 73.96420434178219
29.5365 74.14390406391267
29.9661 74.33690406391267
30.402 74.52990406391268
30.8442 74.7229040639127
31.2929 74.91590406391269
31.748 75.10890406391269
32.2098 75.30190406391267
32.6783 75.51290406391269
33.1536 75.72455067248598
33.6359 75.93590406391267
34.1251 76.14755067248598
34.6215 76.35890406391269
35.125 76.57055067248596
35.6359 76.78890406391267
36.1543 77.00790406391268
36.6802 77.22690406391268
37.2137 77.44590406391269
37.755 77.66490406391267
38.3041 77.91707921895811
38.8613 78.22090352145835
39.4265 78.52474715689135
40.0 78.82861014604654
40.5818 79.13183714686137
41.1721 79.42458260577001
41.771 79.68731466005764
42.3785 79.94971740656975
42.9949 80.212774218999
43.6203 80.474844489611
44.2548 80.71611968848231
44.8985 80.93353981839923
45.5515 81.15127797205838
46.2141 81.36939926835377
46.8863 81.58687745143536
47.5683 81.75945386447933
48.2602 81.93239121600854
48.9621 82.10502036110859
49.6743 82.27767638738578
50.3968 82.41657255521943
51.1299 82.54716750877702
51.8736 82.67775852772165
52.6281 82.80843375940721
53.3936 82.90808162073337
54.1702 83.00208471465845
54.9581 83.09680349178461
55.7575 83.18786001064497
56.5685 83.25468949819378
57.3914 83.32190134816318
58.2261 83.38844781169851
59.073 83.44510909104133
59.9323 83.49415497380876
60.804 83.54294271072683
61.6884 83.58974645528609
62.5857 83.62875075058939
63.496 83.66772780791192
64.4196 83.70645348190749
65.3566 83.74130255827427
66.3073 83.77523259035223
67.2717 83.80945817824771
68.2502 83.84046877517497
69.2429 83.87152942041325
70.2501 83.90263178397461
71.2719 83.92971198459387
72.3086 83.95686164427602
73.3603 83.98339126521753
74.4274 84.00625985435178
75.5099 84.02915628030864
76.6083 84.05056460574215
77.7226 84.07001178074279
78.8531 84.08926741603027
80.0 84.10700679878519
81.1636 84.12453676866255
82.3442 84.14119167664276
83.5419 84.15588165032736
84.757 84.17106621567666
85.9899 84.18171161967513
87.2406 84.19165041377005
88.5096 84.19656110391945
89.797 84.19596931658008
91.1031 84.19154676463282
92.4282 84.17434619453738
93.7726 84.15717796193684
95.1366 84.12055873555616
96.5204 84.08408121189333
97.9243 84.03317533810028
99.3486 83.98027618628963
100.794 83.92874425987938
102.26 83.87683824806858
103.747 83.82918066938136
105.256 83.78258323998949
106.787 83.74497495109192
108.34 83.70782334427687
109.916 83.68113320287117
111.515 83.65457047633191
113.137 83.63264104433594
114.783 83.60914745880588
116.452 83.58262946889187
118.146 83.54948868862665
119.865 83.51040300589186
121.608 83.45944758851192
123.377 83.4044658395663
125.171 83.34329918956138
126.992 83.28500219913764
128.839 83.22962745351643
130.713 83.18909884804408
132.615 83.15714784110546
134.543 83.13527021294614
136.5 83.12455514525071
138.486 83.11425957888255
140.5 83.10319873347912
142.544 83.08431506819832
144.617 83.05923769762211
146.721 83.03027633856553
148.855 83.00310627059218
151.02 82.988126317294
153.217 82.98808383979434
155.445 83.00635309404252
157.706 83.04611494040864
160.0 83.09363732406854
162.327 83.14053430758986
164.688 83.17812664297642
167.084 83.2022607729871
169.514 83.20793204873512
171.98 83.20272203431645
174.481 83.19155344585229
177.019 83.17638274288494
179.594 83.15791382526086
182.206 83.13609023575046
184.856 83.1150273795529
187.545 83.10262693611301
190.273 83.11925346114104
193.041 83.17917083161363
195.849 83.28071882044847
198.697 83.40253800221812
201.587 83.51032947684189
204.52 83.56487951050543
207.494 83.54272658649053
210.512 83.4459642609814
213.574 83.3061323310606
216.681 83.17072723389667
219.833 83.0882882808153
223.03 83.08102423696995
226.274 83.12978454313895
229.565 83.20105810590339
232.905 83.25998067951848
236.292 83.28951144514672
239.729 83.28788395565041
243.216 83.26112820769109
246.754 83.21448320846713
250.343 83.15887611644138
253.984 83.10593399680513
257.678 83.07453149718785
261.426 83.0887202358966
265.229 83.14785348081813
269.087 83.2369533618079
273.001 83.33369144471244
276.972 83.41956635103496
281.0 83.49372980159268
285.088 83.5609692937598
289.234 83.62200908478292
293.441 83.66026970846936
297.709 83.65431989996017
302.04 83.6007752387577
306.433 83.52924063463973
310.89 83.47978741338835
315.412 83.44170096427666
320.0 83.40468488419366
324.655 83.35930422229981
329.377 83.30288865478
334.168 83.24434562206596
339.028 83.19181500268473
343.959 83.14796265708028
348.962 83.11092844157639
354.038 83.07706636989309
359.188 83.0323749465208
364.412 82.95756638478413
369.713 82.84117059499374
375.09 82.69487900445466
380.546 82.55545926487201
386.081 82.44976816720617
391.697 82.38135422962074
397.394 82.34367219748822
403.175 82.33019217355893
409.039 82.33309698826429
414.989 82.34321833284741
421.025 82.35613341838753
427.149 82.38506886364492
433.362 82.45935415245472
439.665 82.58854828634564
446.06 82.74350947768306
452.548 82.88624374404267
459.131 82.99955995389101
465.809 83.08074554319319
472.584 83.12785498722013
479.458 83.14203706720957
486.432 83.12172754652114
493.507 83.0752070685362
500.686 83.01868283738246
507.968 82.97048394176616
515.357 82.95408855275963
522.853 82.94406874144609
530.458 82.9290601110057
538.174 82.88960864633091
546.002 82.81868913783238
553.943 82.7322491297916
562.001 82.67436522843812
570.175 82.68666271378586
578.469 82.77669830643799
586.883 82.91626018368281
595.419 83.06072217638328
604.08 83.17290023513462
612.866 83.24589324232791
621.78 83.3063823979386
630.824 83.39102120395876
640.0 83.50485232415932
649.309 83.60713598489019
658.753 83.64067953402949
668.335 83.56218624631191
678.056 83.37177341159693
687.919 83.11281163157065
697.925 82.862165372056
708.077 82.69797344354932
718.376 82.70088515605784
728.825 82.8190841746852
739.426 83.01330153432845
750.181 83.20175327040205
761.093 83.32240952043693
772.163 83.3522695784101
783.394 83.29633328178413
794.789 83.17796687388268
806.349 83.04707337231169
818.078 82.97778364713852
829.977 83.0057940128826
842.05 83.06306733595642
854.298 83.01646281123055
866.724 82.81886640011157
879.33 82.59299332671736
892.12 82.50451776646516
905.097 82.53864764755623
918.262 82.49244957384408
931.618 82.29336539378632
945.169 81.98566796216548
958.917 81.70819991077386
972.864 81.50208701760018
987.015 81.29154042078956
1001.37 81.04103357748049
1015.94 80.8790666076536
1030.71 80.92479468271424
1045.71 81.04827862470671
1060.92 80.991479788242
1076.35 80.76799611133231
1092.0 80.65641203836253
1107.89 80.69296684653055
1124.0 80.6019597712866
1140.35 80.37924486150584
1156.94 80.39185319506235
1173.77 80.74317377370978
1190.84 81.13781186023753
1208.16 81.39409432746905
1225.73 81.73963722038637
1243.56 82.03677032241218
1261.65 81.93303077546621
1280.0 81.72635982076642
1298.62 81.94677806666188
1317.51 82.33461403230376
1336.67 82.55928683736191
1356.11 82.57321949691416
1375.84 82.35602199942366
1395.85 82.35372616536185
1416.15 82.69437698339883
1436.75 83.01258675787906
1457.65 83.1346532985484
1478.85 83.1602071829784
1500.36 83.19915352156644
1522.19 83.30400375773468
1544.33 83.34479781288717
1566.79 83.39573748741978
1589.58 83.52654153528317
1612.7 83.59299537995156
1636.16 83.33807974251623
1659.95 82.95891941751964
1684.1 82.93693037839618
1708.6 83.19227043221049
1733.45 83.44749511338146
1758.66 83.59867220608396
1784.24 83.71172030141197
1810.19 83.82644022720798
1836.52 83.59320922909959
1863.24 83.28095115027098
1890.34 83.13561238822071
1917.83 82.72441480634224
1945.73 82.08281843232749
1974.03 81.38807837883031
2002.74 80.61290879636226
2031.87 79.76929308456101
2061.43 79.01326041987781
2091.41 78.5650721348419
2121.83 78.00323560820715
2152.69 77.28190620426734
2184.01 76.90808696509124
2215.77 76.62888530508823
2248.0 76.01877156568965
2280.7 75.43894286809743
2313.87 75.09089063927075
2347.53 74.61318026976656
2381.68 74.38147126894253
2416.32 74.59286334673418
2451.46 74.9993555153573
2487.12 75.0817367689742
2523.3 75.25697814004593
2560.0 75.81183040759315
2597.24 76.15024897360347
2635.01 76.35742870186502
2673.34 76.78975578884793
2712.23 77.26682985371833
2751.68 77.5257833467779
2791.7 77.64198741601746
2832.31 78.0514095978534
2873.5 78.58158225834023
2915.3 78.90209295831008
2957.7 79.09333752901806
3000.72 79.08076350484579
3044.37 79.03953628682858
3088.65 79.28063023964715
3133.58 79.68318612353524
3179.16 79.9336054743714
3225.4 80.04356430263623
3272.31 80.04858777786045
3319.91 80.01699218950445
3368.2 79.85549637717264
3417.19 79.49008298272285
3466.89 79.12398811923107
3517.32 78.90617685902033
3568.48 78.77983260934685
3620.39 78.49350956962932
3673.05 77.81280422353313
3726.47 77.09473539553802
3780.67 76.55814328833839
3835.67 76.1191524126804
3891.46 76.26143825849715
3948.06 76.81229457220385
4005.49 76.83039756864015
4063.75 76.25986140446176
4122.86 76.394075408024
4182.82 76.83184798013764
4243.66 76.40072622790885
4305.39 76.0024058526187
4368.01 76.00077376117925
4431.55 75.69860941580626
4496.01 75.08973264079407
4561.4 74.79745375547425
4627.75 74.21436004889928
4695.06 73.65356247611668
4763.35 74.06719140730029
4832.64 73.93399209633561
4902.93 73.70121972479674
4974.24 73.83306377661486
5046.6 73.4996323282501
5120.0 73.73823249028472
5194.47 74.09662166775632
5270.03 73.77868709446099
5346.68 73.96814447703667
5424.45 73.84113149679098
5503.35 73.26826980126769
5583.4 73.32126695290091
5664.61 73.28355105182862
5747.01 72.96304035409037
5830.6 72.43888024083998
5915.41 72.06555083160205
6001.45 71.92019016680084
6088.74 71.38483639764037
6177.3 71.31822445543152
6267.15 71.03342359903476
6358.31 70.46300741646613
6450.8 70.5833424711729
6544.62 70.92286077149568
6639.82 71.14536436412531
6736.4 70.98775070763101
6834.38 70.90196417503822
6933.79 70.93391671582194
7034.64 70.77304582407497
7136.96 70.31076792459234
7240.77 69.83372243716153
7346.09 69.51703634802664
7452.94 69.2508418327844
7561.35 69.34000067370195
7671.33 69.58446575166293
7782.91 70.48385213960344
7896.12 71.52468919321646
8010.97 72.6141496243392
8127.49 73.44535621279216
8245.71 73.6718156975852
8365.65 73.87126567992419
8487.33 73.98166543866243
8610.78 74.20001337346386
8736.03 74.53247352533913
8863.09 74.53366849008498
8992.01 74.24005169229
9122.8 73.7494482528794
9255.5 73.0104523031263
9390.12 72.65988292742175
9526.7 72.87300137629973
9665.27 73.11970279586006
9805.86 73.25289387207648
9948.49 73.29168684524987
10093.2 73.22154698230577
10240.0 73.08425449935689
10388.9 72.7435874398815
10540.1 72.08559348261618
10693.4 71.50893534892614
10848.9 71.06236855043748
11006.7 70.59809941138109
11166.8 70.3201980772873
11329.2 70.21884231915678
11494.0 69.95229418915775
11661.2 69.43700295921673
11830.8 69.0974859762935
12002.9 69.2848618628185
12177.5 69.76361880660946
12354.6 70.10284056224768
12534.3 70.1617767612152
12716.6 70.0493938553308
12901.6 69.86088420281776
13089.2 69.68333402453818
13279.6 69.68991854019346
13472.8 70.01557344021455
13668.8 70.67382633084365
13867.6 71.08511504093629
14069.3 70.7078856384428
14273.9 69.67118999108632
14481.5 68.94431697447924
14692.2 68.96566107144139
14905.9 68.7530919002165
15122.7 68.05870034101099
15342.7 67.86450471191404
15565.8 68.15027782134034
15792.2 68.20356200663237
16021.9 67.94995125411836
16255.0 67.67641638566784
16491.4 67.90970911334566
16731.3 68.57641641199194
16974.7 69.08559112344786
17221.6 69.25515917911096
17472.1 69.14482161407116
17726.2 68.5288185391578
17984.0 67.4746305764747
18245.6 66.44181777276191
18511.0 65.93066204641357
18780.2 66.03872888065614
19053.4 66.33160440082153
19330.5 66.44839881342766
19611.7 66.36169477860133
19897.0 65.75355975194073
