Freq "Front Wall Bounce"
20.0 71.54808518271977
20.2909 71.66908518271975
20.586 71.79108518271975
20.8855 71.88739411123123
21.1893 71.98408518271977
21.4975 72.08108518271978
21.8102 72.17787359813791
22.1274 72.27439411123123
22.4492 72.37108518271975
22.7758 72.46808518271976
23.1071 72.56471402029875
23.4432 72.66239411123124
23.7841 72.82739411123123
24.1301 72.99239411123123
24.4811 73.15787359813791
24.8372 73.32287359813792
25.1984 73.48787359813791
25.5649 73.65308518271976
25.9368 73.81808518271976
26.3141 73.98308518271976
26.6968 74.17908518271977
27.0851 74.38008518271977
27.4791 74.58108518271978
27.8788 74.78208518271977
28.2843 74.98308518271976
28.6957 75.18408518271976
29.1131 75.38539411123124
29.5365 75.59687359813792
29.9661 75.81608518271977
30.402 76.03539411123123
30.8442 76.2548735981379
31.2929 76.47408518271976
31.748 76.69308518271976
32.2098 76.91271402029875
32.6783 77.13771402029876
33.1536 77.36308518271976
33.6359 77.58808518271977
34.1251 77.81308518271977
34.6215 78.03839411123123
35.125 78.26339411123122
35.6359 78.48608518271976
36.1543 78.70887359813791
36.6802 78.93108518271976
37.2137 79.15339411123122
37.755 79.37608518271978
38.3041 79.61907982875387
38.8613 79.89443821498074
39.4265 80.17002500511181
40.0 80.44661420414138
40.5818 80.72328657365395
41.1721 80.9919171733246
41.771 81.23658206842387
42.3785 81.48168835554358
42.9949 81.72694851511395
43.6203 81.97264978438957
44.2548 82.20021105102226
44.8985 82.40821729172814
45.5515 82.61652078959885
46.2141 82.8249819687723
46.8863 83.03320400394452
47.5683 83.20214702858519
48.2602 83.37100139981544
48.9621 83.53997153755165
49.6743 83.70932404199083
50.3968 83.84660526188306
51.1299 83.97724221231813
51.8736 84.10807608183056
52.6281 84.23868499515466
53.3936 84.34021503783248
54.1702 84.43679321593817
54.9581 84.53328108713924
55.7575 84.6268162035696
56.5685 84.69757059079548
57.3914 84.7679327577022
58.2261 84.83863172408718
59.073 84.90052395734409
59.9323 84.95488319799081
60.804 85.00956687704365
61.6884 85.0627114585711
62.5857 85.1102855345944
63.496 85.15788870621927
64.4196 85.20580012479928
65.3566 85.25154821883709
66.3073 85.29747077193717
67.2717 85.3429914924886
68.2502 85.38634224557723
69.2429 85.42945484550629
70.2501 85.47245759829325
71.2719 85.50812496348023
72.3086 85.54339626074403
73.3603 85.5769889857032
74.4274 85.59875910610577
75.5099 85.62030681187322
76.6083 85.63523980011303
77.7226 85.64083420516242
78.8531 85.64608989022997
80.0 85.64098690019333
81.1636 85.63309818556691
82.3442 85.62343022327583
83.5419 85.61016335250298
84.757 85.59644096304056
85.9899 85.58658520733951
87.2406 85.57704869039269
88.5096 85.57192448428455
89.797 85.57219248908535
91.1031 85.57368596726484
92.4282 85.58225656281998
93.7726 85.58988786289687
95.1366 85.59812953845345
96.5204 85.60623826918962
97.9243 85.60504700311276
99.3486 85.60224038074412
100.794 85.58418138194156
102.26 85.56267786115448
103.747 85.53751599685305
105.256 85.51198729212729
106.787 85.4858961830137
108.34 85.45969010821014
109.916 85.4418464005495
111.515 85.42594152698699
113.137 85.42563711200962
114.783 85.43078022382713
116.452 85.44837457703127
118.146 85.47195441527859
119.865 85.49964048843418
121.608 85.52525434961943
123.377 85.54724072027238
125.171 85.5572957339869
126.992 85.55503541487737
128.839 85.54389206826507
130.713 85.51758303911471
132.615 85.48912628521238
134.543 85.45891256558063
136.5 85.4383494477395
138.486 85.4262721648334
140.5 85.42426094131643
142.544 85.43607594048765
144.617 85.4485798026372
146.721 85.46108062372207
148.855 85.46368644940308
151.02 85.4557335165097
153.217 85.44190403333481
155.445 85.42672826750706
157.706 85.42398069798412
160.0 85.44253484616169
162.327 85.48130276897369
164.688 85.53688766840425
167.084 85.59915524768081
169.514 85.64499282741875
171.98 85.65698187575434
174.481 85.63352370473737
177.019 85.58101798628388
179.594 85.51644225793113
182.206 85.46121356718686
184.856 85.43607270047607
187.545 85.44629872331349
190.273 85.47833030178907
193.041 85.49984038806214
195.849 85.48525700581027
198.697 85.42750239376012
201.587 85.34452112613076
204.52 85.27258814309648
207.494 85.24873303430711
210.512 85.28776501895766
213.574 85.3731236846106
216.681 85.46091897052207
219.833 85.5047918973801
223.03 85.48321436817707
226.274 85.42040858807879
229.565 85.36116213838653
232.905 85.34335075501899
236.292 85.3732222083744
239.729 85.42269254139497
243.216 85.44821161400988
246.754 85.42199243956074
250.343 85.37244721271765
253.984 85.34441747989008
257.678 85.36968316091344
261.426 85.44360227613721
265.229 85.51285491608232
269.087 85.54054428705102
273.001 85.52945985747685
276.972 85.53153646135861
281.0 85.58917402147222
285.088 85.7025165830361
289.234 85.80875831667056
293.441 85.85130442675477
297.709 85.82267066746888
302.04 85.78002689424144
306.433 85.76419868277809
310.89 85.74857706658807
315.412 85.71841936680536
320.0 85.66476879815693
324.655 85.59708482892063
329.377 85.53251786256077
334.168 85.46518196223917
339.028 85.37205424438721
343.959 85.25415244109308
348.962 85.15096379157205
354.038 85.12662216881961
359.188 85.21375797040717
364.412 85.3905635835348
369.713 85.60757611439725
375.09 85.80160759530307
380.546 85.91227350491444
386.081 85.91430344186938
391.697 85.82918681057485
397.394 85.70291092872225
403.175 85.5693468631554
409.039 85.43508942962602
414.989 85.30620588577625
421.025 85.200145635025
427.149 85.12259805190922
433.362 85.06506128400457
439.665 85.0328318100002
446.06 85.04592308182417
452.548 85.10348081462314
459.131 85.18389721526184
465.809 85.26952038734606
472.584 85.34903007609485
479.458 85.41401747498524
486.432 85.47075260267461
493.507 85.52254923459321
500.686 85.5541813583879
507.968 85.55552461282835
515.357 85.53407023594184
522.853 85.48657218212797
530.458 85.42234896447029
538.174 85.36326550408042
546.002 85.33028464265911
553.943 85.32916669117925
562.001 85.34906995775147
570.175 85.3627545247263
578.469 85.34085504695334
586.883 85.27034984816963
595.419 85.16154278687489
604.08 85.04213991146693
612.866 84.94308115717352
621.78 84.89476239479708
630.824 84.92144080915074
640.0 85.0210615384822
649.309 85.16115752227272
658.753 85.28950291216955
668.335 85.35880520014074
678.056 85.3506729351728
687.919 85.29651626540323
697.925 85.260596150418
708.077 85.30955036543045
718.376 85.38582084737925
728.825 85.45363668853027
739.426 85.43906997409917
750.181 85.33528325994101
761.093 85.19896009107555
772.163 85.10274261836072
783.394 85.06321039011627
794.789 85.03779052464736
806.349 84.98650936154782
818.078 84.92053867262558
829.977 84.87572659739507
842.05 84.84840687390965
854.298 84.78686933586735
866.724 84.66263376824975
879.33 84.5285360952458
892.12 84.46730633593292
905.097 84.48168063597825
918.262 84.49217483983912
931.618 84.46892432114916
945.169 84.43157369453544
958.917 84.37647580521512
972.864 84.27113796939685
987.015 84.1749987915103
1001.37 84.22438418052607
1015.94 84.41164894503301
1030.71 84.56366127989995
1045.71 84.6243802562335
1060.92 84.700931214862
1076.35 84.7727367878153
1092.0 84.7769900667255
1107.89 84.90892779771592
1124.0 85.29711885182337
1140.35 85.60975136413076
1156.94 85.57690923422874
1173.77 85.38319892466066
1190.84 85.31004709015778
1208.16 85.37838815636384
1225.73 85.44000711833641
1243.56 85.4658941832558
1261.65 85.51908643211343
1280.0 85.62181278188999
1298.62 85.59206321121614
1317.51 85.36338904417198
1336.67 85.22641631767479
1356.11 85.26328870218067
1375.84 85.428947449312
1395.85 85.62613910880103
1416.15 85.71930245838603
1436.75 85.56389958375334
1457.65 85.26252812597116
1478.85 85.15510545071464
1500.36 85.20103509578065
1522.19 85.02385524219129
1544.33 84.74642052898245
1566.79 84.5985520353417
1589.58 84.59698170248043
1612.7 84.55814447304185
1636.16 84.54445663162178
1659.95 84.54444584759494
1684.1 84.46721425446546
1708.6 84.58668505924324
1733.45 84.83495068716438
1758.66 84.96748793004458
1784.24 85.00752874511554
1810.19 84.98953346749074
1836.52 84.92409172110833
1863.24 84.78081578279593
1890.34 84.70563174910454
1917.83 84.75404471901916
1945.73 84.72741846467221
1974.03 84.70802213938902
2002.74 84.6943608442807
2031.87 84.75435220429368
2061.43 84.9638240822104
2091.41 84.98410030297475
2121.83 84.9381343328355
2152.69 84.93244836073518
2184.01 84.73760989004793
2215.77 84.58843960501989
2248.0 84.60167198750925
2280.7 84.57967484567256
2313.87 84.53909400183997
2347.53 84.56404114061738
2381.68 84.65918645941791
2416.32 84.6565818533793
2451.46 84.58401249834715
2487.12 84.43273962800392
2523.3 84.2135070511095
2560.0 84.14116823092729
2597.24 84.20040328182516
2635.01 84.23622006756837
2673.34 84.21964652474371
2712.23 84.29205042558252
2751.68 84.39866510145009
2791.7 84.36723465633622
2832.31 84.35082653299358
2873.5 84.38563437460196
2915.3 84.48466836831673
2957.7 84.68531493079519
3000.72 84.72451950573743
3044.37 84.65546470076353
3088.65 84.70118634272782
3133.58 84.91865637330883
3179.16 85.09308158169054
3225.4 85.17947576341912
3272.31 85.26363428473826
3319.91 85.40400552464148
3368.2 85.57181036755378
3417.19 85.67757257087145
3466.89 85.80783770529116
3517.32 85.99307449369633
3568.48 86.13032179587603
3620.39 86.16174882198817
3673.05 85.9495061994605
3726.47 85.5142553586852
3780.67 85.06131234705875
3835.67 84.51300820180121
3891.46 83.95909264508497
3948.06 83.88578106135058
4005.49 84.13791417596636
4063.75 84.23752265133908
4122.86 84.36348149128561
4182.82 84.65029541863674
4243.66 84.83620859371177
4305.39 84.83005220626119
4368.01 84.79059577343519
4431.55 84.8220954956677
4496.01 84.88091795827106
4561.4 84.78643974127044
4627.75 84.67975386671023
4695.06 84.61093338598708
4763.35 84.57546519736309
4832.64 84.58320079125548
4902.93 84.60702184356526
4974.24 84.67521386181376
5046.6 84.82302254058862
5120.0 85.04861406412752
5194.47 85.24581506695951
5270.03 85.42767701561486
5346.68 85.4358246342178
5424.45 85.21915727193775
5503.35 84.88275807714679
5583.4 84.49057221348068
5664.61 84.1437936700534
5747.01 83.84201628806241
5830.6 83.70072640654591
5915.41 83.78555014953614
6001.45 83.98187786385083
6088.74 84.11750428069297
6177.3 84.20987213899492
6267.15 84.313932546331
6358.31 84.40686227779275
6450.8 84.45051154713192
6544.62 84.43059342029278
6639.82 84.38621996638122
6736.4 84.38214689064685
6834.38 84.43477687992781
6933.79 84.41888624942302
7034.64 84.33661209436124
7136.96 84.26876008528626
7240.77 84.16100764054161
7346.09 84.01610736703135
7452.94 83.90749558670562
7561.35 83.84510549416227
7671.33 83.77765409318087
7782.91 83.720747910531
7896.12 83.6544082703932
8010.97 83.4998370993313
8127.49 83.2750301468306
8245.71 82.96142177840846
8365.65 82.60316455405652
8487.33 82.51748731615115
8610.78 82.79075538304262
8736.03 83.178052754927
8863.09 83.49625508947832
8992.01 83.58911956048402
9122.8 83.52289208493701
9255.5 83.36671084159397
9390.12 83.18994474442101
9526.7 83.09821574323115
9665.27 83.15040222433271
9805.86 83.43926350795441
9948.49 83.85516574959844
10093.2 84.2044264634464
10240.0 84.38149092125605
10388.9 84.33722370372891
10540.1 84.13775714925475
10693.4 83.9537678273092
10848.9 83.98525783768198
11006.7 84.30511485577892
11166.8 84.77626554448233
11329.2 85.13499486586494
11494.0 85.22617038909135
11661.2 85.09794455684818
11830.8 84.92379638286708
12002.9 84.85954890096635
12177.5 84.93603912592165
12354.6 85.10949122632641
12534.3 85.31398130223917
12716.6 85.44774745478534
12901.6 85.37689630208783
13089.2 85.03589347131117
13279.6 84.59658063108603
13472.8 84.45963347211772
13668.8 84.81552762500505
13867.6 85.307464256771
14069.3 85.45070725618756
14273.9 85.19815946100064
14481.5 84.92033132478662
14692.2 84.92890514183193
14905.9 85.11103490475092
15122.7 85.14892055702953
15342.7 84.98707563228186
15565.8 84.78593170604617
15792.2 84.64852767654929
16021.9 84.61467179414885
16255.0 84.71579725060954
16491.4 84.7978077546733
16731.3 84.59025875482561
16974.7 84.19879383262925
17221.6 84.01861213910051
17472.1 83.9552381166271
17726.2 83.57101548304792
17984.0 83.02711521614462
18245.6 82.86161607498622
18511.0 83.01748424092038
18780.2 83.04960652683368
19053.4 82.94328244752901
19330.5 82.82409795247239
19611.7 82.52215035864069
19897.0 82.13067027284922
