Freq "Floor Bounce"
22.4 23.870717324954086
23.0 23.870717324954086
23.6 24.070717324954074
24.0 25.60531806766471
25.0 27.070717324954103
25.8 28.205318067664706
26.5 29.170717324954097
27.2 30.039645319760012
28.0 30.77071732495409
29.0 31.47071732495408
30.0 32.43964531976002
30.7 33.8053180676647
31.5 34.93964531976002
32.5 35.905318067664695
33.5 36.705318067664706
34.5 37.405318067664695
35.5 38.10531806766471
36.5 39.205318067664706
37.5 40.17449351030439
38.7 41.00531806766469
40.0 41.705318067664706
41.2 42.405318067664695
42.5 43.205318067664706
43.7 44.10531806766468
45.0 44.84044167945491
46.2 45.540441679454915
47.5 46.20531806766472
48.7 47.0053180676647
50.0 47.77150800786937
51.5 48.40531806766471
53.0 49.03663575667187
54.5 49.805318067664714
56.0 50.50531806766469
58.0 51.136635756671865
60.0 51.73663575667186
61.5 52.43663575667186
63.0 53.136635756671865
65.0 53.70228461396019
67.0 54.36845083805433
69.0 55.0022846139602
71.0 55.56845083805433
73.0 56.23663575667187
75.0 56.86845083805433
77.5 57.402284613960205
80.0 58.034351408685026
82.5 58.56845083805433
85.0 59.13435140868502
87.5 59.73435140868503
90.0 60.30076749445563
92.5 60.83435140868504
95.0 61.33435140868502
97.5 61.90076749445562
100.0 62.3669218511605
103.0 62.8669218511605
106.0 63.30076749445563
109.0 63.766921851160504
112.0 64.20076749445562
115.0 64.60076749445562
118.0 64.93358982687997
122.0 65.33358982687997
125.0 65.63358982687997
128.0 65.83358982687999
132.0 66.10076749445561
136.0 66.30076749445561
140.0 66.40076749445562
145.0 66.50076749445562
150.0 66.50076749445562
155.0 66.50076749445562
160.0 66.46692185116049
165.0 66.3669218511605
170.0 66.20076749445562
175.0 66.06692185116049
180.0 65.93435140868502
185.0 65.83435140868504
190.0 65.80076749445561
195.0 65.90076749445561
200.0 66.06692185116049
206.0 66.33435140868502
212.0 66.6669218511605
218.0 66.9669218511605
224.0 67.20076749445562
230.0 67.33435140868502
236.0 67.36845083805431
240.0 67.23513059177982
250.0 66.90306957104251
258.0 66.40306957104252
265.0 65.80690501035458
272.0 65.14283030471974
280.0 64.4489851487955
290.0 63.91916705502754
300.0 63.55667255930051
307.0 63.427587192835915
315.0 63.39897445130926
325.0 63.437527773000284
335.0 63.537527773000264
345.0 63.56588846059688
355.0 63.527587192835924
365.0 63.41916705502754
375.0 63.11916705502753
387.0 62.7489851487955
400.0 62.448985148795515
412.0 62.48982856673473
425.0 62.989828566734715
437.0 63.698974451309255
450.0 64.30963256681619
462.0 64.52179738688895
475.0 64.30942248426021
487.0 63.65062128010362
500.0 62.85062128010364
515.0 62.35062128010364
530.0 62.27641629732153
545.0 62.53546263134683
560.0 62.795064580358286
580.0 63.135462631346826
600.0 63.476416297321535
615.0 63.867265588596126
630.0 64.02875610128315
650.0 63.92602452356692
670.0 63.594307445446645
690.0 63.29430744544666
710.0 63.06226741403313
730.0 62.84583147157397
750.0 61.75647994661608
775.0 58.9026545034034
800.0 57.18759923684219
825.0 56.39300137511778
850.0 55.451982029535486
875.0 59.06620989389218
900.0 62.08382334167595
925.0 66.38982856673472
950.0 67.80076749445563
975.0 66.97150800786937
1000.0 64.78982856673471
1030.0 62.20265450340341
1060.0 61.78573603864204
1090.0 62.14472243308103
1120.0 60.931672121303734
1150.0 58.65522653414702
1180.0 56.487666477796026
1220.0 57.434137158512684
1250.0 59.95274994214361
1280.0 62.9486901353707
1320.0 65.5523523256542
1360.0 66.75445848526061
1400.0 68.25107010056068
1450.0 69.91117002597231
1500.0 70.13819571547216
1550.0 70.70131827952113
1600.0 71.61483523633478
1650.0 72.22402487026022
1700.0 72.0122717831562
1750.0 71.42104166298748
1800.0 70.85062128010364
1850.0 71.02021956404323
1900.0 69.59742198666301
1950.0 68.82526453928848
2000.0 68.32821157202717
2060.0 68.30654363985347
2120.0 66.80720618364727
2180.0 67.38120401425272
2240.0 67.356384993969
2300.0 67.49446896895685
2360.0 65.47883038042292
2400.0 63.23034066181597
2500.0 63.20664154926581
2580.0 62.46640980126065
2650.0 61.573324035956006
2720.0 62.659597685628896
2800.0 63.14179998067982
2900.0 62.67259587131696
3000.0 61.98120661450055
3070.0 61.25075669530206
3150.0 61.949155398954986
3250.0 61.86602649447893
3350.0 62.32833788653757
3450.0 61.841972890941264
3550.0 62.48838259233902
3650.0 62.984562434147065
3750.0 63.948505881186676
3870.0 65.24302103107541
4000.0 65.46127711209434
4120.0 66.62566031429833
4250.0 65.80677539847123
4370.0 67.10483255371187
4500.0 66.24547317920926
4620.0 65.5836251212628
4750.0 63.009966058880536
4870.0 63.948824338064924
5000.0 63.63316872174292
5150.0 64.49611123275456
5300.0 63.02199936702111
5450.0 60.507955670187584
5600.0 63.7211596243655
5800.0 63.94786829224299
6000.0 63.45493991248689
6150.0 63.970646171336455
6300.0 64.08935847832785
6500.0 62.41771402261227
6700.0 61.9820681977361
6900.0 62.052423113423814
7100.0 62.34240010667203
7300.0 62.894668144628696
7500.0 62.38127869327917
7750.0 61.00586825843148
8000.0 61.430492120330825
8250.0 62.32816219834203
8500.0 63.768233750515066
8750.0 60.44116609315839
9000.0 57.2117232595361
9250.0 65.55237800738081
9500.0 66.5927276533821
9750.0 65.18583171242582
10000.0 66.37901969700523
10300.0 67.92326477625993
10600.0 69.9501692307022
10900.0 67.69257011413609
11200.0 70.73999927958745
11500.0 69.47277674488686
11800.0 64.35143780816817
12200.0 67.0284334334313
12500.0 67.11832676913882
12800.0 65.09485705883172
13200.0 59.5053180676647
13600.0 58.41869877934084
14000.0 59.504020104632374
14500.0 59.680678536250866
15000.0 60.697421986663
15500.0 63.8026545034034
16000.0 62.05235232565421
16500.0 61.447045840570524
17000.0 57.87455247833698
17500.0 55.33012065974809
18000.0 54.22456194869707
18500.0 50.98727125020184
19000.0 51.80010196805725
19500.0 51.09502814051854
