Freq "Front Wall Bounce"
22.4 22.502498491285877
23.0 22.48650270649412
23.6 22.68650270649414
24.0 24.18650270649414
25.0 25.586502706494144
25.8 26.757173438698942
26.5 27.713079712521136
27.2 28.54137813284217
28.0 29.286502706494133
29.0 30.014974264120895
30.0 30.899388162501822
30.7 32.24137813284216
31.5 33.34137813284218
32.5 34.270146078451205
33.5 35.07014607845119
34.5 35.770146078451205
35.5 36.470146078451194
36.5 37.52588667150792
37.5 38.4547570758549
38.7 39.28152846388764
40.0 39.98152846388763
41.2 40.58152846388765
42.5 41.43966550279933
43.7 42.26652979460641
45.0 43.06652979460644
46.2 43.66652979460642
47.5 44.295796156206634
48.7 45.09579615620663
50.0 45.866529794606436
51.5 46.52293233689511
53.0 47.12293233689509
54.5 47.87923379217197
56.0 48.579233792171976
58.0 49.17923379217197
60.0 49.779233792171965
61.5 50.52162754299418
63.0 51.17923379217197
65.0 51.779233792171965
67.0 52.42162754299417
69.0 53.078582433312505
71.0 53.6785824333125
73.0 54.30710579189359
75.0 54.92162754299417
77.5 55.478582433312496
80.0 56.149870501372135
82.5 56.6785824333125
85.0 57.30710579189358
87.5 57.84987050137214
90.0 58.42162754299417
92.5 59.00710579189359
95.0 59.52162754299418
97.5 60.05052618041353
100.0 60.55052618041353
103.0 61.05052618041351
106.0 61.55052618041353
109.0 61.95052618041352
112.0 62.393848883015295
115.0 62.82293233689509
118.0 63.19384888301529
122.0 63.55052618041351
125.0 63.85052618041351
128.0 64.1229323368951
132.0 64.35052618041351
136.0 64.5229323368951
140.0 64.69451307409409
145.0 64.76523803553373
150.0 64.79451307409408
155.0 64.79451307409408
160.0 64.72293233689508
165.0 64.62293233689509
170.0 64.46719817659374
175.0 64.3229323368951
180.0 64.16719817659376
185.0 64.06719817659375
190.0 64.0377378049116
195.0 64.1229323368951
200.0 64.29451307409408
206.0 64.56719817659373
212.0 64.86719817659373
218.0 65.16719817659374
224.0 65.46719817659374
230.0 65.58219454172821
236.0 65.66719817659376
240.0 65.58219454172821
250.0 65.3403380317109
258.0 64.98219454172822
265.0 64.52722054472093
272.0 64.05542727198912
280.0 63.582194541728214
290.0 63.28219454172822
300.0 63.18219454172822
307.0 63.26719817659374
315.0 63.367198176593746
325.0 63.522932336895096
335.0 63.5938488830153
345.0 63.579233792171976
355.0 63.407105791893585
365.0 63.13610089866893
375.0 62.70710579189358
387.0 62.20710579189358
400.0 61.836100898668946
412.0 61.85052618041351
425.0 62.39451307409408
437.0 63.24033803171088
450.0 63.95542727198911
462.0 64.32910893894251
475.0 64.20323467341947
487.0 63.67984614041136
500.0 62.94908244404348
515.0 62.42391521724983
530.0 62.33361848888171
545.0 62.529108938942485
560.0 62.799040818589674
580.0 63.16911284506497
600.0 63.71392781944485
615.0 64.25931289893683
630.0 64.67060351793288
650.0 64.83831932097868
670.0 64.81823948959001
690.0 64.74015005811742
710.0 64.70635358582311
730.0 64.36701038110336
750.0 63.02354383385422
775.0 60.347372850081854
800.0 60.153133509309825
825.0 62.95530932386441
850.0 63.00809146910626
875.0 59.79191869900059
900.0 59.742694114575926
925.0 64.24015005811742
950.0 66.5061612778682
975.0 66.51476600637069
1000.0 64.98244453619768
1030.0 63.04015005811743
1060.0 63.406353585823126
1090.0 65.06987483003363
1120.0 65.41964898255421
1150.0 65.14335371324138
1180.0 64.83355350663362
1220.0 63.58704557756626
1250.0 62.482611147547175
1280.0 63.771028391194605
1320.0 65.12870902811521
1360.0 64.59534472193465
1400.0 64.9251381934715
1450.0 66.97416061519151
1500.0 68.16132898849477
1550.0 68.95707027773727
1600.0 69.57817435322085
1650.0 70.07669103672025
1700.0 70.40874596726731
1750.0 70.5087459672673
1800.0 70.107687435943
1850.0 70.63030067493816
1900.0 70.50358168208705
1950.0 70.48444321884207
2000.0 69.98444321884209
2060.0 70.76490370653059
2120.0 70.5521956543692
2180.0 70.6321980625203
2240.0 69.137080017794
2300.0 69.03237412642588
2360.0 67.48078607460275
2400.0 65.51645577747452
2500.0 65.80008343069956
2580.0 65.36686399845813
2650.0 64.73734798181482
2720.0 65.75914184858073
2800.0 65.88640023987182
2900.0 65.94183598880738
3000.0 65.65489746058361
3070.0 65.7657499641178
3150.0 65.32748676015339
3250.0 66.73935687688697
3350.0 66.15249754757785
3450.0 65.65986236656302
3550.0 64.79800613621506
3650.0 65.9322258126418
3750.0 65.89986084784104
3870.0 66.24630055863706
4000.0 66.181797273039
4120.0 66.8222398061721
4250.0 66.78872288604327
4370.0 67.30073354754032
4500.0 67.13440189548969
4620.0 66.38605905404805
4750.0 65.5655087535908
4870.0 66.72795433914297
5000.0 66.48327338549109
5150.0 67.45672268028592
5300.0 66.45743759522878
5450.0 64.10443470090951
5600.0 68.04773442180425
5800.0 69.41571233984936
6000.0 68.53771725077912
6150.0 69.15197444087121
6300.0 70.23598490077075
6500.0 68.78372688649995
6700.0 68.07822139834619
6900.0 68.14784223805168
7100.0 67.67248078885689
7300.0 68.25452353097282
7500.0 67.87441411767114
7750.0 67.35079011292565
8000.0 67.27188812437
8250.0 65.86078506624553
8500.0 67.11962346180215
8750.0 66.20531313299534
9000.0 69.77134824104158
9250.0 72.62664060787066
9500.0 69.78501936078305
9750.0 67.6107841372972
10000.0 68.09852019274692
10300.0 69.1106302314691
10600.0 68.8158305811532
10900.0 65.1876372008736
11200.0 66.46120244230642
11500.0 65.73772676108156
11800.0 64.35485232810959
12200.0 65.61057992989723
12500.0 63.801449312222914
12800.0 57.99728050674838
13200.0 53.69304772035272
13600.0 55.53740408023566
14000.0 58.17221857723618
14500.0 60.56281228105206
15000.0 61.77832256556265
15500.0 61.35814393610865
16000.0 56.7788833224931
16500.0 56.76329575353651
17000.0 54.48613712743291
17500.0 51.927053848341615
18000.0 47.17752155416824
18500.0 40.68558999298233
19000.0 45.25719786129993
19500.0 48.95486925117845
