Freq "Side Wall Bounce"
22.4 21.967716117676133
23.0 21.945124810671643
23.6 22.14512481067166
24.0 23.66771611767615
25.0 25.10360158974541
25.8 26.219760628855283
26.5 27.197439126182417
27.2 28.019760628855295
28.0 28.77744791264388
29.0 29.477447912643868
30.0 30.394082311735133
30.7 31.71446006859594
31.5 32.83133701092231
32.5 33.77453203950037
33.5 34.56960999643766
34.5 35.29010263400059
35.5 35.96913150728048
36.5 37.00746884327734
37.5 37.96744423847082
38.7 38.76744423847083
40.0 39.485306894311236
41.2 40.10350988457009
42.5 40.963822308255004
43.7 41.8030240566396
45.0 42.56339528817627
46.2 43.22157447194198
47.5 43.861584931890675
48.7 44.64047531002544
50.0 45.44047531002545
51.5 46.04047531002544
53.0 46.65973162544064
54.5 47.44047531002545
56.0 48.11883260991766
58.0 48.75973162544065
60.0 49.35973162544066
61.5 50.0793484866179
63.0 50.718832609917655
65.0 51.31883260991765
67.0 52.01883260991765
69.0 52.61883260991766
71.0 53.218832609917655
73.0 53.83863465996589
75.0 54.47801146268496
77.5 55.018832609917666
80.0 55.678011462684964
82.5 56.23774535861517
85.0 56.81883260991765
87.5 57.37941148845911
90.0 57.937745358615174
92.5 58.47941148845912
95.0 59.0183910923475
97.5 59.53774535861518
100.0 60.018391092347485
103.0 60.518391092347485
106.0 60.99849631223047
109.0 61.41839109234748
112.0 61.86024242720316
115.0 62.26024242720317
118.0 62.618391092347494
122.0 62.960242427203156
125.0 63.26024242720317
128.0 63.50081928237296
132.0 63.741427607882116
136.0 63.900819282372964
140.0 64.04142760788211
145.0 64.14142760788211
150.0 64.14142760788211
155.0 64.10308817547548
160.0 64.06302299114856
165.0 63.922961979678476
170.0 63.78217981038938
175.0 63.64464914977876
180.0 63.44464914977877
185.0 63.344649149778775
190.0 63.344649149778775
195.0 63.4248745668459
200.0 63.54464914977876
206.0 63.84464914977876
212.0 64.08771263150095
218.0 64.38771263150095
224.0 64.64464914977876
230.0 64.76672993287556
236.0 64.76672993287556
240.0 64.62992594194779
250.0 64.32992594194779
258.0 63.91519014685676
265.0 63.37920262036144
272.0 62.78887132136042
280.0 62.27221691275068
290.0 61.88413031981989
300.0 61.715188289334165
307.0 61.759829195156485
315.0 61.89234713152035
325.0 62.09750975270829
335.0 62.220349454682164
345.0 62.25777045216296
355.0 62.232936378769566
365.0 62.02488036410617
375.0 61.676398818515224
387.0 61.27177127998317
400.0 60.920587980507676
412.0 60.91805240009914
425.0 61.409786112606184
437.0 62.14662153001865
450.0 62.72592219965577
462.0 62.92592219965577
475.0 62.624175146471345
487.0 61.84794231679065
500.0 60.83880027172708
515.0 60.08168428090849
530.0 59.82388087117609
545.0 60.061063603110384
560.0 60.453967372734
580.0 60.89623171516517
600.0 61.40115770640172
615.0 61.835961665837175
630.0 61.973811727037074
650.0 61.73684374631364
670.0 61.31170674308592
690.0 60.82750785129663
710.0 60.28913990488634
730.0 59.52640594393394
750.0 58.113936356805695
775.0 56.00018610168398
800.0 56.563983170995684
825.0 59.78588543481149
850.0 59.78915169688699
875.0 56.033013169315566
900.0 55.450310308712545
925.0 60.120035981131124
950.0 62.47439407451549
975.0 62.35423269183235
1000.0 60.48748086795402
1030.0 58.03255822817067
1060.0 58.644956838626285
1090.0 60.98204194299535
1120.0 61.39139410469542
1150.0 60.71123269032549
1180.0 59.72193792939683
1220.0 57.63329837162253
1250.0 56.0114314891385
1280.0 57.414130437865055
1320.0 59.02550200735885
1360.0 58.48638014697863
1400.0 58.89124365168243
1450.0 61.33378137387298
1500.0 62.99847013465279
1550.0 64.00654930957296
1600.0 64.39007504380022
1650.0 64.5958656168394
1700.0 65.11315910837024
1750.0 65.79135622270535
1800.0 65.75461542255967
1850.0 66.513310291399
1900.0 66.74870050004098
1950.0 66.85833433595003
2000.0 66.02978624128866
2060.0 67.1655746277111
2120.0 66.92228970194942
2180.0 66.61671948480296
2240.0 65.98628107769837
2300.0 65.90542458697814
2360.0 63.540506910359255
2400.0 61.08963730404277
2500.0 60.69980641538646
2580.0 59.48759671487929
2650.0 58.07516025368899
2720.0 58.37947873237597
2800.0 57.34028787930981
2900.0 56.090193739470976
3000.0 55.45840551036852
3070.0 54.896761180988804
3150.0 54.51134625274868
3250.0 56.48300784623764
3350.0 58.42366876827694
3450.0 60.10567782859968
3550.0 60.30810421383447
3650.0 60.43433345121032
3750.0 60.45212625029116
3870.0 60.70784446325045
4000.0 60.95978532603165
4120.0 60.98891934049931
4250.0 60.06045617319472
4370.0 60.862733346992826
4500.0 60.23564579578209
4620.0 58.94349591193932
4750.0 58.131629373330185
4870.0 59.049074697938366
5000.0 59.051503851302755
5150.0 60.55466362942349
5300.0 59.37123314330897
5450.0 56.9657964640746
5600.0 60.43680153845273
5800.0 61.71701946718497
6000.0 61.228311953453385
6150.0 62.19934239527635
6300.0 63.37258359110133
6500.0 62.1432516200249
6700.0 61.94338300956983
6900.0 61.35308129088577
7100.0 60.67710586249703
7300.0 60.9322411729616
7500.0 59.236823993046315
7750.0 57.68881240846328
8000.0 58.44575640672099
8250.0 58.22613379319948
8500.0 59.22805985324142
8750.0 58.885176194941465
9000.0 62.30607165000045
9250.0 64.5976977967338
9500.0 61.98536392385458
9750.0 60.23728344461051
10000.0 60.8640998493815
10300.0 62.18684345937152
10600.0 62.09381846881912
10900.0 59.24917168781624
11200.0 61.36738360945978
11500.0 61.12608519045182
11800.0 59.60157660434926
12200.0 60.69000986483553
12500.0 58.50326307297523
12800.0 54.67910760783445
13200.0 48.393872322430624
13600.0 53.8120870082372
14000.0 55.47487824729123
14500.0 56.261363843443505
15000.0 57.62693827949771
15500.0 61.18870134045376
16000.0 57.98119807772842
16500.0 55.33340360382421
17000.0 48.84509273771742
17500.0 52.84736350280778
18000.0 47.942994621798306
18500.0 39.87941964154817
19000.0 41.82809139330911
19500.0 40.847265978039644
