Freq "Estimated In-Room Response"
20.5078 52.64846689547602
21.9727 60.6769550982964
23.4375 64.91936882727882
24.9023 67.74701599163046
26.3672 70.4322598947161
27.832 72.5592131873278
29.2969 74.73522432498558
30.7617 76.55157910009098
32.2266 77.77746105469085
33.6914 78.92787985742957
35.1562 79.81243957180624
36.6211 80.47883343257024
38.0859 80.92279177165553
39.5508 81.34475986592416
41.0156 81.54954948157095
42.4805 81.59289977459665
43.9453 81.61555181780187
45.4102 81.41861260894692
46.875 81.38262852884132
48.3398 81.20753048663099
51.2695 81.19955550350926
52.7344 80.9620281337508
54.1992 80.88781864759883
55.6641 80.76009550679328
58.5938 80.52432144591403
60.0586 80.46341628680041
62.9883 80.16613924272961
64.4531 80.00583307521403
67.3828 79.78194469626237
68.8477 79.69642739464078
71.7773 79.50119552740935
74.707 79.45166376161313
77.6367 79.38030002870441
79.1016 79.41644649758231
82.0312 79.4758968316829
84.9609 79.62220046351311
87.8906 79.655346933509
90.8203 79.60688825044109
95.2148 79.89830955183493
98.1445 80.07341847798126
101.074 79.96040559842939
105.469 80.1352945488847
108.398 80.41430461488049
112.793 80.41245212512825
117.188 80.46671280092269
120.117 80.56207367670308
124.512 80.66604362556964
128.906 80.70603932544248
133.301 80.72741361037933
139.16 80.68734149451792
143.555 80.5368745490541
147.949 80.53322987708735
153.809 80.39377289731829
159.668 80.39321543261579
165.527 80.21414252685396
171.387 79.94369071113445
177.246 79.77172153004491
183.105 79.63417307855786
188.965 79.24862122151117
196.289 79.0830474914411
203.613 78.95692212531031
210.938 78.89007005616683
218.262 78.70255874430435
225.586 79.08200532195127
232.91 79.1098635088687
241.699 78.93118526845177
250.488 79.49993236440919
259.277 79.48147568556872
268.066 79.34389111847216
276.855 79.52865696269508
287.109 79.71579276398082
297.363 79.86094151419417
307.617 79.51227469021316
319.336 79.2804712410888
329.59 79.01441572764301
341.309 79.11471772659115
353.027 79.22816235474116
366.211 79.88895442733865
379.395 79.82596891697769
392.578 79.43952786829082
405.762 79.2449026215358
420.41 79.72120729439476
435.059 79.4668044227472
451.172 79.63589515606921
465.82 79.36316168904449
483.398 79.1419750620602
499.512 78.97891951443387
517.09 79.13107097624255
536.133 79.13057573831281
555.176 78.93366598773878
574.219 79.39791111329266
594.727 79.12680537328956
615.234 78.89509332686731
637.207 78.85938310035493
659.18 78.9036824271524
682.617 79.25278434909109
707.52 78.87260318265976
732.422 78.71876680421154
757.324 78.51030146204353
785.156 78.20055986043533
811.523 77.89925693768154
840.82 77.4469149337734
870.117 76.97940026313297
900.879 77.79193844056533
933.105 78.20787862197066
965.332 78.20266819223272
1000.49 77.62748143148984
1035.64 77.17993407371907
1072.27 76.89224577924543
1108.89 77.48033205881205
1148.44 79.03807739455397
1189.45 79.04001168836731
1230.47 78.79332350051052
1274.41 78.58960285389995
1319.82 78.29095442259735
1366.7 77.86382044876547
1413.57 78.1228726793662
1463.38 78.41280517373073
1516.11 78.5254659261955
1568.85 77.97790412662566
1624.51 77.52908038600462
1681.64 77.26127864523156
1741.7 77.70374493417891
1803.22 77.98186881659663
1866.21 77.61062559696428
1932.13 76.9548053644501
1999.51 77.18061021516942
2069.82 77.81431828386631
2143.07 77.75844308573457
2219.24 77.29448363619143
2296.88 77.62466144873585
2378.91 77.76818815043475
2462.4 77.46412592141759
2548.83 77.61476073323324
2639.65 77.26898834136485
2731.93 76.85201281241127
2828.61 76.83515682408708
2928.22 76.52105170188146
3030.76 77.26934474285922
3137.7 77.96100983632576
3249.02 77.85578570061746
3363.28 77.88547339456235
3481.93 77.6477437975556
3604.98 76.98368336600112
3732.42 76.94953241472676
3864.26 76.65389218887209
4000.49 76.50678599522678
4141.11 76.29778573404887
4287.6 76.21636725880452
4438.48 76.12383830827068
4595.21 76.1020675889656
4756.35 76.02761402369438
4924.8 76.23614790992045
5097.66 76.07086370168041
5277.83 75.5410882337683
5463.87 76.08214244051587
5657.23 75.91392377463124
5856.45 75.97497949444684
6062.99 76.2832944435068
6276.86 76.2333392324837
6498.05 75.983719618262
6726.56 76.02344534299142
6963.87 76.09742574867238
7209.96 76.21024984608975
7464.84 75.97484388540515
7727.05 75.72989565439102
7999.51 75.5289502296651
8282.23 75.51086597355538
8573.73 75.69005177488394
8876.95 75.59462293841793
9188.96 75.31873564256702
9514.16 75.07118098700843
9849.61 74.87685055496667
10196.8 74.64159157109515
10555.7 74.37890743722598
10927.7 73.99082133845967
11313.0 73.89702210175444
11712.9 73.73997706156096
12126.0 73.497755414534
12553.7 73.401245415418
12996.1 73.3390898532467
13454.6 73.3659674310529
13929.2 73.10256883400386
14419.9 72.83239911630022
14928.2 72.61762427041144
15455.6 72.53062248741027
16000.5 72.34028958775374
16564.5 72.08528000298654
17148.9 71.85417769252919
17752.4 71.77517501891938
18379.4 71.49515039115764
19026.9 70.99353228472928
19697.8 70.49789191544559
19999.5 70.23218656069167
