Freq "Listening Window"
20.5078 63.74107684982657
21.9727 65.12332283311856
23.4375 65.6615974945076
24.9023 66.33978170161292
26.3672 67.29730607014088
27.832 68.07239580510351
29.2969 68.87886118851064
30.7617 69.71231294501575
32.2266 70.05210311913902
33.6914 70.73371187282456
35.1562 71.66273287250877
36.6211 72.12201548399132
38.0859 72.87967999544428
39.5508 73.1571617329752
41.0156 73.28871212218594
42.4805 73.40864054722832
43.9453 74.14728267096977
45.4102 74.7097375409648
46.875 75.25073742046078
48.3398 75.60325900433524
51.2695 76.52100906743296
52.7344 76.98076048560479
54.1992 77.43559408743293
55.6641 77.7292193426238
58.5938 78.40890114120687
60.0586 78.79219790750993
62.9883 79.43606168206654
64.4531 79.69797226309626
67.3828 80.26743570394324
68.8477 80.50416351073055
71.7773 81.07528455983125
74.707 81.72137795087676
77.6367 82.27563758863116
79.1016 82.49489214733815
82.0312 82.8763195206071
84.9609 83.19099695180451
87.8906 83.93904042435257
90.8203 84.26456496235897
95.2148 84.62022354963213
98.1445 85.07942812698029
101.074 85.332435929196
105.469 85.79329693044758
108.398 86.07573836083738
112.793 86.49047335474572
117.188 86.87379570792787
120.117 86.96953623618032
124.512 87.26938579469542
128.906 87.55083003192249
133.301 87.79133053963695
139.16 87.9919671305123
143.555 88.16185579228316
147.949 88.34347283852114
153.809 88.50925133199499
159.668 88.70041721923567
165.527 88.81894359948926
171.387 89.00204070994339
177.246 89.00614310904808
183.105 89.06563127516182
188.965 89.08896269676214
196.289 89.17888115847113
203.613 89.18333205267926
210.938 89.10376201344947
218.262 89.02026344809981
225.586 89.25431120425493
232.91 89.27093194885573
241.699 89.01777358299479
250.488 89.4836357819653
259.277 89.15775832373387
268.066 89.20451134037263
276.855 89.3154886171258
287.109 89.12624521581417
297.363 89.75637024612881
307.617 89.24299433436197
319.336 89.16787354084131
329.59 88.95685139214572
341.309 88.95528313889729
353.027 89.0856641250485
366.211 89.27708626665775
379.395 88.95500536358695
392.578 89.01878191881435
405.762 89.12197868670918
420.41 89.11136476745465
435.059 89.66205399094659
451.172 89.74594899288329
465.82 89.75033748660987
483.398 89.75102712979216
499.512 89.27229451123283
517.09 88.32007254937966
536.133 89.25474884728582
555.176 88.77696442332815
574.219 88.72144895686927
594.727 89.41761963138266
615.234 89.44499256581948
637.207 88.59031737642776
659.18 88.48584381226084
682.617 88.73988238161981
707.52 88.41941476862029
732.422 88.65064494697474
757.324 89.49879100807786
785.156 89.45036032259986
811.523 89.29788694663726
840.82 89.7084926479211
870.117 90.56908109386993
900.879 89.9647982984767
933.105 89.84762723619438
965.332 90.0860450151316
1000.49 89.8833775188799
1035.64 90.21789051103713
1072.27 89.61830261704786
1108.89 89.49050567477168
1148.44 89.44486180387743
1189.45 89.71946914738064
1230.47 90.25010457982121
1274.41 90.58663878102183
1319.82 90.80048421902696
1366.7 91.0122656563325
1413.57 91.02068761792613
1463.38 90.7992255123687
1516.11 90.1492515047229
1568.85 89.79316607643828
1624.51 89.91666876055503
1681.64 90.04563394190275
1741.7 90.03391061146618
1803.22 90.00380571256538
1866.21 89.73013152573668
1932.13 89.59051375240685
1999.51 89.86111490018357
2069.82 90.09251242731249
2143.07 89.99336087811336
2219.24 89.49579749146635
2296.88 88.6081211505893
2378.91 88.63692121607681
2462.4 88.59317135840617
2548.83 88.37157109773987
2639.65 87.71072115636288
2731.93 87.611921151376
2828.61 87.89405060565795
2928.22 88.49259498322992
3030.76 88.51348974058328
3137.7 88.45738894737119
3249.02 88.23838479088397
3363.28 88.30639166687571
3481.93 88.47660338415815
3604.98 88.23433013718852
3732.42 88.46963714130702
3864.26 88.03987272553971
4000.49 88.14812026543665
4141.11 88.49269561072076
4287.6 88.82509518202657
4438.48 88.47322744138397
4595.21 88.26363163288599
4756.35 88.41187113645498
4924.8 88.48469969000588
5097.66 88.06054321964746
5277.83 87.99212136791323
5463.87 87.41803056776985
5657.23 88.13406986761542
5856.45 88.74856768550413
6062.99 88.61096009249916
6276.86 88.31384994313962
6498.05 88.41712494433355
6726.56 88.17879549743974
6963.87 88.31146761032224
7209.96 88.12787097490354
7464.84 87.75041039190076
7727.05 87.63900193658286
7999.51 87.82090466761477
8282.23 88.40771062722176
8573.73 88.38430454198547
8876.95 88.29755062764777
9188.96 88.08451767636741
9514.16 87.878307003637
9849.61 87.66527795666924
10196.8 87.55953370452121
10555.7 87.66765636869302
10927.7 87.56609187528606
11313.0 87.28656873355875
11712.9 86.94086931633144
12126.0 86.45592858689537
12553.7 85.91989599705539
12996.1 85.22693756993564
13454.6 85.20905525675651
13929.2 85.3080580173408
14419.9 85.18604855021785
14928.2 85.50168746601004
15455.6 85.87194809475062
16000.5 86.18998843262197
16564.5 86.27982441183659
17148.9 86.24877780691874
17752.4 86.15299554847832
18379.4 85.94877626630331
19026.9 85.67619910773423
19697.8 85.33157042585879
19999.5 85.15963896576365
