Freq "Ceiling Bounce"
20.5078 75.42593239224576
21.9727 79.23146347620194
23.4375 81.03125738687137
24.9023 83.06498377008066
26.3672 84.88117667427464
27.832 86.30095398996001
29.2969 87.96667248099611
30.7617 89.3687788472933
32.2266 90.70356902735145
33.6914 92.03169747009338
35.1562 93.24276157766462
36.6211 94.34723979498409
38.0859 95.4055727295149
39.5508 96.02643950228946
41.0156 96.46885805257716
42.4805 96.67598720974914
43.9453 96.6909010344374
45.4102 96.69739960675273
46.875 96.59874725335092
48.3398 96.52020433942849
51.2695 96.36394931853029
52.7344 96.33162980290963
54.1992 96.32939303260798
55.6641 96.3468677591375
58.5938 96.36582604620085
60.0586 96.38187176376644
62.9883 96.50572898056454
64.4531 96.5996692691318
67.3828 96.74781951534105
68.8477 96.76023243959614
71.7773 96.7381484611425
74.707 96.84806234564401
77.6367 96.8344158310556
79.1016 96.8570936993787
82.0312 96.85196211239317
84.9609 96.85472960201731
87.8906 96.94170667388195
90.8203 96.98861561772272
95.2148 96.88172479215113
98.1445 96.7967874353545
101.074 96.85076121984909
105.469 96.7683640527559
108.398 96.59696797788617
112.793 96.23330610366767
117.188 96.20413592974728
120.117 96.17350200983923
124.512 95.86023880973539
128.906 95.99736740789152
133.301 96.18669254454625
139.16 96.12147365995108
143.555 95.90851585263887
147.949 95.76095712716744
153.809 95.65911647318647
159.668 95.50178882435657
165.527 95.46121721369192
171.387 96.17225628305445
177.246 96.6225121973444
183.105 96.48806626676584
188.965 96.17850891806077
196.289 95.90605806445755
203.613 95.77475894607466
210.938 95.7255053576976
218.262 95.77159266099899
225.586 95.54097590362592
232.91 95.36476814676534
241.699 95.46422765151279
250.488 95.19613658240252
259.277 95.7551634771076
268.066 95.83791969768853
276.855 95.31197574886494
287.109 95.0236689196772
297.363 95.50907753382214
307.617 95.66603822486586
319.336 95.18732270666194
329.59 95.24321729403265
341.309 95.3178010058736
353.027 95.69510141787201
366.211 95.46719734187323
379.395 95.63102223752713
392.578 95.52340868630553
405.762 95.65496568317593
420.41 95.55201772090389
435.059 94.55402638322066
451.172 94.83995774449842
465.82 94.74757921295247
483.398 94.35250980449486
499.512 94.41674504729613
517.09 94.38017572973129
536.133 93.27016620033238
555.176 94.03993702333013
574.219 93.60267216239318
594.727 93.54523754696137
615.234 93.80050268016878
637.207 94.06424979261772
659.18 94.3534879443997
682.617 94.97313042089532
707.52 94.78834207324678
732.422 94.6836014287527
757.324 95.1159944387201
785.156 95.49001588448463
811.523 94.94714049993296
840.82 94.38538197497675
870.117 94.6027283855813
900.879 94.74189721699858
933.105 94.64179980036411
965.332 94.08982619352174
1000.49 94.66131299358547
1035.64 94.06063098916732
1072.27 93.99873027443104
1108.89 93.87598061966003
1148.44 94.06815670055832
1189.45 93.91386564178893
1230.47 93.43680077033129
1274.41 93.12167108572564
1319.82 92.74951345407658
1366.7 92.72923324551941
1413.57 92.54311744762933
1463.38 92.16359359996295
1516.11 91.48593910835702
1568.85 91.54868117059219
1624.51 91.32572878434715
1681.64 91.99158910457624
1741.7 91.29403877020546
1803.22 92.0056007222206
1866.21 91.7705838917301
1932.13 90.53417787935275
1999.51 91.28588474797829
2069.82 92.63278572208853
2143.07 93.09594251881146
2219.24 93.49358586946724
2296.88 93.98336419503418
2378.91 94.49269249828018
2462.4 94.50814296158262
2548.83 94.10102048511246
2639.65 93.83887753578692
2731.93 93.8296987339398
2828.61 93.647790575416
2928.22 93.87701394809565
3030.76 93.83822637376903
3137.7 94.28212206870641
3249.02 94.21906521534775
3363.28 94.4420586934557
3481.93 93.87476765669045
3604.98 93.41566972694297
3732.42 92.81285121108614
3864.26 93.09536579891837
4000.49 92.66425453929583
4141.11 92.93207488363596
4287.6 92.36466553640565
4438.48 92.44572163734853
4595.21 92.21540417990448
4756.35 92.16879641546058
4924.8 91.3559608886068
5097.66 91.1982043445221
5277.83 91.3961062406656
5463.87 91.24561634566427
5657.23 91.36755767703707
5856.45 91.41577825760224
6062.99 91.35266537944307
6276.86 91.40400770506423
6498.05 91.59576655511545
6726.56 91.93292678350461
6963.87 91.88215006291047
7209.96 91.74487710026536
7464.84 91.65562974583952
7727.05 91.83120111795205
7999.51 91.54911486864488
8282.23 91.18484233205523
8573.73 91.21101006199008
8876.95 91.3868750783478
9188.96 91.17641354174215
9514.16 90.95774704859504
9849.61 90.66130568701534
10196.8 90.33189159830073
10555.7 90.03019354938823
10927.7 89.57694028433153
11313.0 89.11642868415196
11712.9 88.8237705600367
12126.0 88.0560441832255
12553.7 87.19504750281837
12996.1 86.78202508456796
13454.6 86.5846615200255
13929.2 86.32773945623073
14419.9 85.620965346077
14928.2 85.31773516233007
15455.6 85.37576310972747
16000.5 85.75272330734033
16564.5 85.5074972649561
17148.9 85.12623541150793
17752.4 84.82447952891741
18379.4 84.53280423588879
19026.9 84.13191006711736
19697.8 83.85883896606572
19999.5 83.83179557642615
