Freq "Floor Bounce"
20.5078 75.91797314247592
21.9727 79.63110372838317
23.4375 81.4907029262941
24.9023 83.36988493060036
26.3672 85.18839419657346
27.832 86.630516769635
29.2969 88.23288800238157
30.7617 89.63171445641942
32.2266 90.97635971319237
33.6914 92.29096974902254
35.1562 93.55403133904576
36.6211 94.64815190465218
38.0859 95.66778306515869
39.5508 96.31180489447722
41.0156 96.73979396963264
42.4805 96.95279715290815
43.9453 97.00696194806554
45.4102 97.00229798831944
46.875 96.91227400957993
48.3398 96.81334178779927
51.2695 96.64644885871512
52.7344 96.63048989883761
54.1992 96.6323907007042
55.6641 96.64100929619231
58.5938 96.66995473155774
60.0586 96.71473640350116
62.9883 96.84388428054041
64.4531 96.90615523320616
67.3828 97.00131284792093
68.8477 97.01153596681301
71.7773 97.00298655956476
74.707 97.11931214289206
77.6367 97.09502870625434
79.1016 97.12911509166554
82.0312 97.13134571511074
84.9609 97.14724643271255
87.8906 97.2161001759224
90.8203 97.23620524761712
95.2148 97.14410495746722
98.1445 97.10725917391812
101.074 97.16101871625864
105.469 97.09833817800356
108.398 96.87502766950462
112.793 96.5533438304496
117.188 96.80073749066638
120.117 96.88921512440822
124.512 96.83436237468541
128.906 96.62395446267382
133.301 96.75248287463724
139.16 96.61376707527991
143.555 96.6161937378289
147.949 96.46269582875084
153.809 96.0093524778031
159.668 96.05528868333195
165.527 96.35394916122208
171.387 96.80559031240209
177.246 97.05565461676834
183.105 97.2419449781276
188.965 97.31942319813083
196.289 97.15041927707915
203.613 96.93083824681479
210.938 96.94006067957847
218.262 97.08041906630093
225.586 96.89458798102719
232.91 97.02981434059308
241.699 96.98846815847565
250.488 96.9115250762062
259.277 97.3214058474715
268.066 97.21506213853941
276.855 96.93439922798916
287.109 96.70454760011496
297.363 96.86412590199701
307.617 96.82910994625026
319.336 96.50798344987567
329.59 96.87089002340241
341.309 96.84865956752739
353.027 97.28344719438337
366.211 96.587804876509
379.395 96.726402857878
392.578 96.51742606744868
405.762 96.94730389466847
420.41 96.52270637516891
435.059 96.37491751548498
451.172 96.19647676253776
465.82 96.40482384142679
483.398 96.65751693564359
499.512 96.10251712417345
517.09 96.57046325155542
536.133 96.5228303890033
555.176 95.93882479891528
574.219 96.7991236409733
594.727 95.36746872955459
615.234 96.12450952503708
637.207 95.94976210002342
659.18 95.66691105894512
682.617 95.29464957553427
707.52 95.49569686581636
732.422 95.38706648830649
757.324 95.76840438332212
785.156 94.87321891878113
811.523 95.260446031847
840.82 94.7375997069191
870.117 95.43704494186187
900.879 95.31458078039365
933.105 95.97057689502476
965.332 95.24695528472225
1000.49 96.15863364816173
1035.64 95.40622148432041
1072.27 96.46078808570245
1108.89 96.84766129334845
1148.44 96.78564597805212
1189.45 96.62647657149621
1230.47 96.68466096349293
1274.41 96.37503925356414
1319.82 96.44326288286159
1366.7 96.56463116094935
1413.57 96.52691530752237
1463.38 96.35946882406346
1516.11 95.72833365207569
1568.85 95.26642003414395
1624.51 94.99268996374532
1681.64 94.0633911399504
1741.7 92.72052277596427
1803.22 92.58488504067205
1866.21 92.09587287380455
1932.13 90.27467747725646
1999.51 89.12199589968198
2069.82 89.37564064571467
2143.07 88.6014194356842
2219.24 86.9862498002776
2296.88 88.64952887198797
2378.91 88.86922586417944
2462.4 89.09366831509004
2548.83 89.94495050281456
2639.65 91.25008692127733
2731.93 92.01758396967313
2828.61 92.57391931775933
2928.22 93.14148774997275
3030.76 93.08976390911204
3137.7 93.62019649846353
3249.02 94.44757487847438
3363.28 95.38355777056923
3481.93 95.78239948667495
3604.98 95.33688018985731
3732.42 95.0439899994138
3864.26 94.48824253993136
4000.49 94.5346833947854
4141.11 94.19015954947781
4287.6 94.23550566058967
4438.48 94.43348468332454
4595.21 94.62469806404705
4756.35 94.00639464808717
4924.8 93.59276119231265
5097.66 93.65832049299607
5277.83 93.7447226625637
5463.87 93.42741643856212
5657.23 93.78586624904962
5856.45 94.24328760402155
6062.99 93.92259955020987
6276.86 94.14021820407936
6498.05 95.00224818635125
6726.56 95.11501787460445
6963.87 94.99313831473796
7209.96 94.65185862502742
7464.84 94.95674897586218
7727.05 94.65291135118262
7999.51 94.94776199704339
8282.23 95.21658007481314
8573.73 94.41289254159489
8876.95 94.45670790998136
9188.96 94.36831458687236
9514.16 94.07706401477125
9849.61 93.8991102140829
10196.8 93.93056120130416
10555.7 93.82347975079776
10927.7 93.65902512812303
11313.0 93.58605011914007
11712.9 93.32422645468677
12126.0 93.24503951695598
12553.7 93.02263938526649
12996.1 92.63840950066849
13454.6 92.45768255833588
13929.2 92.36215371316328
14419.9 92.36670210502064
14928.2 92.03173761093524
15455.6 91.39761406908987
16000.5 90.61022716956872
16564.5 89.26023422446008
17148.9 87.82619365440247
17752.4 88.79072827599073
18379.4 89.30964765491417
19026.9 89.40489336341828
19697.8 89.90277451696129
19999.5 90.0835581998554
