Freq "Side Wall Bounce"
20.5078 75.94245676493932
21.9727 79.72644550271988
23.4375 81.5798588910659
24.9023 83.52958088783463
26.3672 85.3396323834179
27.832 86.75596136114959
29.2969 88.37364826305557
30.7617 89.76755260802287
32.2266 91.10523256772626
33.6914 92.41740383075042
35.1562 93.65700718272231
36.6211 94.76450670071009
38.0859 95.80446471821229
39.5508 96.4166245354507
41.0156 96.84541561354638
42.4805 97.04332693772884
43.9453 97.07998176662296
45.4102 97.07092063343049
46.875 96.97943883058053
48.3398 96.88807575727438
51.2695 96.71896855466773
52.7344 96.68833686354982
54.1992 96.68155074751819
55.6641 96.68923786232415
58.5938 96.70026195308003
60.0586 96.72621361795929
62.9883 96.8380235484741
64.4531 96.90079732246309
67.3828 97.01253182994404
68.8477 97.0227810614261
71.7773 97.01277789100297
74.707 97.0987038959223
77.6367 97.08019772621759
79.1016 97.10745409987467
82.0312 97.10200471316493
84.9609 97.09649450428321
87.8906 97.14714002767997
90.8203 97.16849599363759
95.2148 97.03762983596116
98.1445 96.9617008740168
101.074 96.9801379325575
105.469 96.87936364616947
108.398 96.6734182644631
112.793 96.36276020458412
117.188 96.38988953928548
120.117 96.48456188307628
124.512 96.28830955287641
128.906 96.16070610270556
133.301 96.32043563940223
139.16 96.24596151236733
143.555 96.08027638160843
147.949 95.8537794409458
153.809 95.58768437162965
159.668 95.41953922051705
165.527 95.38650143100762
171.387 96.10710447065689
177.246 96.46021713762737
183.105 96.34353956040715
188.965 96.17360888210528
196.289 95.95902294388492
203.613 95.75246007606577
210.938 95.66352124447847
218.262 95.8783940721508
225.586 95.59213115520305
232.91 95.56375234375821
241.699 95.544745997766
250.488 95.36660375108401
259.277 95.85256862808839
268.066 96.14388216900086
276.855 95.36890745731978
287.109 95.35893460558006
297.363 95.50841389077188
307.617 95.90175078705958
319.336 95.43193475506784
329.59 95.40651048635942
341.309 95.40609690511972
353.027 95.97381283398083
366.211 95.88968861299237
379.395 96.1621668396083
392.578 95.71032564953384
405.762 96.04023022191883
420.41 95.32164658393728
435.059 94.98193884341865
451.172 94.7582833457715
465.82 95.40010914984497
483.398 94.85103537016883
499.512 94.92841585596187
517.09 95.08558871818724
536.133 94.36643189667606
555.176 94.5152589594278
574.219 95.20842632279152
594.727 94.42778498316305
615.234 94.02275195714297
637.207 94.0132418119031
659.18 94.24952133625331
682.617 94.01719119279525
707.52 94.25764363331695
732.422 94.67503438348444
757.324 94.46007102188675
785.156 94.41172125540875
811.523 94.58103201223886
840.82 94.33235709675618
870.117 94.71403401152021
900.879 94.37509615177797
933.105 93.81980911499076
965.332 93.85515517139099
1000.49 93.24649113536518
1035.64 94.06673837735597
1072.27 94.10008897542086
1108.89 93.99039806331453
1148.44 93.69458906081273
1189.45 93.33751519436434
1230.47 93.28431910100919
1274.41 93.21790569761487
1319.82 93.46822921147317
1366.7 92.90696568270643
1413.57 92.73141019369363
1463.38 92.82998958028396
1516.11 92.46206927817016
1568.85 92.70384975136709
1624.51 92.57692601732543
1681.64 91.96066928987834
1741.7 91.9472367870828
1803.22 92.67096580610408
1866.21 92.6413970996796
1932.13 92.0175049489606
1999.51 92.61736420340308
2069.82 92.81154719621699
2143.07 92.7752699671583
2219.24 93.41235848792935
2296.88 93.74984555234884
2378.91 93.09697497166742
2462.4 92.73044265920731
2548.83 92.99061091587764
2639.65 92.78374536507766
2731.93 92.28793771466931
2828.61 92.67047258467417
2928.22 92.6238217024426
3030.76 92.32950738993837
3137.7 92.72476613421824
3249.02 93.1567283379638
3363.28 93.18226569624366
3481.93 93.2925248017252
3604.98 92.75266050344445
3732.42 92.2892779134495
3864.26 91.97844189786096
4000.49 91.59084090093805
4141.11 91.45465986032482
4287.6 91.3553868209367
4438.48 91.25975420019884
4595.21 90.71994169025544
4756.35 90.83953100366233
4924.8 90.58049608443939
5097.66 91.18213263423686
5277.83 91.13230056319703
5463.87 91.02783508274564
5657.23 90.70013236330911
5856.45 90.38308329353943
6062.99 90.17997020317895
6276.86 90.24688545018473
6498.05 90.28221431602185
6726.56 90.56562031739962
6963.87 90.58792525319345
7209.96 90.77054105033592
7464.84 90.76967945480608
7727.05 90.63053376894526
7999.51 90.82634821201363
8282.23 90.94970250994763
8573.73 90.96321627755817
8876.95 90.99197103638697
9188.96 90.80434530585359
9514.16 90.49244254620777
9849.61 90.23941715406924
10196.8 89.8060679921393
10555.7 89.40067195156942
10927.7 88.84865907399809
11313.0 88.38526641722893
11712.9 87.86980999034502
12126.0 87.58403704115428
12553.7 87.07853198019309
12996.1 86.4000973292718
13454.6 86.19188762319573
13929.2 85.8677198037986
14419.9 85.65689922799118
14928.2 85.62705323851196
15455.6 85.9151013559563
16000.5 86.4776059697262
16564.5 86.36893896342283
17148.9 84.91443175416894
17752.4 83.99780822200805
18379.4 83.88142043107999
19026.9 83.73302909598843
19697.8 84.01799069847428
19999.5 84.2559689476162
