Freq "Floor Bounce"
22.4 46.70802578383993
23.0 47.50802578383994
23.6 48.240484020231605
24.0 48.973449069017406
25.0 49.722976101485614
25.8 50.44091547926374
26.5 51.075424550880626
27.2 51.92724840336257
28.0 52.763056081324166
29.0 53.582099465906424
30.0 54.318718697347194
30.7 55.15587397080181
31.5 55.893568466273194
32.5 56.5501244038681
33.5 57.389165916436895
34.5 58.128756779999264
35.5 58.86889963406962
36.5 59.60959698988
37.5 60.29266459531064
38.7 60.93503920399914
40.0 61.677977028142635
41.2 62.32147990232227
42.5 63.06554951960999
43.7 63.731809733204415
45.0 64.65539503789655
46.2 65.9011736024585
47.5 66.84752423447533
48.7 66.99444789610621
50.0 67.04194539968738
51.5 67.69001740687598
53.0 68.43866442795127
54.5 68.91171121277564
56.0 69.36178541184279
58.0 69.83900753274932
60.0 70.33900753274932
61.5 70.81546078814453
63.0 71.34263124578447
65.0 71.7953048633261
67.0 72.37430692571958
69.0 72.8485520964121
71.0 73.128401414883
73.0 73.68306712003684
75.0 74.21172617140022
77.5 74.56725780582346
80.0 75.12335728630006
82.5 75.15047854031943
85.0 75.60741539100623
87.5 76.10741539100621
90.0 76.13725327190507
92.5 76.2950461651906
95.0 75.92297805395947
97.5 76.25339968456107
100.0 76.68159984142672
103.0 76.9407790217039
106.0 76.97177985711795
109.0 77.00051324372082
112.0 77.2318018034196
115.0 77.43180180341962
118.0 77.56080002507673
122.0 77.39237496677272
125.0 77.05349666992711
128.0 76.85349666992711
132.0 76.48302069455187
136.0 75.94494898410076
140.0 75.77737436505869
145.0 75.77737436505869
150.0 75.5773743650587
155.0 75.3773743650587
160.0 75.14012438930183
165.0 75.04012438930181
170.0 74.97333891382935
175.0 74.8034110236625
180.0 74.30341102366252
185.0 73.8034110236625
190.0 73.66723099499853
195.0 73.6010055272296
200.0 73.40100552722961
206.0 73.23158091996123
212.0 72.9010055272296
218.0 72.00100552722962
224.0 71.93529698985483
230.0 71.86563275081069
236.0 71.73078456026634
240.0 71.60020354066616
250.0 71.3656327508107
258.0 71.13529698985484
265.0 70.8656327508107
272.0 70.53529698985484
280.0 70.20100552722961
290.0 69.90100552722961
300.0 69.53690643489101
307.0 69.136906434891
315.0 68.77333891382936
325.0 68.41030629553386
335.0 68.04781179980682
345.0 67.74781179980683
355.0 67.41516411076654
365.0 67.04012438930182
375.0 66.46264724837569
387.0 65.76185656546042
400.0 65.1618565654604
412.0 64.66264724837569
425.0 64.3656327508107
437.0 64.43158091996123
450.0 64.8656327508107
462.0 65.60100552722962
475.0 66.47091669841201
487.0 67.40706616277339
500.0 68.20706616277339
515.0 68.87770570361879
530.0 69.30706616277338
545.0 69.57770570361879
560.0 69.57770570361879
580.0 69.40706616277338
600.0 69.00706616277338
615.0 68.5034110236625
630.0 68.06723099499852
650.0 67.90341102366251
670.0 68.0034110236625
690.0 68.27737436505869
710.0 68.52444947852308
730.0 68.4476191871224
750.0 68.10306050803987
775.0 67.45113885795622
800.0 66.5258369741153
825.0 65.65840482910242
850.0 65.27496258218225
875.0 65.79375079945996
900.0 66.61475027044342
925.0 67.01475027044343
950.0 66.78863875016806
975.0 65.92809936645001
1000.0 64.28863875016808
1030.0 62.25533724346596
1060.0 64.03158091996123
1090.0 69.50100552722962
1120.0 73.86329588944315
1150.0 74.72382539588426
1180.0 72.56831820040435
1220.0 69.92626983228615
1250.0 68.30959178580325
1280.0 68.24319924536236
1320.0 69.0884997602664
1360.0 69.86415133295043
1400.0 69.78002787589284
1450.0 68.38333971202204
1500.0 66.27558686413641
1550.0 65.30034227870362
1600.0 65.29150300228073
1650.0 65.4653730754974
1700.0 65.5731537610819
1750.0 65.5025982209318
1800.0 65.17067567830192
1850.0 64.74383503556766
1900.0 65.00771378896953
1950.0 65.4855964078747
2000.0 64.92972043273032
2060.0 64.73078456026633
2120.0 67.1773743650587
2180.0 69.69578426369168
2240.0 70.59578426369167
2300.0 69.97091669841201
2360.0 68.69656324783293
2400.0 68.43794907571447
2500.0 67.8626472483757
2580.0 66.8626472483757
2650.0 67.93396954522606
2720.0 70.0650188527345
2800.0 70.47607416511481
2900.0 70.19836341422997
3000.0 71.08807628432521
3070.0 70.78676407775025
3150.0 69.63589221241511
3250.0 68.44665550846243
3350.0 66.40802554057449
3450.0 65.65194926506534
3550.0 66.78153361857338
3650.0 66.48338564824417
3750.0 66.5516371679856
3870.0 66.93672307201969
4000.0 67.10867284042882
4120.0 67.57801377746065
4250.0 69.1697218806035
4370.0 69.05382114869529
4500.0 68.38002787589284
4620.0 68.8815414553988
4750.0 71.4959717942182
4870.0 73.04769081366705
5000.0 72.42202191408727
5150.0 70.17269021551587
5300.0 68.18097177229656
5450.0 69.30226729239473
5600.0 68.53753723147128
5800.0 64.59018525971449
6000.0 60.321597869485544
6150.0 60.9268523704076
6300.0 65.20893926661168
6500.0 67.11613720740108
6700.0 66.02297805395946
6900.0 66.42078473056613
7100.0 67.0284942880688
7300.0 66.609007254321
7500.0 65.21010502554367
7750.0 66.21700151545113
8000.0 65.61812324572927
8250.0 64.79505066034234
8500.0 65.07240166646133
8750.0 65.65137742163695
9000.0 66.91515912687007
9250.0 66.74755497782584
9500.0 66.90993953823464
9750.0 67.86575884058243
10000.0 68.14448499323234
10300.0 69.71490374981599
10600.0 69.724677351127
10900.0 67.08419262276018
11200.0 65.85710405647313
11500.0 68.8767640585903
11800.0 67.77769716846014
12200.0 65.52622538728872
12500.0 66.36134585300834
12800.0 67.63080352694618
13200.0 66.4013030851329
13600.0 67.32148369755028
14000.0 67.83435154100147
14500.0 67.42865188147337
15000.0 65.8920102027453
15500.0 66.86439360253766
16000.0 65.78294082328473
16500.0 66.7128874471363
17000.0 63.7034707648059
17500.0 61.85357644966348
18000.0 59.97528472433885
18500.0 61.41053569239884
19000.0 62.696683012795546
19500.0 64.0038638320317
