Freq "Rear Wall Bounce"
22.4 54.19418807245822
23.0 54.91473961986013
23.6 55.622231712681696
24.0 56.323727615821184
25.0 56.98515757490108
25.8 57.571522175154
26.5 58.160623750183646
27.2 58.965816369391405
28.0 59.76701511862184
29.0 60.45483367782889
30.0 61.10701516036097
30.7 61.839071365884735
31.5 62.51696577274015
32.5 63.12227660333528
33.5 63.8601798555526
34.5 64.53118552727948
35.5 65.13479036149556
36.5 65.77306518608773
37.5 66.3738169486327
38.7 66.9506633139888
40.0 67.53983145874311
41.2 68.08875375528842
42.5 68.69591481281593
43.7 69.30114160154871
45.0 70.03068007100939
46.2 71.21777656296047
47.5 72.0616237091765
48.7 72.07476227157022
50.0 71.95993586592863
51.5 72.50022372545486
53.0 73.08648774177672
54.5 73.46214379125004
56.0 73.77871307748362
58.0 74.10354161647024
60.0 74.44190517738396
61.5 74.82264494442245
63.0 75.15185333075404
65.0 75.51075944302795
67.0 75.92613527770888
69.0 76.23161617219058
71.0 76.37738768267876
73.0 76.80452300284702
75.0 77.15830356545264
77.5 77.38631720658002
80.0 77.78971908797033
82.5 77.67354031476023
85.0 77.9679580694131
87.5 78.29265666009164
90.0 78.18238666148392
92.5 78.20668099965847
95.0 77.66989759255372
97.5 77.85204024457241
100.0 78.16541216412546
103.0 78.2608603791705
106.0 78.12522416129397
109.0 78.02492162540288
112.0 78.06961205210709
115.0 78.14778133518818
118.0 78.14669817534859
122.0 77.81808278259754
125.0 77.34506985314393
128.0 77.03657272406414
132.0 76.51821731594224
136.0 75.8679356011898
140.0 75.52922228939772
145.0 75.35918649173082
150.0 75.04453455136294
155.0 74.73861238319353
160.0 74.37598245900934
165.0 74.164302080959
170.0 74.00679518659297
175.0 73.69738400439975
180.0 73.12247466771223
185.0 72.48637096992695
190.0 72.27340168709677
195.0 72.11246937332693
200.0 71.82016266958199
206.0 71.53398906430117
212.0 71.11035142324961
218.0 70.16065773382874
224.0 69.98324637574383
230.0 69.87569118191925
236.0 69.68724163256854
240.0 69.49526474600904
250.0 69.25254977795883
258.0 68.98731424860961
265.0 68.72234422625385
272.0 68.42782896108157
280.0 68.13469072326234
290.0 67.8647609129795
300.0 67.60924230500105
307.0 67.40083894474915
315.0 67.2314462356158
325.0 67.13469933699935
335.0 67.08875950291727
345.0 67.02865348528837
355.0 66.6676030995419
365.0 65.4978644192245
375.0 63.29180141758512
387.0 60.865198175475285
400.0 59.05961771453629
412.0 58.029280933453265
425.0 57.63844410456156
437.0 57.777415430385844
450.0 58.331805457072505
462.0 59.19883208436292
475.0 60.231460547267375
487.0 61.21284045515151
500.0 62.08115369341803
515.0 62.75697530612425
530.0 63.17453189355474
545.0 63.354555416531014
560.0 63.24863906393634
580.0 62.86101311977342
600.0 62.1895803430626
615.0 61.35724453341041
630.0 60.54953280361606
650.0 59.93833068744634
670.0 59.74956720151317
690.0 59.80909981479499
710.0 60.01582992028398
730.0 60.133885643946314
750.0 60.03633200982445
775.0 59.62986346218504
800.0 58.970210182946644
825.0 58.27549817240228
850.0 58.144883034652864
875.0 58.81726689079069
900.0 59.740970963632634
925.0 60.2117818009248
950.0 59.88364547197716
975.0 58.56952765911028
1000.0 56.12156611265844
1030.0 53.007003583870016
1060.0 53.51953595277952
1090.0 57.80493936459186
1120.0 61.24428416102978
1150.0 61.84696002278477
1180.0 60.46168275747374
1220.0 59.56018984014629
1250.0 59.283046555791856
1280.0 59.167980205464005
1320.0 58.952102986279144
1360.0 58.271732500788474
1400.0 56.90304686759052
1450.0 55.19395997538945
1500.0 54.64991123106768
1550.0 56.00944757158584
1600.0 57.22307428714656
1650.0 57.186119706060765
1700.0 56.229070840846106
1750.0 55.25208153228431
1800.0 55.023299072875346
1850.0 55.46460264160285
1900.0 56.008069117804425
1950.0 55.730713926888725
2000.0 54.11466763283906
2060.0 52.86379449487423
2120.0 53.94245060915607
2180.0 54.928935600987685
2240.0 54.52721773303442
2300.0 52.68641603593025
2360.0 50.6524043448031
2400.0 50.589209640745494
2500.0 49.87916954338857
2580.0 47.34492335973424
2650.0 45.77862010718354
2720.0 46.25392291446852
2800.0 46.75491853975561
2900.0 47.943991209708415
3000.0 51.269788599719476
3070.0 52.67960592518472
3150.0 52.70221433678795
3250.0 52.44744513402182
3350.0 50.88195557003549
3450.0 51.341417164499504
3550.0 53.5645042726611
3650.0 54.00789902296259
3750.0 54.762151954015934
3870.0 54.964133764470716
4000.0 53.756453687046104
4120.0 51.92332176373772
4250.0 50.86567010107072
4370.0 49.088315070042285
4500.0 47.48364254122521
4620.0 46.96699164046787
4750.0 50.51550106965743
4870.0 52.19782249994442
5000.0 52.366768889345394
5150.0 50.6932334974949
5300.0 48.694172839594444
5450.0 49.8570782804847
5600.0 48.99774378175654
5800.0 44.846998468624946
6000.0 41.552876129087736
6150.0 41.804424223193166
6300.0 46.77054032370576
6500.0 50.42554744289238
6700.0 49.307442114187936
6900.0 47.4429301999113
7100.0 48.55904057806043
7300.0 49.43066629684138
7500.0 47.913779445634816
7750.0 49.313626568137835
8000.0 48.07974778155142
8250.0 45.6986669696594
8500.0 45.645054213657545
8750.0 44.900969924634836
9000.0 44.95787632167685
9250.0 45.25083348062225
9500.0 44.29762435313975
9750.0 45.552783823620956
10000.0 46.89795391431787
10300.0 45.92118381250822
10600.0 46.198564603345716
10900.0 42.45949041537466
11200.0 43.01252727475264
11500.0 44.83306120492978
11800.0 43.17297458274683
12200.0 39.10624961926587
12500.0 41.83482619463609
12800.0 41.465374234061414
13200.0 39.748394124956974
13600.0 36.872379214742494
14000.0 35.671551169837585
14500.0 36.16752404659198
15000.0 30.818184105732968
15500.0 28.376258100210606
16000.0 30.536098300989835
16500.0 31.710456461389384
17000.0 27.831586959867337
17500.0 27.663248787149854
18000.0 29.720134868458018
18500.0 32.117155892048714
19000.0 32.03721391884346
19500.0 31.585544296724407
