Freq "Rear Wall Bounce"
20.5078 54.826986872547664
21.9727 55.53661493814202
23.4375 56.20163367888726
24.9023 56.941314674915034
26.3672 58.066510712086156
27.832 58.79103586883052
29.2969 59.42297750444031
30.7617 60.017518589066455
32.2266 60.946785060682046
33.6914 61.51244039783499
35.1562 62.17551838129175
36.6211 62.911520289180416
38.0859 63.63462796277305
39.5508 64.06278260768708
41.0156 64.79963060464173
42.4805 65.2098814213687
43.9453 65.77821695713185
45.4102 66.2385763839206
46.875 66.65717676414822
48.3398 67.24355611518722
51.2695 68.13710775351693
52.7344 68.63916848366631
54.1992 69.00647201607921
55.6641 69.3046059646968
58.5938 70.44527362328782
60.0586 70.94634891601159
62.9883 71.83980478485661
64.4531 72.26746131836602
67.3828 73.10178905458531
68.8477 73.50509982873625
71.7773 74.28566099554808
74.707 75.05165170051826
77.6367 75.78584531910803
79.1016 76.07034735481774
82.0312 76.49025322446727
84.9609 76.83759961590268
87.8906 77.0323980838167
90.8203 76.98760552011835
95.2148 76.64381240931499
98.1445 76.19006220360684
101.074 75.61748207629192
105.469 75.5716552222326
108.398 76.602449089127
112.793 77.6586141406636
117.188 77.17544828651708
120.117 77.08736170053955
124.512 77.29978872016855
128.906 77.64399651999655
133.301 77.35098338919484
139.16 76.8688545020231
143.555 76.57111998762754
147.949 76.27765936898412
153.809 76.13405677419553
159.668 76.06752085960534
165.527 75.93806819077196
171.387 75.8515140553087
177.246 75.59976411653757
183.105 75.05745358604725
188.965 74.57570481290465
196.289 74.51748686678089
203.613 74.45614036411855
210.938 75.2334322543076
218.262 76.24355240629615
225.586 76.93711249324106
232.91 76.90084047281951
241.699 76.75633947978892
250.488 76.63047268211281
259.277 75.78931001474517
268.066 76.3654873592357
276.855 75.93673288740374
287.109 75.66505889714152
297.363 75.36424793432131
307.617 75.55414311075855
319.336 75.62244758677427
329.59 76.01147800176973
341.309 76.07347749325729
353.027 76.12646732516257
366.211 77.57820806803109
379.395 77.25473325622194
392.578 77.51828937514561
405.762 77.93483470165437
420.41 76.96033048009006
435.059 76.63522526879672
451.172 76.80942473183198
465.82 76.75022684339432
483.398 76.82388189132125
499.512 77.18179712791219
517.09 76.12301578547897
536.133 75.91168274106069
555.176 75.93202353016257
574.219 76.18105028123254
594.727 75.25840235495
615.234 76.29273069246156
637.207 76.16988491266457
659.18 74.97986351339442
682.617 76.6860977762954
707.52 74.48958468376867
732.422 74.77756594855865
757.324 75.3047608073387
785.156 74.1907817974093
811.523 74.3328665478259
840.82 74.02542815831292
870.117 72.63335237994107
900.879 74.00553485225605
933.105 72.64967265010064
965.332 73.1302127770469
1000.49 73.4840703089548
1035.64 75.23042105868778
1072.27 72.7602520689039
1108.89 73.41318303004431
1148.44 73.23094239913299
1189.45 74.43825134043185
1230.47 75.39516940088777
1274.41 76.04194200883308
1319.82 75.09386495323612
1366.7 74.72770388813319
1413.57 73.61831786974643
1463.38 76.69733581521349
1516.11 74.81586027423553
1568.85 72.84495434006054
1624.51 73.13566007331157
1681.64 69.87136760348845
1741.7 71.43301411244589
1803.22 72.81976016934048
1866.21 71.58637955425137
1932.13 70.65316488524071
1999.51 70.07193580547249
2069.82 71.38663420254223
2143.07 71.96323332241788
2219.24 71.7458111143414
2296.88 71.87727509402517
2378.91 72.65424670833114
2462.4 72.01636585383253
2548.83 72.25451722530065
2639.65 71.3796871046683
2731.93 71.00084173212367
2828.61 70.0140446685123
2928.22 68.97134760381259
3030.76 68.75621736633356
3137.7 69.7155246299467
3249.02 70.22734878028277
3363.28 69.59089754541249
3481.93 71.56615315207402
3604.98 72.27676686369585
3732.42 71.59359465024696
3864.26 71.26394563155712
4000.49 69.79098285023267
4141.11 69.63971296764302
4287.6 70.05729108051013
4438.48 70.51713352188011
4595.21 71.7324677172108
4756.35 72.05005464628697
4924.8 70.78028994104328
5097.66 68.55978219133607
5277.83 66.99540345066593
5463.87 67.94267923196169
5657.23 69.8350681900416
5856.45 69.27147011001055
6062.99 69.48980564021565
6276.86 67.52983526658879
6498.05 65.58842695831795
6726.56 66.3737150525224
6963.87 68.16389663871705
7209.96 67.6220729275859
7464.84 66.64332174000889
7727.05 64.6739403554674
7999.51 66.41506681323968
8282.23 67.11928016724066
8573.73 63.77450161482356
8876.95 61.265233555884876
9188.96 63.73468553463742
9514.16 64.12336833124606
9849.61 61.23846113597462
10196.8 63.341516026621676
10555.7 64.06011725001748
10927.7 59.30566158373334
11313.0 60.61907768123483
11712.9 62.619482902548285
12126.0 58.594530903895205
12553.7 59.39617542500291
12996.1 59.28827562677019
13454.6 58.23418605601698
13929.2 60.84034570847582
14419.9 57.94330751663027
14928.2 61.22208541479971
15455.6 57.59835142837612
16000.5 57.93360055550501
16564.5 52.9141521218571
17148.9 56.21784334300149
17752.4 53.1418821195622
18379.4 54.800757108679775
19026.9 48.172064935029496
19697.8 49.123783310362924
19999.5 46.66882245032566
