Freq "Rear Wall Bounce"
20.0 39.463120800421336
20.2909 40.36304142081681
20.586 41.35557240103958
20.8855 42.36741271600988
21.1893 43.29802580259776
21.4975 44.11703440658245
21.8102 44.82912654636638
22.1274 45.45321863054315
22.4492 46.01889751624981
22.7758 46.56321346494124
23.1071 47.11651898659028
23.4432 47.69302177324096
23.7841 48.27677666059134
24.1301 48.83623473109894
24.4811 49.343888475261934
24.8372 49.78724491374025
25.1984 50.169584129158665
25.5649 50.511772571138735
25.9368 50.845084236579524
26.3141 51.19520233377989
26.6968 51.57270545809634
27.0851 51.970839604908804
27.4791 52.36491760854153
27.8788 52.729560560012544
28.2843 53.05788493230861
28.6957 53.35518742525822
29.1131 53.640225804754664
29.5365 53.92633260255754
29.9661 54.2163586550179
30.402 54.499011364050375
30.8442 54.753796234338125
31.2929 54.980371721474086
31.748 55.19375250816141
32.2098 55.41648552904701
32.6783 55.661548138546394
33.1536 55.91262224116274
33.6359 56.1477141465612
34.1251 56.35575404650689
34.6215 56.56175975959047
35.125 56.793040000485945
35.6359 57.05037857982698
36.1543 57.302419558631414
36.6802 57.5328568706946
37.2137 57.767849410545665
37.755 58.03619102451151
38.3041 58.325947551863464
38.8613 58.59130755693971
39.4265 58.835120983233935
40.0 59.12120664500212
40.5818 59.4627513212414
41.1721 59.76855066359329
41.771 59.98015173961994
42.3785 60.15415112075243
42.9949 60.379913521513984
43.6203 60.58160294298523
44.2548 60.640628211818594
44.8985 60.73070707877751
45.5515 61.13266885618212
46.2141 61.73452468355886
46.8863 62.13394536145809
47.5683 62.21738481308904
48.2602 62.32511524342166
48.9621 62.65078704908082
49.6743 62.99847933999527
50.3968 63.23925455644007
51.1299 63.51114114716077
51.8736 63.88774446628594
52.6281 64.2568289871279
53.3936 64.57959259192535
54.1702 64.92196297778531
54.9581 65.28515732067238
55.7575 65.6225181094465
56.5685 65.94207057129363
57.3914 66.26508292691891
58.2261 66.57920019871293
59.073 66.86174895785314
59.9323 67.12729663298899
60.804 67.41485463769821
61.6884 67.74504421666268
62.5857 68.08831170539175
63.496 68.4040270078932
64.4196 68.69417154751122
65.3566 68.97725062829413
66.3073 69.23450353064877
67.2717 69.47186295902426
68.2502 69.73914637240445
69.2429 70.01711003738427
70.2501 70.2891910825823
71.2719 70.56549481435549
72.3086 70.8130745804364
73.3603 71.01985836551171
74.4274 71.16323330398433
75.5099 71.24408473392658
76.6083 71.31583138861924
77.7226 71.36005573361162
78.8531 71.417634309746
80.0 71.5138349344802
81.1636 71.59048194343114
82.3442 71.6528849352938
83.5419 71.69750680027352
84.757 71.6904497346135
85.9899 71.64115985260631
87.2406 71.57846776709742
88.5096 71.52228647185713
89.797 71.46181043669506
91.1031 71.3672035101965
92.4282 71.20378989034154
93.7726 70.95729742615718
95.1366 70.70473330389987
96.5204 70.48430172313695
97.9243 70.32723950249154
99.3486 70.22723984256375
100.794 70.13617461363776
102.26 70.03821334128415
103.747 69.95073221951547
105.256 69.86767441964405
106.787 69.76856678303295
108.34 69.64510391542731
109.916 69.47308557783072
111.515 69.31349167017929
113.137 69.19528110243449
114.783 69.10350508989131
116.452 68.99901008486302
118.146 68.92656551264783
119.865 68.87075541253694
121.608 68.81858529794395
123.377 68.77227724377221
125.171 68.72340402786159
126.992 68.6962398728065
128.839 68.65523781602748
130.713 68.58801611121814
132.615 68.4411047674784
134.543 68.26947803193549
136.5 68.18590944795399
138.486 68.06279825917532
140.5 67.89863067613271
142.544 67.72178613378013
144.617 67.5287675305918
146.721 67.38978775797857
148.855 67.39646287101266
151.02 67.36071066981512
153.217 67.10954745811085
155.445 66.83986326946629
157.706 66.6904606540526
160.0 66.57125409061858
162.327 66.78572339883588
164.688 67.11326954176944
167.084 67.66629980476947
169.514 68.20594787393678
171.98 68.26678777554469
174.481 68.3028860576206
177.019 68.39340604301593
179.594 68.47640818814925
182.206 68.52202582573776
184.856 68.6063957560045
187.545 68.71265661310699
190.273 68.83932307166273
193.041 68.94031253200023
195.849 68.98652942271606
198.697 69.09628958935453
201.587 68.98933049256884
204.52 68.88022682690955
207.494 68.80443465187807
210.512 68.58412912557219
213.574 68.29596377898824
216.681 68.1656279621629
219.833 68.10926000843192
223.03 68.17750357498838
226.274 68.05304264697884
229.565 67.91104618071743
232.905 67.74857971808814
236.292 67.79446885595507
239.729 67.66215830454038
243.216 67.5623216618998
246.754 67.72491058882768
250.343 68.11788770849223
253.984 68.40021234751792
257.678 68.47321320144626
261.426 68.37378364879166
265.229 68.20466684030015
269.087 67.42907604881499
273.001 67.31871639238494
276.972 67.35285537806001
281.0 67.05222418497826
285.088 67.1320607048285
289.234 67.26900603418206
293.441 67.44584205523012
297.709 67.64850566899108
302.04 67.50359234996785
306.433 66.87593724864351
310.89 66.79552394830458
315.412 66.67483985322436
320.0 66.46648956781783
324.655 66.2919524232709
329.377 66.37300768771306
334.168 66.47559574280054
339.028 66.33456816542758
343.959 65.78113915099341
348.962 65.88443079472302
354.038 66.36651764204937
359.188 66.90753962193017
364.412 67.29937633958666
369.713 66.79999105689002
375.09 66.70203773784658
380.546 66.78050304042468
386.081 67.03320257754362
391.697 67.03773767476648
397.394 67.0562060118099
403.175 66.22240477455026
409.039 66.23920534014825
414.989 65.84044213645478
421.025 65.82397656095478
427.149 65.71589679444926
433.362 65.72553377249676
439.665 65.69999845291355
446.06 65.26222321636043
452.548 65.39638520008965
459.131 64.93618029395962
465.809 65.38621418200866
472.584 65.17906724090476
479.458 65.09788154321828
486.432 65.10773835097842
493.507 65.32002566284089
500.686 64.9437877289439
507.968 65.2886872661847
515.357 65.54659931610507
522.853 65.60985624251303
530.458 65.76906782817807
538.174 66.16133277000843
546.002 66.78328243834335
553.943 66.7424812523268
562.001 66.82541102683227
570.175 66.88541912731202
578.469 66.7749742639143
586.883 66.78154623631211
595.419 66.56884743083556
604.08 66.58189511707907
612.866 66.61066429788472
621.78 66.44702030861912
630.824 66.20682200610389
640.0 65.92133561854791
649.309 65.72314059153871
658.753 65.50327771462997
668.335 65.22774231326655
678.056 64.99705106700038
687.919 64.70506845349065
697.925 64.40604170477704
708.077 64.12900813551869
718.376 63.88302220879571
728.825 63.731138109133184
739.426 63.71246289953946
750.181 63.80616674946775
761.093 63.97833782438052
772.163 64.2002158116747
783.394 64.43848052981546
794.789 64.69105204916394
806.349 64.92210528973825
818.078 65.12374123010498
829.977 65.28600383586132
842.05 65.39669519036411
854.298 65.45272741949869
866.724 65.44102359841592
879.33 65.36504905531929
892.12 65.21606976846722
905.097 65.00363689036259
918.262 64.71391634275793
931.618 64.36381331485597
945.169 63.94453274950281
958.917 63.47454265596947
972.864 62.94963945244258
987.015 62.41139580053651
1001.37 61.85355015348287
1015.94 61.3115897958327
1030.71 60.822293660279485
1045.71 60.39901199508422
1060.92 60.056838119233305
1076.35 59.79815889789096
1092.0 59.622721427996765
1107.89 59.495477106365755
1124.0 59.386470567839496
1140.35 59.26134616184203
1156.94 59.08211618339129
1173.77 58.84060978696398
1190.84 58.50983158330081
1208.16 58.085641305377635
1225.73 57.54913341075613
1243.56 56.941626447843674
1261.65 56.33557097583417
1280.0 55.821070915006786
1298.62 55.57791914292281
1317.51 55.716118882838174
1336.67 56.24161901699382
1356.11 56.99086735601574
1375.84 57.824883232021776
1395.85 58.57070379536826
1416.15 59.16656901378535
1436.75 59.56577848417871
1457.65 59.75361782266984
1478.85 59.71359819552845
1500.36 59.45341229549777
1522.19 58.99953015281611
1544.33 58.39539445050616
1566.79 57.77306758409364
1589.58 57.27722139153917
1612.7 57.08249681995139
1636.16 57.22858394237559
1659.95 57.59267809302821
1684.1 57.98551768986664
1708.6 58.24962187856735
1733.45 58.27290786392237
1758.66 58.002541881419404
1784.24 57.425762825888086
1810.19 56.58099047492594
1836.52 55.57617277095366
1863.24 54.68948074186477
1890.34 54.22308832229328
1917.83 54.30295751245163
1945.73 54.69119211415986
1974.03 55.03413101324006
2002.74 55.0933337926478
2031.87 54.789406877502685
2061.43 54.108502779352435
2091.41 53.18178293432362
2121.83 52.296737637468325
2152.69 51.8505501139756
2184.01 51.965475049450106
2215.77 52.33940506433686
2248.0 52.57533770018895
2280.7 52.442158341132114
2313.87 51.9101286719457
2347.53 51.069452404694374
2381.68 50.199733604292845
2416.32 49.66673341819882
2451.46 49.59296551828676
2487.12 49.704358135572534
2523.3 49.72092227506836
2560.0 49.53809917729541
2597.24 49.27774332920481
2635.01 49.12747035277168
2673.34 49.14074286575615
2712.23 49.113852051327896
2751.68 48.913229592015966
2791.7 48.5066527008571
2832.31 48.08162954887773
2873.5 47.95554375391063
2915.3 48.190823217985
2957.7 48.526922030672736
3000.72 48.78593625189356
3044.37 48.97910523171542
3088.65 49.19605361629678
3133.58 49.454568482531485
3179.16 49.62415662696759
3225.4 49.62213185312493
3272.31 49.493894873727655
3319.91 49.484107687653875
3368.2 49.72569700854359
3417.19 50.0234706643558
3466.89 50.105443169418635
3517.32 49.89989494291959
3568.48 49.52686473666597
3620.39 49.17898011222573
3673.05 48.88009415614316
3726.47 48.4195972968177
3780.67 47.661959473367645
3835.67 46.67869383553135
3891.46 46.14520276410562
3948.06 46.715772136236936
4005.49 48.05424856952091
4063.75 49.63778734986286
4122.86 51.29558594033648
4182.82 52.61793828187922
4243.66 53.03503702705336
4305.39 52.249304642444244
4368.01 50.76584721007703
4431.55 50.52558253280978
4496.01 51.747622265514224
4561.4 52.51521955480629
4627.75 52.37105382897421
4695.06 51.837762948418856
4763.35 51.4341068271836
4832.64 51.067768847599254
4902.93 50.543195277899244
4974.24 50.02852752945189
5046.6 49.98897032048848
5120.0 50.45859970010466
5194.47 50.84840711119374
5270.03 50.55914983659933
5346.68 49.771365875124616
5424.45 49.63457400558141
5503.35 49.96499980503344
5583.4 49.814048424424044
5664.61 50.18940152181085
5747.01 50.938436681907675
5830.6 51.33810207644525
5915.41 51.92424969017486
6001.45 52.28672366940279
6088.74 52.25043082009114
6177.3 51.94863582302369
6267.15 51.414511982706344
6358.31 50.927143999434904
6450.8 50.322871754118694
6544.62 50.05617476562979
6639.82 49.72690177864446
6736.4 49.516042437007386
6834.38 49.25810068745986
6933.79 49.82462466686968
7034.64 50.6326565698882
7136.96 50.67971779687939
7240.77 51.13425708047322
7346.09 51.0213037289862
7452.94 50.794869938889065
7561.35 50.673099065107195
7671.33 50.310598045285616
7782.91 50.17411316479317
7896.12 49.656732514078755
8010.97 48.69225970908846
8127.49 47.50289957215807
8245.71 46.02228274992805
8365.65 45.0568053367912
8487.33 43.798372107662075
8610.78 43.79370635801817
8736.03 44.56413795669076
8863.09 45.40396001874868
8992.01 45.86680279429929
9122.8 46.00667844522107
9255.5 45.9719395044974
9390.12 46.14078299290445
9526.7 45.870357160992455
9665.27 45.49434090897785
9805.86 44.816782052956995
9948.49 44.24541952987764
10093.2 44.46435099733239
10240.0 45.44723192960038
10388.9 46.64178371594802
10540.1 47.11803886086744
10693.4 47.090770785887656
10848.9 46.72758205258623
11006.7 45.95427562305409
11166.8 45.371051646424945
11329.2 45.42082332803011
11494.0 46.0658966370744
11661.2 46.577644129430624
11830.8 46.59517619952355
12002.9 46.17825099568394
12177.5 45.707251253443445
12354.6 45.15216887909628
12534.3 44.50423409368416
12716.6 44.10017352646045
12901.6 43.575226279641115
13089.2 42.375014470847645
13279.6 41.121940078801714
13472.8 39.915806618365195
13668.8 39.30411692993246
13867.6 38.23430749671678
14069.3 37.370265342310944
14273.9 36.79020088122482
14481.5 36.2509680029832
14692.2 34.747235838843494
14905.9 29.79438149034965
15122.7 29.010927410553137
15342.7 34.85810122722353
15565.8 38.71255597311679
15792.2 41.137844528521185
16021.9 41.47318877970852
16255.0 40.42473494621066
16491.4 38.10596299056152
16731.3 37.51575745830897
16974.7 35.46734794944712
17221.6 33.599985753531485
17472.1 32.57930189729649
17726.2 32.910192539482836
17984.0 34.93576495566842
18245.6 36.41292971844001
18511.0 36.77782665849625
18780.2 36.4097807584061
19053.4 35.82433283320253
19330.5 35.16642569950065
19611.7 33.560364670948445
19897.0 30.662296779905404
