Freq "Rear Wall Bounce"
20.5078 63.19314453420503
21.9727 67.03720316384843
23.4375 69.51061766722232
24.9023 71.76258038980916
26.3672 73.58875600332473
27.832 75.32665265183624
29.2969 76.67034237676742
30.7617 77.87029970539629
32.2266 78.82474990627094
33.6914 79.65576736067788
35.1562 80.3585882639461
36.6211 81.70723890432754
38.0859 82.1503149386211
39.5508 82.50425234284788
41.0156 82.77903796621356
42.4805 83.18711198932866
43.9453 83.49415601816119
45.4102 83.79442763918566
46.875 84.06907506637152
48.3398 84.3072286438298
51.2695 84.80565184326393
52.7344 85.03399960755742
54.1992 85.27324024073205
55.6641 85.51091713139796
58.5938 86.01369897805269
60.0586 86.20000963596135
62.9883 86.66450200269344
64.4531 86.84056553974565
67.3828 87.21293818230089
68.8477 87.38594393166056
71.7773 87.71938304915334
74.707 88.09154368713435
77.6367 88.39046896089262
79.1016 88.51602254392215
82.0312 88.76865513805895
84.9609 89.02860238775628
87.8906 89.35026331431699
90.8203 89.4984891384206
95.2148 89.77559051393985
98.1445 89.94215205858927
101.074 90.00888955004693
105.469 90.13316790228653
108.398 90.2857851688071
112.793 90.4445321017288
117.188 90.51441507744808
120.117 90.5808405707847
124.512 90.6828364565797
128.906 90.66894362872358
133.301 90.55239536438205
139.16 90.41493707555145
143.555 90.28105253757158
147.949 90.0798223764794
153.809 89.8470236097503
159.668 89.90931460252558
165.527 89.76594944271416
171.387 89.42139655541587
177.246 89.12191875292407
183.105 88.9311771421875
188.965 88.59249485891387
196.289 88.35187196472657
203.613 87.89002538973898
210.938 87.64978633733753
218.262 87.6781475310606
225.586 87.07468529156874
232.91 86.38716664792292
241.699 86.13200535195308
250.488 85.84313812695146
259.277 85.68405558495598
268.066 85.22676089997196
276.855 85.36551181716763
287.109 85.42705068595676
297.363 84.75866827074141
307.617 84.20238332638661
319.336 83.81430027666151
329.59 83.1569093786302
341.309 82.69275039234198
353.027 82.05254834799926
366.211 81.50036364174323
379.395 82.52226982135252
392.578 81.60295317364368
405.762 81.1940744471144
420.41 79.99383459270135
435.059 79.41273439013347
451.172 79.66748869958
465.82 78.81076962483681
483.398 79.51370158427143
499.512 79.44524676943955
517.09 81.25021947399514
536.133 79.71752335082276
555.176 78.55193922489491
574.219 78.14202587698747
594.727 78.49484024877836
615.234 76.75626117666778
637.207 77.36962532580861
659.18 77.43451904155937
682.617 78.06106282067735
707.52 78.88125681981634
732.422 77.89439489422384
757.324 77.93890152381847
785.156 77.55146995486177
811.523 77.78076275965319
840.82 76.83485934142132
870.117 77.151836079531
900.879 77.00633967828676
933.105 75.81158592084846
965.332 75.48101542648809
1000.49 73.74902938849826
1035.64 72.45951683238663
1072.27 69.98311771340494
1108.89 67.97445730380414
1148.44 66.11274410612153
1189.45 66.17164763347355
1230.47 68.77305202202388
1274.41 69.89580905973008
1319.82 70.73464162071913
1366.7 73.4620253263454
1413.57 75.3715101101154
1463.38 76.61903946415669
1516.11 77.54014910175462
1568.85 77.26788276543384
1624.51 77.61878235885929
1681.64 78.81702569761534
1741.7 78.92604728128815
1803.22 78.88805488191242
1866.21 78.76666168059306
1932.13 78.15694238039568
1999.51 78.71039145077745
2069.82 78.83251780780658
2143.07 77.94784380042
2219.24 77.88299130352183
2296.88 78.47895699558785
2378.91 77.88160245396166
2462.4 76.91047566661476
2548.83 77.26994925748212
2639.65 77.13100017117966
2731.93 76.11687806761631
2828.61 75.57842698935471
2928.22 75.36730768598025
3030.76 74.89721503321681
3137.7 74.60241331471649
3249.02 74.33641851319521
3363.28 73.91952141497829
3481.93 74.22751986888669
3604.98 73.81781210133903
3732.42 74.43503437895855
3864.26 73.49731133880843
4000.49 74.03575135847218
4141.11 72.53234449746722
4287.6 73.6350080631515
4438.48 73.94151414026592
4595.21 73.17265970640771
4756.35 71.37564794847535
4924.8 71.28329490128402
5097.66 70.6913942149557
5277.83 68.9738642315088
5463.87 68.71082827773583
5657.23 68.10468516597756
5856.45 67.08587906800058
6062.99 65.69126862346704
6276.86 65.43854816891727
6498.05 64.94340216795757
6726.56 64.92933203468604
6963.87 65.06200176724286
7209.96 64.01337931611735
7464.84 64.98830946126105
7727.05 65.45452945697127
7999.51 66.8167362070165
8282.23 67.0568013499185
8573.73 68.51202489838782
8876.95 69.63725106813698
9188.96 69.3913676778753
9514.16 69.50190939561887
9849.61 68.02583957618586
10196.8 64.56027891720106
10555.7 61.307259901562645
10927.7 59.270958925446536
11313.0 59.088123510322674
11712.9 57.076951802387924
12126.0 56.6393058070982
12553.7 55.45464321400229
12996.1 52.55610726389992
13454.6 47.12471343865823
13929.2 46.470826899086774
14419.9 47.22751883154183
14928.2 47.79089735671931
15455.6 48.1968136912177
16000.5 45.690560267839174
16564.5 44.46062175045563
17148.9 48.33116733086209
17752.4 50.53643562162773
18379.4 50.20725155051349
19026.9 50.537175135138824
19697.8 49.97184014758125
19999.5 49.26293687980754
