Freq "Side Wall Bounce"
20.5078 60.39503380688234
21.9727 62.26976705302533
23.4375 65.21899557906613
24.9023 67.83064636482995
26.3672 70.24452958957643
27.832 72.4810089583924
29.2969 74.22547053774275
30.7617 75.7896188660603
32.2266 77.04060063456863
33.6914 78.11352341987414
35.1562 79.01818161287522
36.6211 80.48085912070964
38.0859 81.10049561847978
39.5508 81.56439247592023
41.0156 81.982806072791
42.4805 82.4746130911133
43.9453 82.87113864048072
45.4102 83.24110725351088
46.875 83.5815809322804
48.3398 83.88452055898374
51.2695 84.49162327172337
52.7344 84.74966337286276
54.1992 85.04574981413896
55.6641 85.32506578217888
58.5938 85.89592246367195
60.0586 86.09113103486118
62.9883 86.53654971273296
64.4531 86.74493529895952
67.3828 87.19705204039029
68.8477 87.39808265337712
71.7773 87.76438521059606
74.707 88.16332499625315
77.6367 88.49825443944877
79.1016 88.63642942741438
82.0312 88.92240799793706
84.9609 89.19299782891028
87.8906 89.49402361236906
90.8203 89.77025908263994
95.2148 90.01023537193495
98.1445 90.16652930853454
101.074 90.25271562664753
105.469 90.48877666772327
108.398 90.70478104040583
112.793 90.92041746373948
117.188 90.98379835308681
120.117 91.06241605891248
124.512 91.12515284669986
128.906 91.10201869473389
133.301 91.04065987459951
139.16 90.89735940738306
143.555 90.75058505733934
147.949 90.59124641719049
153.809 90.51490578965513
159.668 90.59785106155297
165.527 90.36903071760025
171.387 90.08906949985997
177.246 89.79900813964815
183.105 89.49863505867006
188.965 89.42203165367208
196.289 89.2620036903871
203.613 88.97910564941463
210.938 88.76886879226115
218.262 88.25847716163796
225.586 88.16433590269145
232.91 88.0418881533435
241.699 87.73412763981901
250.488 88.07972714870112
259.277 87.66183727051606
268.066 87.36785095995087
276.855 87.47421818641878
287.109 86.95934287577548
297.363 87.36882272115645
307.617 86.63857519610156
319.336 85.9094591309722
329.59 85.73239966579554
341.309 84.79414454271227
353.027 84.91140613731
366.211 85.35825951255575
379.395 85.1246245816287
392.578 84.17391857640371
405.762 82.80430793861483
420.41 82.66792165292286
435.059 81.62382049592244
451.172 83.33720573348725
465.82 82.32275385148455
483.398 81.56316852527351
499.512 80.09320980211055
517.09 77.66784998253452
536.133 78.50371272453368
555.176 78.27208666825831
574.219 77.29071056026066
594.727 77.45863389110151
615.234 76.66743178282142
637.207 76.52069495846749
659.18 76.51839052647394
682.617 77.15529168220127
707.52 78.4381958398609
732.422 78.32268876903186
757.324 78.47556594881289
785.156 79.22148518349825
811.523 79.53598318969611
840.82 79.7843228191185
870.117 80.70183645325297
900.879 80.00586296084715
933.105 80.38172372763674
965.332 80.21249253067762
1000.49 79.59408535384297
1035.64 78.86406718472648
1072.27 77.41481146995389
1108.89 76.10298918247881
1148.44 74.25543064538911
1189.45 73.05266602752961
1230.47 74.42964462923837
1274.41 75.36033640770096
1319.82 78.19220061885119
1366.7 80.348108477343
1413.57 81.66910056386062
1463.38 83.47723247275712
1516.11 85.35292767110936
1568.85 85.71562711799909
1624.51 86.50335581188556
1681.64 86.67943956306328
1741.7 86.52076934564515
1803.22 87.33865644064551
1866.21 87.68063930777322
1932.13 87.38870103884337
1999.51 87.36927456079366
2069.82 87.60950342542742
2143.07 87.1797041326342
2219.24 86.82397215423558
2296.88 86.92301471299683
2378.91 86.72059845220572
2462.4 85.63810288958462
2548.83 85.59239625203278
2639.65 85.59783334770177
2731.93 84.75107467778275
2828.61 84.23159105804393
2928.22 84.35427083334778
3030.76 84.02794418558435
3137.7 83.58228306502194
3249.02 83.6780015359292
3363.28 83.86898561629889
3481.93 84.07055826216141
3604.98 83.94198473537143
3732.42 84.80542452592884
3864.26 84.50392406762285
4000.49 84.92773607688451
4141.11 84.9657398161329
4287.6 85.00718063770984
4438.48 85.22393163665964
4595.21 84.98499112736808
4756.35 85.01148552043996
4924.8 84.78605111996809
5097.66 84.64302413670728
5277.83 84.19055157051037
5463.87 84.08445444951757
5657.23 83.58418378285933
5856.45 83.19565046767758
6062.99 82.58884996542174
6276.86 82.59272387578177
6498.05 81.86175434105232
6726.56 81.7281573314339
6963.87 81.5952265611499
7209.96 81.2715289859597
7464.84 81.38746065379861
7727.05 81.70555699508265
7999.51 81.92796524229692
8282.23 82.63676584579252
8573.73 83.3624379225833
8876.95 84.4094080055447
9188.96 85.57978336311653
9514.16 86.11890790298628
9849.61 85.99602905785356
10196.8 84.98045742133775
10555.7 83.87344975036655
10927.7 83.66985450256774
11313.0 84.01927111044404
11712.9 84.26430784335479
12126.0 84.4569298175362
12553.7 83.70816393227243
12996.1 81.23020908196783
13454.6 78.40754442256164
13929.2 78.04912339846479
14419.9 77.75926991150172
14928.2 76.16196156280046
15455.6 74.13041463395109
16000.5 71.73328753567122
16564.5 71.41689933790455
17148.9 72.18706433882551
17752.4 71.7850929412239
18379.4 69.57880790616977
19026.9 67.6835530727752
19697.8 66.39531896183098
19999.5 66.48762263955139
