Freq "On Axis"
20.5078 34.4751
21.9727 46.76820000000001
23.4375 48.39490000000001
24.9023 50.923
26.3672 52.6969
27.832 54.86279999999999
29.2969 57.246399999999994
30.7617 59.19210000000001
32.2266 60.7715
33.6914 62.488200000000006
35.1562 63.94540000000001
36.6211 65.6622
38.0859 67.0207
39.5508 68.3578
41.0156 69.37870000000001
42.4805 70.6165
43.9453 71.80859999999998
45.4102 72.8973
46.875 73.97980000000001
48.3398 74.98329999999999
51.2695 76.6284
52.7344 77.3889
54.1992 78.0585
55.6641 78.6772
58.5938 79.7021
60.0586 80.1045
62.9883 80.8407
64.4531 81.08599999999998
67.3828 81.4957
68.8477 81.63979999999998
71.7773 82.0838
74.707 82.45850000000002
77.6367 82.6878
79.1016 82.87
82.0312 83.1164
84.9609 82.9614
87.8906 83.1822
90.8203 83.8321
95.2148 84.0666
98.1445 84.2699
101.074 84.4049
105.469 84.5702
108.398 84.70259999999999
112.793 85.2165
117.188 85.3472
120.117 85.7546
124.512 85.9771
128.906 86.0906
133.301 86.21179999999998
139.16 86.3624
143.555 86.5104
147.949 86.6396
153.809 86.8231
159.668 87.0536
165.527 87.2894
171.387 87.2827
177.246 87.3498
183.105 87.2697
188.965 87.4171
196.289 87.6668
203.613 87.6731
210.938 87.6449
218.262 87.4948
225.586 87.5099
232.91 87.5072
241.699 87.4023
250.488 87.02600000000001
259.277 87.44119999999998
268.066 86.8228
276.855 86.7491
287.109 87.6305
297.363 87.4098
307.617 87.6268
319.336 87.52030000000002
329.59 87.7512
341.309 87.4396
353.027 87.6711
366.211 87.6336
379.395 87.9197
392.578 87.483
405.762 87.1926
420.41 87.911
435.059 87.45400000000001
451.172 87.6384
465.82 87.66329999999999
483.398 87.5743
499.512 87.3921
517.09 87.60329999999999
536.133 86.468
555.176 87.2672
574.219 87.416
594.727 86.83350000000002
615.234 87.1906
637.207 87.0881
659.18 87.0139
682.617 87.2479
707.52 87.247
732.422 87.3683
757.324 87.7586
785.156 87.8528
811.523 87.5881
840.82 88.09200000000001
870.117 87.6327
900.879 87.67579999999998
933.105 86.9433
965.332 85.887
1000.49 87.0071
1035.64 88.9185
1072.27 88.3683
1108.89 88.808
1148.44 89.4422
1189.45 88.84460000000001
1230.47 88.4446
1274.41 87.419
1319.82 86.6395
1366.7 85.9908
1413.57 84.89869999999999
1463.38 84.8886
1516.11 87.23929999999999
1568.85 87.1593
1624.51 85.7195
1681.64 83.9666
1741.7 84.21009999999998
1803.22 80.1041
1866.21 83.99699999999999
1932.13 84.7661
1999.51 83.5577
2069.82 83.63330000000002
2143.07 84.0221
2219.24 85.1594
2296.88 83.6734
2378.91 82.3317
2462.4 82.59
2548.83 81.9381
2639.65 79.9741
2731.93 78.0493
2828.61 77.3552
2928.22 78.4867
3030.76 80.42320000000001
3137.7 81.5887
3249.02 82.64070000000001
3363.28 83.0594
3481.93 83.2551
3604.98 84.9158
3732.42 84.3779
3864.26 82.3543
4000.49 83.3343
4141.11 82.64089999999999
4287.6 83.48659999999998
4438.48 83.721
4595.21 85.2514
4756.35 85.2021
4924.8 85.5872
5097.66 85.8561
5277.83 85.0598
5463.87 83.7608
5657.23 84.00999999999999
5856.45 84.5555
6062.99 85.19549999999998
6276.86 85.3501
6498.05 84.9414
6726.56 85.066
6963.87 84.57930000000002
7209.96 85.2198
7464.84 84.9467
7727.05 84.8856
7999.51 84.36409999999998
8282.23 84.0457
8573.73 84.8012
8876.95 86.9262
9188.96 88.2475
9514.16 88.208
9849.61 88.2943
10196.8 88.0866
10555.7 87.8023
10927.7 87.6697
11313.0 87.4753
11712.9 87.1152
12126.0 86.8255
12553.7 87.5439
12996.1 88.2697
13454.6 88.1218
13929.2 87.8472
14419.9 87.489
14928.2 87.3952
15455.6 88.107
16000.5 88.28649999999999
16564.5 87.6395
17148.9 86.62130000000002
17752.4 84.8608
18379.4 83.377
19026.9 83.4437
19697.8 82.8786
19999.5 82.3748
