Freq "Listening Window"
20.5078 89.03320210351542
21.9727 90.13003797751581
23.4375 90.94960776604269
24.9023 91.65572167468652
26.3672 92.29665538532844
27.832 92.91635825335881
29.2969 93.45360796905474
30.7617 93.98396994852092
32.2266 94.39668587437826
33.6914 94.77313802450291
35.1562 95.07534348599401
36.6211 95.33668995613694
38.0859 95.59603708796651
39.5508 95.79570068676703
41.0156 95.96255746423064
42.4805 96.10040722834114
43.9453 96.2432032012773
45.4102 96.36595909773195
46.875 96.46672690454139
48.3398 96.54729734204982
51.2695 96.67724156230001
52.7344 96.69537078804811
54.1992 96.71674364527941
55.6641 96.75134826014552
58.5938 96.8062715355727
60.0586 96.81146763527296
62.9883 96.8570374490182
64.4531 96.88114811748551
67.3828 96.90954032994037
68.8477 96.92511745612033
71.7773 96.95617258015483
74.707 96.99353431463327
77.6367 96.98068697932968
79.1016 96.98335892384856
82.0312 97.00277959605566
84.9609 97.07208303086274
87.8906 97.0272287458157
90.8203 97.10850918343282
95.2148 97.25259482020044
98.1445 97.23825853794992
101.074 97.19140054111078
105.469 97.38283901755692
108.398 97.45539951490942
112.793 97.47982212410317
117.188 97.58165581545086
120.117 97.72269483774163
124.512 97.68604292492955
128.906 97.63192308079455
133.301 97.61205001439295
139.16 97.53358230980412
143.555 97.45133236435336
147.949 97.32507569082097
153.809 97.32043276261287
159.668 97.30773778959204
165.527 97.41266675850605
171.387 97.4064437546095
177.246 97.22978424428318
183.105 96.96747010060487
188.965 97.11752478089156
196.289 97.2289172054734
203.613 97.32010839964389
210.938 97.38519921879534
218.262 97.05913929255368
225.586 97.2858209034247
232.91 97.27228209494997
241.699 97.41486095975165
250.488 97.53426620249806
259.277 97.41434367592007
268.066 96.88408558266185
276.855 96.59210451256119
287.109 96.64696385824728
297.363 96.66458306783115
307.617 97.13810873593559
319.336 97.43861832343099
329.59 97.69437811052643
341.309 97.39553635669502
353.027 97.06762238296268
366.211 96.9131460665022
379.395 96.85483623044193
392.578 97.00266973863621
405.762 97.09408243194568
420.41 97.19029233904759
435.059 97.0828625427092
451.172 97.71449248291599
465.82 97.86067923144375
483.398 97.48866078671682
499.512 97.19759535066675
517.09 97.5014994176972
536.133 97.51899834027085
555.176 97.34687516437135
574.219 97.26737553611281
594.727 96.79421500261363
615.234 97.10941193490606
637.207 97.41805797004925
659.18 97.15105531956728
682.617 97.5433802377637
707.52 97.54958192103753
732.422 96.93808177145893
757.324 96.72475809300025
785.156 96.88115401084131
811.523 97.36771064171698
840.82 97.4494411445275
870.117 97.28380958539178
900.879 97.34581742407416
933.105 97.46610401973258
965.332 97.20205309284668
1000.49 97.1870453235246
1035.64 97.08913361256758
1072.27 96.37325387943079
1108.89 96.40387857754341
1148.44 96.97052820895455
1189.45 97.52547179795599
1230.47 97.73202795570818
1274.41 97.3039567174148
1319.82 96.886716140339
1366.7 96.56749408562881
1413.57 96.77200885815306
1463.38 97.45951546127482
1516.11 97.79080788708387
1568.85 97.65168322627925
1624.51 96.81611271380791
1681.64 96.2873424771045
1741.7 96.61910234960817
1803.22 97.0075108833312
1866.21 96.71747224723063
1932.13 96.21299930487334
1999.51 96.76886825605395
2069.82 97.23135834290075
2143.07 96.85460874506491
2219.24 96.42513155308762
2296.88 97.14170675000337
2378.91 97.06891934115583
2462.4 95.97344208587603
2548.83 96.50491690297352
2639.65 97.19284207975578
2731.93 96.61912811506288
2828.61 96.57166630645699
2928.22 97.13893403959288
3030.76 97.11720953598315
3137.7 96.6948620765631
3249.02 97.04602635729438
3363.28 97.18090126708906
3481.93 97.12803500376809
3604.98 97.0574049329709
3732.42 97.79602612156377
3864.26 97.37969753069159
4000.49 97.76123863435124
4141.11 97.41573030206192
4287.6 97.45632111853315
4438.48 97.30955819747855
4595.21 97.67731356112792
4756.35 97.86495273381874
4924.8 97.64935183742304
5097.66 97.77292681364573
5277.83 97.49872526399466
5463.87 97.66142526352287
5657.23 96.98830110397711
5856.45 96.85533630791284
6062.99 96.80996455568338
6276.86 96.83259470464994
6498.05 96.48011799792053
6726.56 96.45272305084909
6963.87 96.45404597049561
7209.96 96.44887821965337
7464.84 96.56696678376689
7727.05 96.72624121306329
7999.51 96.63641615243715
8282.23 96.41861142690874
8573.73 96.57859043550671
8876.95 96.84606883185045
9188.96 96.8212302741511
9514.16 96.64261826415003
9849.61 96.42196760982081
10196.8 96.22495964051575
10555.7 95.95727855551858
10927.7 95.80622657135478
11313.0 95.81356298558646
11712.9 96.03713077287195
12126.0 96.16304585127277
12553.7 96.17261625340939
12996.1 96.16576154053139
13454.6 96.17421692017264
13929.2 96.01998717035922
14419.9 95.87407291904934
14928.2 95.92105832382276
15455.6 95.95877901706035
16000.5 96.04160903774763
16564.5 95.86746238327011
17148.9 95.54219568239047
17752.4 94.87996370380797
18379.4 94.13955756251661
19026.9 93.23407338640915
19697.8 92.18776012290421
19999.5 91.89659138102287
