Freq "On Axis"
20.5078 88.97896363636367
21.9727 90.07676363636367
23.4375 90.89766363636366
24.9023 91.60506363636367
26.3672 92.24716363636367
27.832 92.86816363636366
29.2969 93.40606363636367
30.7617 93.93716363636366
32.2266 94.35016363636365
33.6914 94.72756363636367
35.1562 95.03076363636367
36.6211 95.29336363636367
38.0859 95.55406363636365
39.5508 95.75506363636367
41.0156 95.92306363636366
42.4805 96.06206363636366
43.9453 96.20626363636367
45.4102 96.33056363636366
46.875 96.43296363636367
48.3398 96.51546363636366
51.2695 96.64876363636367
52.7344 96.66836363636367
54.1992 96.69126363636366
55.6641 96.72766363636367
58.5938 96.78676363636367
60.0586 96.79416363636366
62.9883 96.84386363636366
64.4531 96.87036363636366
67.3828 96.90446363636367
68.8477 96.92356363636367
71.7773 96.96176363636367
74.707 97.00556363636366
77.6367 97.00026363636367
79.1016 97.00706363636367
82.0312 97.03536363636368
84.9609 97.11486363636367
87.8906 97.07916363636366
90.8203 97.17046363636366
95.2148 97.32946363636367
98.1445 97.32576363636366
101.074 97.29166363636367
105.469 97.49416363636367
108.398 97.57566363636367
112.793 97.61516363636366
117.188 97.72986363636366
120.117 97.87636363636366
124.512 97.85126363636365
128.906 97.81036363636366
133.301 97.80246363636365
139.16 97.73816363636367
143.555 97.66566363636366
147.949 97.55096363636366
153.809 97.55966363636367
159.668 97.55356363636366
165.527 97.66346363636367
171.387 97.66416363636367
177.246 97.49576363636365
183.105 97.24766363636367
188.965 97.40716363636366
196.289 97.52016363636366
203.613 97.61866363636366
210.938 97.68196363636366
218.262 97.36676363636367
225.586 97.60316363636366
232.91 97.59046363636367
241.699 97.72826363636366
250.488 97.85666363636366
259.277 97.72786363636367
268.066 97.21786363636366
276.855 96.92826363636367
287.109 97.00746363636367
297.363 97.05856363636367
307.617 97.52216363636367
319.336 97.85706363636365
329.59 98.08586363636365
341.309 97.77346363636367
353.027 97.42196363636367
366.211 97.30456363636367
379.395 97.25126363636366
392.578 97.41726363636369
405.762 97.52516363636369
420.41 97.59336363636365
435.059 97.56176363636366
451.172 98.20136363636365
465.82 98.32716363636365
483.398 97.93766363636365
499.512 97.63356363636366
517.09 97.95676363636366
536.133 97.99216363636367
555.176 97.81346363636368
574.219 97.70086363636366
594.727 97.22746363636367
615.234 97.54366363636365
637.207 97.87356363636367
659.18 97.68866363636367
682.617 98.05546363636367
707.52 98.05736363636366
732.422 97.50246363636367
757.324 97.24146363636365
785.156 97.36246363636367
811.523 97.86176363636366
840.82 97.95886363636367
870.117 97.74206363636367
900.879 97.96026363636366
933.105 98.10216363636367
965.332 97.76596363636367
1000.49 97.78786363636367
1035.64 97.75926363636367
1072.27 96.96956363636369
1108.89 97.12856363636367
1148.44 97.70066363636369
1189.45 98.24156363636367
1230.47 98.50166363636367
1274.41 98.05206363636367
1319.82 97.70936363636366
1366.7 97.41226363636366
1413.57 97.59916363636367
1463.38 98.41436363636366
1516.11 98.73616363636367
1568.85 98.44646363636366
1624.51 97.54846363636366
1681.64 97.37366363636367
1741.7 97.54426363636367
1803.22 97.96726363636367
1866.21 97.44506363636367
1932.13 96.86806363636367
1999.51 97.47346363636366
2069.82 97.84966363636367
2143.07 97.29406363636366
2219.24 96.76996363636367
2296.88 97.39966363636367
2378.91 97.06026363636367
2462.4 96.15506363636366
2548.83 97.01536363636367
2639.65 97.86586363636368
2731.93 97.35646363636367
2828.61 97.19796363636367
2928.22 97.86136363636368
3030.76 97.85276363636366
3137.7 97.33836363636367
3249.02 97.85936363636367
3363.28 97.95476363636367
3481.93 97.93626363636366
3604.98 97.78966363636367
3732.42 98.92776363636366
3864.26 98.45296363636365
4000.49 99.21416363636366
4141.11 98.78086363636366
4287.6 98.83436363636366
4438.48 98.58026363636367
4595.21 98.67886363636367
4756.35 99.52936363636367
4924.8 99.03296363636366
5097.66 99.57616363636366
5277.83 99.17076363636367
5463.87 99.36296363636367
5657.23 98.45376363636366
5856.45 98.08896363636367
6062.99 97.81586363636367
6276.86 97.89766363636366
6498.05 97.15986363636367
6726.56 97.02696363636366
6963.87 96.54806363636366
7209.96 96.57836363636366
7464.84 96.43896363636367
7727.05 96.39386363636366
7999.51 96.25676363636367
8282.23 96.12456363636366
8573.73 96.28536363636367
8876.95 96.75036363636366
9188.96 97.08976363636367
9514.16 96.80606363636366
9849.61 96.49246363636365
10196.8 96.46986363636367
10555.7 96.46506363636367
10927.7 96.26876363636367
11313.0 96.07726363636368
11712.9 96.82496363636366
12126.0 97.03746363636367
12553.7 96.96166363636365
12996.1 96.91676363636367
13454.6 96.82876363636366
13929.2 96.34096363636368
14419.9 95.54656363636367
14928.2 95.58026363636367
15455.6 95.60756363636366
16000.5 95.68686363636368
16564.5 95.79496363636366
17148.9 95.49576363636366
17752.4 94.57836363636366
18379.4 93.64746363636367
19026.9 92.28146363636367
19697.8 89.94626363636367
19999.5 89.32016363636367
