Freq "Floor Bounce"
22.4 15.592193363619273
23.0 14.892193363619285
23.6 14.692193363619296
24.0 15.125004009501353
25.0 15.957568630774446
25.8 17.05756863077444
26.5 18.457568630774446
27.2 19.957568630774475
28.0 21.757568630774458
29.0 24.02346324460153
30.0 26.990640912177142
30.7 30.89064091217712
31.5 34.92346324460151
32.5 38.123463244601496
33.5 40.323463244601484
34.5 42.05679526888203
35.5 43.68987341772153
36.5 45.256795268882016
37.5 46.756795268882016
38.7 47.85679526888201
40.0 48.45679526888203
41.2 49.123463244601524
42.5 51.38987341772152
43.7 54.5234632446015
45.0 56.823463244601484
46.2 58.19064091217713
47.5 59.42346324460148
48.7 61.090640912177136
50.0 62.92346324460148
51.5 64.79064091217714
53.0 66.79064091217714
54.5 68.85832425577586
56.0 70.72500400950136
58.0 72.19064091217714
60.0 73.79064091217715
61.5 75.79294298876404
63.0 77.75832425577583
65.0 79.72500400950135
67.0 81.65832425577584
69.0 83.29294298876404
71.0 84.29294298876404
73.0 84.59294298876404
75.0 84.39294298876403
77.5 83.99294298876404
80.0 83.69294298876403
82.5 83.09294298876402
85.0 82.6613814255909
87.5 82.7613814255909
90.0 82.96138142559091
92.5 83.3613814255909
95.0 83.96138142559091
97.5 84.4613814255909
100.0 84.76138142559091
103.0 85.03031509717643
106.0 85.23031509717643
109.0 85.5613814255909
112.0 85.83031509717644
115.0 85.69677842807612
118.0 85.23031509717643
122.0 85.26596517221374
125.0 86.3967784280761
128.0 87.03031509717643
132.0 86.56596517221375
136.0 86.36596517221373
140.0 86.49677842807611
145.0 86.26596517221374
150.0 86.36596517221373
155.0 86.5356406121062
160.0 86.36596517221373
165.0 85.96596517221374
170.0 85.90214520087771
175.0 86.33564061210622
180.0 86.5356406121062
185.0 86.30214520087772
190.0 86.73564061210622
195.0 87.17207309104457
200.0 86.77207309104458
206.0 86.47207309104456
212.0 86.27207309104456
218.0 85.94248294974369
224.0 85.80904047274906
230.0 85.60904047274906
236.0 85.24248294974369
240.0 85.1424829497437
250.0 85.21337026838131
258.0 85.01337026838132
265.0 85.21337026838131
272.0 85.45083856009335
280.0 85.45083856009335
290.0 85.62244559818711
300.0 85.7607031205645
307.0 85.7607031205645
315.0 85.69950598453774
325.0 85.5720715456221
335.0 85.17207154562207
345.0 84.4450931108053
355.0 83.48493799807981
365.0 82.85865375768942
375.0 82.69929590198171
387.0 82.77369675939748
400.0 83.21513795701001
412.0 83.56571949299298
425.0 83.58436210704443
437.0 83.40445237525462
450.0 83.24853065790022
462.0 83.20382993860426
475.0 83.34893605429662
487.0 83.62740535349057
500.0 83.92740535349056
515.0 84.07330802801705
530.0 84.17330802801705
545.0 84.17330802801705
560.0 84.17330802801705
580.0 84.32740535349058
600.0 84.47330802801704
615.0 84.54893605429662
630.0 84.54893605429662
650.0 84.44893605429661
670.0 84.39317725601082
690.0 84.3816715744956
710.0 84.42764076057692
730.0 84.58436210704441
750.0 84.84164779306893
775.0 85.08436210704443
800.0 85.38436210704442
825.0 85.6609408604607
850.0 85.83793006527767
875.0 85.83793006527767
900.0 85.73793006527768
925.0 85.53793006527766
950.0 85.19475433693519
975.0 84.81009298176475
1000.0 84.47639405938946
1030.0 84.28737292738329
1060.0 84.26370451984076
1090.0 84.45407142068117
1120.0 84.71748697515709
1150.0 85.01748697515707
1180.0 85.26203006665835
1220.0 85.38396305562718
1250.0 85.3518207095624
1280.0 85.10643341089758
1320.0 84.70582542104486
1360.0 84.20445237525462
1400.0 83.78711024212076
1450.0 83.46596517221374
1500.0 83.18900878723588
1550.0 82.89177577272002
1600.0 82.64943525220802
1650.0 82.59786606987741
1700.0 82.74225142510235
1750.0 83.0598883002963
1800.0 83.3613814255909
1850.0 83.17902971901793
1900.0 82.53731240858886
1950.0 81.53115069072543
2000.0 80.6008918398975
2060.0 80.1760174489556
2120.0 79.97923410876044
2180.0 79.85098916816078
2240.0 80.04232785556502
2300.0 80.60326526849258
2360.0 81.01787884888815
2400.0 80.8313681514464
2500.0 80.25442753234049
2580.0 79.57753175139389
2650.0 78.9199980363913
2720.0 78.55452021584688
2800.0 78.92154765707139
2900.0 79.51353157777213
3000.0 79.80386849888278
3070.0 79.79690033631094
3150.0 79.69551934378136
3250.0 79.7204362971691
3350.0 79.84331868361453
3450.0 79.87766456935785
3550.0 79.98520598787135
3650.0 80.53469523306089
3750.0 80.99021913783842
3870.0 81.36847593103303
4000.0 81.56052486096117
4120.0 81.8116928980037
4250.0 81.7641072527126
4370.0 80.97284871363121
4500.0 80.09049692921585
4620.0 79.8307694079477
4750.0 80.02109577233965
4870.0 80.3794234415061
5000.0 80.77582123894436
5150.0 81.18726901283169
5300.0 81.29983947660205
5450.0 80.78943040290976
5600.0 80.26063177633576
5800.0 80.10386849888276
6000.0 80.00140931696299
6150.0 79.69895043040306
6300.0 79.29492219356233
6500.0 78.91138417085854
6700.0 78.52154553902525
6900.0 78.51117172215756
7100.0 78.85675149440739
7300.0 79.50165086721907
7500.0 80.0223594359861
7750.0 80.28087272655559
8000.0 80.22275434428674
8250.0 80.34193342257757
8500.0 80.601409316963
8750.0 80.62932938222751
9000.0 80.2542284532255
9250.0 80.13085732676264
9500.0 80.5097501215805
9750.0 80.9323029766488
10000.0 80.69006092357897
10300.0 80.16538455162488
10600.0 80.2347173233336
10900.0 80.55158350690294
11200.0 80.50455519191428
11500.0 80.80431823378274
11800.0 81.41759919147609
12200.0 81.86861912242473
12500.0 82.0041992170212
12800.0 80.53480662203609
13200.0 77.86457375502908
13600.0 78.16274394097302
14000.0 78.59909667339004
14500.0 76.33100693133638
15000.0 75.74362158242637
15500.0 78.17380596898848
16000.0 78.39113612225448
16500.0 77.82056319850854
17000.0 78.14688812525098
17500.0 77.37696586525257
18000.0 73.98087272655557
18500.0 71.15041394925753
19000.0 69.10458375750112
19500.0 66.95124531764374
