Freq "Front Wall Bounce"
22.4 14.900657860694267
23.0 14.258737953277333
23.6 14.086514495860953
24.0 14.500657860694261
25.0 15.372971917377058
25.8 16.50065786069426
26.5 17.886514495860965
27.2 19.400657860694267
28.0 21.20065786069425
29.0 23.50065786069426
30.0 26.500657860694233
30.7 30.40065786069424
31.5 34.50065786069426
32.5 37.62880715674528
33.5 39.90065786069424
34.5 41.62880715674531
35.5 43.300657860694244
36.5 44.90065786069424
37.5 46.40065786069424
38.7 47.50065786069426
40.0 48.100657860694255
41.2 48.8288071567453
42.5 51.07232492078934
43.7 54.20065786069425
45.0 56.5431393953378
46.2 57.90065786069427
47.5 59.172324920789364
48.7 60.843139395337815
50.0 62.672324920789336
51.5 64.60065786069426
53.0 66.57232492078934
54.5 68.67232492078934
56.0 70.57232492078934
58.0 72.04313939533782
60.0 73.64313939533783
61.5 75.67232492078934
63.0 77.67232492078934
65.0 79.61508314243883
67.0 81.51508314243883
69.0 83.17232492078934
71.0 84.21508314243884
73.0 84.51508314243884
75.0 84.28684446163057
77.5 83.94445718403786
80.0 83.64445718403788
82.5 83.01508314243883
85.0 82.61508314243885
87.5 82.68748929892043
90.0 82.91508314243883
92.5 83.3590700361194
95.0 83.95907003611941
97.5 84.43175513861907
100.0 84.75907003611941
103.0 85.03175513861908
106.0 85.23175513861906
109.0 85.53175513861906
112.0 85.83175513861906
115.0 85.73175513861908
118.0 85.23175513861906
122.0 85.26035311823196
125.0 86.4048949937362
128.0 87.03175513861906
132.0 86.56035311823194
136.0 86.43175513861907
140.0 86.53175513861906
145.0 86.30489499373621
150.0 86.4048949937362
155.0 86.57525122642457
160.0 86.41998423401444
165.0 86.01998423401444
170.0 85.97848478147017
175.0 86.41998423401444
180.0 86.61998423401444
185.0 86.37848478147016
190.0 86.81998423401444
195.0 87.31998423401443
200.0 86.91998423401445
206.0 86.59366590096782
212.0 86.45000634017072
218.0 86.09366590096782
224.0 85.99366590096783
230.0 85.82386986096213
236.0 85.46779163544481
240.0 85.43924275721993
250.0 85.52386986096212
258.0 85.33924275721992
265.0 85.59817545090702
272.0 85.8677916354448
280.0 85.93924275721992
290.0 86.11363940606881
300.0 86.3136394060688
307.0 86.41363940606881
315.0 86.3677916354448
325.0 86.29817545090704
335.0 85.9677916354448
345.0 85.29817545090704
355.0 84.41363940606881
365.0 83.91363940606881
375.0 83.8136394060688
387.0 83.98847217927515
400.0 84.48847217927515
412.0 84.98847217927516
425.0 85.06373611801398
437.0 84.93942623521458
450.0 84.82683455312959
462.0 84.80287628300401
475.0 85.01106138014497
487.0 85.27640057047573
500.0 85.55378373474547
515.0 85.68147278830732
530.0 85.69888657798577
545.0 85.67740200741133
560.0 85.62833223333885
580.0 85.67422523138382
600.0 85.77422523138384
615.0 85.84956693475489
630.0 85.7988865779858
650.0 85.73156734312867
670.0 85.73698126844558
690.0 85.78810079587952
710.0 85.89485763696348
730.0 86.02369881060604
750.0 86.15583275079275
775.0 86.34917018545893
800.0 86.49277225987623
825.0 86.53871757721681
850.0 86.50521502270679
875.0 86.39064436625222
900.0 86.07185692605988
925.0 85.5458965149887
950.0 84.90352002985206
975.0 84.11938234925044
1000.0 83.35872143037157
1030.0 82.82068527738514
1060.0 82.64206395192996
1090.0 82.93428475641865
1120.0 83.52550314698993
1150.0 84.18426663030603
1180.0 84.75121482311347
1220.0 85.21068966302632
1250.0 85.48664191481758
1280.0 85.65968554741491
1320.0 85.74878181929043
1360.0 85.72833223333886
1400.0 85.70748009891591
1450.0 85.73558535321992
1500.0 85.80057786149108
1550.0 85.89590741289696
1600.0 85.85904030371388
1650.0 85.73880784095196
1700.0 85.55734975292562
1750.0 85.2970981243438
1800.0 84.95268458216539
1850.0 84.52528439454828
1900.0 84.00669169661842
1950.0 83.56163889708328
2000.0 83.187715622779
2060.0 82.94201725612616
2120.0 82.72951507846463
2180.0 82.61656927764643
2240.0 82.80783401424048
2300.0 83.3123944023011
2360.0 83.69951780700755
2400.0 83.72394756133521
2500.0 83.68363270555228
2580.0 83.90557163197587
2650.0 84.07905669899243
2720.0 83.91081094615409
2800.0 83.77379291785572
2900.0 83.83411214266187
3000.0 83.94535232736831
3070.0 84.02221970776748
3150.0 84.30083660417043
3250.0 84.63050861850631
3350.0 84.81810840295334
3450.0 85.02981456670624
3550.0 85.51648028328616
3650.0 86.14941438146623
3750.0 86.50203768251835
3870.0 86.51164639817053
4000.0 85.93646314673127
4120.0 85.29108228702295
4250.0 84.63646314673126
4370.0 83.7216640619129
4500.0 82.96892630728131
4620.0 83.00791410608126
4750.0 83.64024719022059
4870.0 84.38086638503694
5000.0 85.07751231068053
5150.0 85.50080643058476
5300.0 85.44352658528369
5450.0 84.9479998738605
5600.0 84.29327848932718
5800.0 83.66980169322169
6000.0 83.1992778866363
6150.0 82.97618462808234
6300.0 83.0369671867475
6500.0 82.93773428370896
6700.0 82.75404286454209
6900.0 82.99286247570717
7100.0 83.59623649616573
7300.0 83.98999021181145
7500.0 83.98750110789575
7750.0 83.97860620548894
8000.0 84.08237160671095
8250.0 84.40952650898701
8500.0 84.9330971371334
8750.0 85.03017182001862
9000.0 84.71313170591257
9250.0 84.35305719519658
9500.0 84.04063142080295
9750.0 83.59954827768497
10000.0 83.60503898635908
10300.0 84.10332600283175
10600.0 84.16419110313647
10900.0 83.87120807437294
11200.0 83.60074150222557
11500.0 83.48056773333361
11800.0 83.27516041272419
12200.0 82.53763278115042
12500.0 83.15736421880966
12800.0 85.05432662534518
13200.0 85.81591463019696
13600.0 84.06274813022857
14000.0 80.98951634797898
14500.0 81.46981142693015
15000.0 82.79023147140394
15500.0 81.31238034699669
16000.0 78.38071988781329
16500.0 80.98534463808608
17000.0 84.662845642839
17500.0 84.99837053254195
18000.0 82.13285764890581
18500.0 80.07011203293307
19000.0 78.56301418965229
19500.0 74.53650677149433
