Freq "Rear Wall Bounce"
20.5078 57.42151652124822
21.9727 58.19731504642432
23.4375 58.271237587425034
24.9023 59.81521250252682
26.3672 60.90239600450009
27.832 62.51115270044603
29.2969 63.23076302802325
30.7617 64.14474327829149
32.2266 64.98282841506558
33.6914 65.61070905868242
35.1562 66.2829083455872
36.6211 67.04846384762665
38.0859 67.72080244985352
39.5508 68.39887714483423
41.0156 68.97792630671803
42.4805 69.59598399507911
43.9453 70.17956398506172
45.4102 70.78720572094107
46.875 71.41157809412688
48.3398 72.01514893627647
51.2695 73.00598871840513
52.7344 73.4859105558297
54.1992 73.98345307318264
55.6641 74.483759006455
58.5938 75.40257254970776
60.0586 75.76806718683612
62.9883 76.49885449235511
64.4531 76.88691513091348
67.3828 77.66910399861759
68.8477 77.96192899605664
71.7773 78.62878170043453
74.707 79.22382672570868
77.6367 79.74295389230726
79.1016 80.11315090037877
82.0312 80.5819084342014
84.9609 80.98295280269939
87.8906 81.34793849329363
90.8203 81.74992092166386
95.2148 82.39930721397322
98.1445 82.7308265013987
101.074 83.0053365537451
105.469 83.25705288785288
108.398 83.41019329319231
112.793 83.50126405935696
117.188 83.34196107635299
120.117 83.27769874908752
124.512 83.82243245805968
128.906 83.7869010435282
133.301 83.50044387614551
139.16 83.30841523641648
143.555 83.10155771862658
147.949 83.41665023178174
153.809 83.73868984879165
159.668 83.54457205134962
165.527 83.12203584509193
171.387 82.94461859289983
177.246 83.30571663737649
183.105 83.1166503988137
188.965 83.25112835227038
196.289 83.35213730419235
203.613 83.4353591694609
210.938 83.04544523529684
218.262 83.01575515594189
225.586 82.93392362470726
232.91 82.20801751219348
241.699 80.17982784745362
250.488 81.00533225099228
259.277 82.7609385008483
268.066 82.37948310426061
276.855 82.9728840043201
287.109 82.27704910750097
297.363 81.44917099198794
307.617 81.61370695791128
319.336 79.4299639234588
329.59 81.58930602086335
341.309 82.15835180172787
353.027 82.29544319043755
366.211 80.98417095065415
379.395 81.2070817646962
392.578 81.18155444150445
405.762 81.13292513933955
420.41 80.59274752040005
435.059 81.58141127042995
451.172 80.9235960159335
465.82 80.37316512714602
483.398 80.0314660947401
499.512 80.37997566206649
517.09 80.33062695406237
536.133 80.46376310191708
555.176 80.00634237678733
574.219 79.28692817483808
594.727 79.69730057390815
615.234 80.56360500474723
637.207 79.20759279687772
659.18 78.96985414847904
682.617 79.6823536118243
707.52 78.27971253809962
732.422 78.76792091503569
757.324 78.73187525081768
785.156 78.30956878919456
811.523 78.1460088472329
840.82 79.1388757216375
870.117 76.17200428085675
900.879 76.74633110468889
933.105 76.74181522626695
965.332 75.93827936380094
1000.49 74.49202048627293
1035.64 76.14422302511859
1072.27 74.2228682584326
1108.89 74.61058497842862
1148.44 73.90733654106081
1189.45 73.02309283187986
1230.47 73.42681323947322
1274.41 72.56529077575118
1319.82 73.93274591867419
1366.7 72.5934427914152
1413.57 73.97345080461471
1463.38 73.04051312064388
1516.11 73.24921376792
1568.85 72.10225673556414
1624.51 71.78981978804713
1681.64 72.53043887736432
1741.7 71.76670515830087
1803.22 71.46041482559424
1866.21 71.82709160212544
1932.13 71.3588155188036
1999.51 70.68937544570053
2069.82 69.71910484910273
2143.07 70.68928547661423
2219.24 70.95047647919161
2296.88 70.63153840348917
2378.91 70.53893677238527
2462.4 69.23199219747853
2548.83 69.29822546214122
2639.65 70.32543375290749
2731.93 69.04154788781373
2828.61 68.53292234861145
2928.22 67.19719433481963
3030.76 66.05131010740011
3137.7 64.9534945157752
3249.02 65.44141022585002
3363.28 64.27069661138445
3481.93 63.29481117467198
3604.98 64.07918379796577
3732.42 63.227670708656845
3864.26 63.26390484661901
4000.49 63.602308273943535
4141.11 63.49866714821013
4287.6 63.66703877382649
4438.48 62.98557376534072
4595.21 63.695456488870676
4756.35 63.202720467241235
4924.8 63.14672479716707
5097.66 62.55982271190051
5277.83 62.86648131630831
5463.87 62.46679155831596
5657.23 63.473648888052836
5856.45 63.16261446218344
6062.99 63.41522521072416
6276.86 62.984736928600654
6498.05 62.44886785747876
6726.56 62.79859776794568
6963.87 62.535478584861536
7209.96 62.77147306741337
7464.84 63.087050601148164
7727.05 63.386832372181786
7999.51 61.901376066211085
8282.23 59.80017759340116
8573.73 57.95015934153899
8876.95 58.002178446212596
9188.96 59.0545918734348
9514.16 58.923951743184276
9849.61 58.91147982616609
10196.8 58.81669208912
10555.7 59.170080047609915
10927.7 59.05471486259104
11313.0 59.0742174871818
11712.9 58.4075472908162
12126.0 57.229692368304526
12553.7 56.80852748333787
12996.1 57.74066323185046
13454.6 59.71833765426284
13929.2 60.27964440027198
14419.9 60.196638973875295
14928.2 59.42872561207575
15455.6 58.85123648342649
16000.5 58.494099129306065
16564.5 57.970734338370576
17148.9 57.48356352213246
17752.4 56.32585282777298
18379.4 54.78915337350641
19026.9 54.654505328508336
19697.8 54.313840793623754
19999.5 53.22773593673206
