Freq "Front Wall Bounce"
20.5078 56.638026629449485
21.9727 58.727489728758
23.4375 60.0396338359148
24.9023 62.32064929729572
26.3672 62.13969324036509
27.832 64.23285661839216
29.2969 66.20825321712564
30.7617 68.23883985557507
32.2266 70.14927405567317
33.6914 71.87011518488461
35.1562 73.54046526832622
36.6211 75.08721528028292
38.0859 76.71521820587276
39.5508 78.0106067638456
41.0156 79.33949360832811
42.4805 80.53212142987421
43.9453 81.59180275882626
45.4102 82.54110356159721
46.875 83.86048944148507
48.3398 84.55774734345749
51.2695 85.56122102973994
52.7344 85.93816463327522
54.1992 86.2313666891474
55.6641 86.49435600265717
58.5938 86.9620679819516
60.0586 87.16962463133163
62.9883 87.57569038378733
64.4531 87.68250117674485
67.3828 88.1292465199595
68.8477 88.31278974711879
71.7773 88.68409587472043
74.707 89.01490983207364
77.6367 89.70163528428989
79.1016 89.8348071255994
82.0312 90.1051390014431
84.9609 90.36177274897283
87.8906 90.74211705114521
90.8203 91.39937231521199
95.2148 91.75224635062767
98.1445 91.93764213668524
101.074 92.14328650067071
105.469 92.48371029273946
108.398 92.5711675220744
112.793 92.60022354165535
117.188 92.32625856983299
120.117 92.57714705408574
124.512 93.13151106698083
128.906 92.9517795605151
133.301 92.83649100103852
139.16 92.25941367663577
143.555 92.05266351956041
147.949 92.19148769410664
153.809 92.20840543183837
159.668 91.70000902655886
165.527 91.2135989520934
171.387 91.56454506954027
177.246 91.03996388975722
183.105 91.24623648907054
188.965 91.52207890706664
196.289 91.35873755669547
203.613 91.15281144409514
210.938 91.58283321985178
218.262 91.7945249844381
225.586 91.70724552128863
232.91 91.49442984626519
241.699 91.3756704607679
250.488 91.93586775150571
259.277 92.30403314104802
268.066 91.97586368816188
276.855 91.14618220445168
287.109 90.94042617770192
297.363 91.53298566952218
307.617 91.74716220910031
319.336 90.72496134750706
329.59 91.15218248605225
341.309 91.15526893657852
353.027 90.97859989421119
366.211 91.30276768879163
379.395 90.47567789675733
392.578 90.64719960592937
405.762 90.49046048915841
420.41 89.61231797224437
435.059 89.69433557946901
451.172 88.86651749949577
465.82 90.40826261033642
483.398 90.3259074525491
499.512 89.47982009884788
517.09 88.56675101234826
536.133 88.62082397032985
555.176 88.42688598563628
574.219 89.83145673391392
594.727 90.39160076267835
615.234 90.25112203953606
637.207 89.26293541658956
659.18 88.94801966848047
682.617 89.36329209142059
707.52 90.07192065140097
732.422 89.38204451513579
757.324 88.9722038448003
785.156 88.40523692080859
811.523 88.49148051590822
840.82 88.51248031784975
870.117 88.42192625671869
900.879 88.97938172037772
933.105 87.79771236311028
965.332 87.7746527515051
1000.49 87.04468266632723
1035.64 87.3984841540256
1072.27 87.02781143783537
1108.89 87.19101206466304
1148.44 86.63221316798666
1189.45 86.45366097681105
1230.47 85.24717323115323
1274.41 84.42340991654035
1319.82 83.95061467698538
1366.7 82.14671020435648
1413.57 81.73394587910886
1463.38 87.96234942491208
1516.11 91.50918102570711
1568.85 90.69938185808738
1624.51 90.0668499666689
1681.64 89.44812624954983
1741.7 88.19566306353919
1803.22 87.66135510253613
1866.21 87.54876685691471
1932.13 87.39463779824881
1999.51 86.75030743752386
2069.82 86.82891297450385
2143.07 87.49656350847359
2219.24 87.53131546770254
2296.88 88.24695772574209
2378.91 89.70836457575068
2462.4 89.81090091155642
2548.83 89.04946305180304
2639.65 89.40137177841217
2731.93 88.98310275045287
2828.61 88.41193830423538
2928.22 88.12701340349591
3030.76 88.56633638803538
3137.7 88.98844113983404
3249.02 89.35162943002155
3363.28 88.86437160010986
3481.93 88.69263205766231
3604.98 88.26278588031391
3732.42 88.47172515860598
3864.26 88.0103504092732
4000.49 88.5435079410893
4141.11 88.17860148085472
4287.6 88.2272232261053
4438.48 88.27027936333488
4595.21 87.70203130553512
4756.35 88.07562799438
4924.8 87.96674260736326
5097.66 88.36791267800083
5277.83 88.38448425180641
5463.87 88.80678338232016
5657.23 88.93003928882187
5856.45 89.24579193631243
6062.99 89.59784375950476
6276.86 89.67101548691036
6498.05 89.94741120309817
6726.56 90.25511412720134
6963.87 90.25217271031121
7209.96 90.22097489384541
7464.84 90.46580421725564
7727.05 91.08478736738662
7999.51 91.65298395264729
8282.23 92.15187880573322
8573.73 92.48754597537388
8876.95 92.86586214234038
9188.96 93.00127600381659
9514.16 92.66397310765485
9849.61 92.36673237091364
10196.8 92.30835345149384
10555.7 92.06223966351345
10927.7 91.82666787165034
11313.0 91.8042299990486
11712.9 92.0354778251688
12126.0 92.4031116854326
12553.7 92.85219344456263
12996.1 93.23058332397991
13454.6 93.43174081917958
13929.2 93.74115778817911
14419.9 93.47005291112842
14928.2 93.2068799362326
15455.6 92.94044867825271
16000.5 92.80066554978426
16564.5 92.62723929244757
17148.9 92.57291350140596
17752.4 92.18519421405156
18379.4 91.36381832803605
19026.9 90.71317852615586
19697.8 90.49201410211552
19999.5 90.19043917186451
