Freq "Front Wall Bounce"
20.5078 55.554628144601025
21.9727 57.64409124390954
23.4375 58.95623535106634
24.9023 61.23725081244726
26.3672 61.05629475551663
27.832 63.149458133543675
29.2969 65.12485473227719
30.7617 67.1554413707266
32.2266 69.06587557082472
33.6914 70.78671670003614
35.1562 72.45706678347774
36.6211 74.00381679543446
38.0859 75.63181972102429
39.5508 76.92720827899713
41.0156 78.25609512347964
42.4805 79.44872294502574
43.9453 80.50840427397779
45.4102 81.45770507674874
46.875 82.7770909566366
48.3398 83.474348858609
51.2695 84.47782254489147
52.7344 84.85476614842675
54.1992 85.14796820429895
55.6641 85.4109575178087
58.5938 85.87866949710312
60.0586 86.08622614648314
62.9883 86.49229189893886
64.4531 86.59910269189638
67.3828 87.04584803511102
68.8477 87.22939126227031
71.7773 87.60069738987197
74.707 87.93151134722515
77.6367 88.6182367994414
79.1016 88.75140864075092
82.0312 89.02174051659463
84.9609 89.27837426412435
87.8906 89.65871856629674
90.8203 90.3159738303635
95.2148 90.66884786577918
98.1445 90.85424365183678
101.074 91.05988801582222
105.469 91.40031180789097
108.398 91.48776903722593
112.793 91.51682505680688
117.188 91.24286008498451
120.117 91.49374856923727
124.512 92.04811258213235
128.906 91.86838107566663
133.301 91.75309251619005
139.16 91.17601519178729
143.555 90.96926503471194
147.949 91.10808920925817
153.809 91.12500694698988
159.668 90.6166105417104
165.527 90.13020046724493
171.387 90.4811465846918
177.246 89.95656540490873
183.105 90.16283800422208
188.965 90.43868042221817
196.289 90.27533907184699
203.613 90.06941295924665
210.938 90.49943473500332
218.262 90.71112649958964
225.586 90.62384703644015
232.91 90.41103136141672
241.699 90.29227197591943
250.488 90.85246926665724
259.277 91.22063465619954
268.066 90.8924652033134
276.855 90.0627837196032
287.109 89.85702769285345
297.363 90.44958718467372
307.617 90.66376372425185
319.336 89.64156286265859
329.59 90.06878400120378
341.309 90.07187045173005
353.027 89.89520140936271
366.211 90.21936920394316
379.395 89.39227941190887
392.578 89.5638011210809
405.762 89.40706200430994
420.41 88.5289194873959
435.059 88.61093709462055
451.172 87.7831190146473
465.82 89.32486412548795
483.398 89.24250896770064
499.512 88.3964216139994
517.09 87.48335252749979
536.133 87.53742548548138
555.176 87.3434875007878
574.219 88.74805824906545
594.727 89.30820227782988
615.234 89.1677235546876
637.207 88.17953693174107
659.18 87.86462118363201
682.617 88.27989360657212
707.52 88.98852216655251
732.422 88.29864603028732
757.324 87.88880535995183
785.156 87.32183843596012
811.523 87.40808203105973
840.82 87.42908183300129
870.117 87.33852777187023
900.879 87.89598323552924
933.105 86.7143138782618
965.332 86.69125426665661
1000.49 85.96128418147876
1035.64 86.31508566917711
1072.27 85.94441295298688
1108.89 86.10761357981457
1148.44 85.5488146831382
1189.45 85.37026249196259
1230.47 84.16377474630474
1274.41 83.34001143169188
1319.82 82.86721619213691
1366.7 81.06331171950801
1413.57 80.65054739426039
1463.38 86.87895094006359
1516.11 90.42578254085862
1568.85 89.6159833732389
1624.51 88.98345148182042
1681.64 88.36472776470134
1741.7 87.11226457869071
1803.22 86.57795661768766
1866.21 86.46536837206624
1932.13 86.31123931340035
1999.51 85.6669089526754
2069.82 85.74551448965539
2143.07 86.41316502362511
2219.24 86.44791698285405
2296.88 87.16355924089362
2378.91 88.6249660909022
2462.4 88.72750242670793
2548.83 87.96606456695457
2639.65 88.3179732935637
2731.93 87.89970426560438
2828.61 87.32853981938689
2928.22 87.04361491864744
3030.76 87.48293790318691
3137.7 87.90504265498556
3249.02 88.26823094517307
3363.28 87.7809731152614
3481.93 87.60923357281384
3604.98 87.17938739546543
3732.42 87.38832667375752
3864.26 86.92695192442473
4000.49 87.4601094562408
4141.11 87.09520299600626
4287.6 87.14382474125682
4438.48 87.1868808784864
4595.21 86.61863282068664
4756.35 86.99222950953151
4924.8 86.88334412251479
5097.66 87.28451419315236
5277.83 87.30108576695793
5463.87 87.72338489747169
5657.23 87.84664080397341
5856.45 88.16239345146394
6062.99 88.5144452746563
6276.86 88.5876170020619
6498.05 88.86401271824968
6726.56 89.17171564235286
6963.87 89.16877422546273
7209.96 89.13757640899692
7464.84 89.38240573240718
7727.05 90.00138888253817
7999.51 90.56958546779882
8282.23 91.06848032088473
8573.73 91.4041474905254
8876.95 91.7824636574919
9188.96 91.91787751896811
9514.16 91.58057462280638
9849.61 91.28333388606515
10196.8 91.22495496664538
10555.7 90.97884117866498
10927.7 90.74326938680187
11313.0 90.72083151420011
11712.9 90.95207934032032
12126.0 91.31971320058415
12553.7 91.76879495971414
12996.1 92.14718483913144
13454.6 92.34834233433112
13929.2 92.65775930333065
14419.9 92.38665442627993
14928.2 92.12348145138412
15455.6 91.85705019340423
16000.5 91.71726706493578
16564.5 91.5438408075991
17148.9 91.48951501655748
17752.4 91.1017957292031
18379.4 90.28041984318759
19026.9 89.62978004130738
19697.8 89.40861561726705
19999.5 89.10704068701604
