Freq "Estimated In-Room Response"
22.4 55.310816028817825
23.0 55.95344304521201
23.6 56.70589008765798
24.0 57.61092085929313
25.0 58.78750797807943
25.8 60.067186519965404
26.5 61.547836194431156
27.2 62.9747816545657
28.0 64.47994271185179
29.0 65.60301541365592
30.0 66.12101428111774
30.7 66.11377192555369
31.5 66.11735201341394
32.5 66.58997949080769
33.5 67.54895771826604
34.5 68.49723473685614
35.5 70.24774823615716
36.5 72.72384654995538
37.5 74.3881824382476
38.7 74.95272082165529
40.0 74.95530254748205
41.2 75.01012503604579
42.5 75.40022589547873
43.7 76.18289885782931
45.0 77.07924401030643
46.2 78.15487760876847
47.5 79.5052812047615
48.7 80.88881443917182
50.0 82.07825717900958
51.5 83.00543237256512
53.0 83.7032940628725
54.5 84.23973663591065
56.0 84.86574601124785
58.0 85.69349588964465
60.0 86.81246585498609
61.5 87.98291655958268
63.0 89.33832933832532
65.0 91.42786789453801
67.0 92.86040545827923
69.0 92.85763838813864
71.0 91.1162543764097
73.0 89.47304774359468
75.0 88.20859757455908
77.5 86.67108308687845
80.0 85.58236670516233
82.5 84.83485451021056
85.0 84.45578546815202
87.5 84.31264578763391
90.0 84.15613444500254
92.5 84.11534028462032
95.0 84.13481404022002
97.5 84.23337572172925
100.0 84.3421352810478
103.0 84.63509922489217
106.0 85.02235314399616
109.0 85.40514058953626
112.0 85.81133434096225
115.0 86.11541427792689
118.0 86.34604525552712
122.0 86.42928036030364
125.0 86.35630420449391
128.0 86.30191648238986
132.0 86.17485439426318
136.0 86.09209785732297
140.0 85.92426834163419
145.0 85.59990988945827
150.0 85.24063466241454
155.0 84.87585533944313
160.0 84.50745192271924
165.0 84.12948435108574
170.0 83.76418390413436
175.0 83.41428121970445
180.0 83.11106196568166
185.0 82.87974669213827
190.0 82.81757496964921
195.0 82.73322324184903
200.0 82.66107044154988
206.0 82.68357957407817
212.0 82.72305819802884
218.0 82.76285830199372
224.0 82.87321131214932
230.0 82.98918909768895
236.0 83.10200516009192
240.0 83.20281860323692
250.0 83.35053942411065
258.0 83.44861992799468
265.0 83.55066048510575
272.0 83.60656431314597
280.0 83.67110460417875
290.0 83.79729017728545
300.0 83.93294838988017
307.0 84.00343111824387
315.0 83.98209030207192
325.0 83.63774422608871
335.0 82.8165197806672
345.0 81.65841809640938
355.0 79.92709495238437
365.0 78.60292443301897
375.0 79.03803768313219
387.0 80.20762959288136
400.0 81.48899434951919
412.0 82.8800852230592
425.0 83.8053447353744
437.0 84.11669663961986
450.0 84.09688478321506
462.0 83.8825332309418
475.0 83.39299202581388
487.0 82.82261846187419
500.0 82.31594379347304
515.0 81.75472016499961
530.0 81.15245618391955
545.0 80.4503133164887
560.0 79.82962693679852
580.0 79.2668685126683
600.0 79.18801499725173
615.0 79.7341703729836
630.0 80.66881642810843
650.0 81.5381417787105
670.0 82.10692274357308
690.0 82.2690458966985
710.0 81.89815624680311
730.0 81.2452943999839
750.0 80.59116031424682
775.0 80.1156475762201
800.0 79.8039645813009
825.0 79.63904355604322
850.0 79.41084795750463
875.0 79.05028128346537
900.0 78.64481836223403
925.0 78.37543783087632
950.0 78.05333801342486
975.0 77.78142720718813
1000.0 77.4827124545032
1030.0 77.0962394392059
1060.0 76.5875980445273
1090.0 76.28706580879125
1120.0 76.31661848627076
1150.0 76.85870998552774
1180.0 78.00677899339149
1220.0 79.11760096172225
1250.0 80.29364804792625
1280.0 81.32109043110871
1320.0 82.02859952454469
1360.0 82.35467173404912
1400.0 82.26724484775995
1450.0 81.8454139411985
1500.0 81.1331635694679
1550.0 80.49044461303832
1600.0 79.97631533792428
1650.0 79.48819737648678
1700.0 78.79832876728845
1750.0 78.00434695521066
1800.0 77.68330806504437
1850.0 77.80405504159589
1900.0 77.97735417723108
1950.0 77.91499893671971
2000.0 78.11392030204486
2060.0 78.63556385183779
2120.0 78.94496046721119
2180.0 79.08545946070844
2240.0 79.3844760399142
2300.0 80.02212909608434
2360.0 80.89866812659295
2400.0 81.38748344895919
2500.0 81.75448933134491
2580.0 81.86537907383476
2650.0 81.756709836941
2720.0 81.23313696558078
2800.0 80.63543326144783
2900.0 80.2009629857335
3000.0 79.81303571132835
3070.0 79.68330514341243
3150.0 79.87615838478092
3250.0 79.90130956893681
3350.0 79.30474545963018
3450.0 78.74894527366378
3550.0 78.9972720645673
3650.0 79.46567273917164
3750.0 79.76374936807913
3870.0 80.08570397594414
4000.0 80.42590067502523
4120.0 80.7929239306158
4250.0 81.0994852098675
4370.0 81.35704785149929
4500.0 81.10176833333027
4620.0 80.63549567898393
4750.0 80.40558646489808
4870.0 80.36921816482023
5000.0 80.35240609455967
5150.0 80.0573465538752
5300.0 79.58941116667134
5450.0 79.35545835299281
5600.0 79.21195266302243
5800.0 79.07374830334844
6000.0 78.9033570951309
6150.0 78.61195673488368
6300.0 77.7641048103734
6500.0 77.64273097565766
6700.0 78.0795793359223
6900.0 77.6697024392315
7100.0 76.61962568287966
7300.0 76.56608850481987
7500.0 77.47120506163088
7750.0 77.52444011757571
8000.0 76.7737208570433
8250.0 75.3665664749122
8500.0 73.93311828682073
8750.0 72.53431326820782
9000.0 74.79299713075896
9250.0 75.5112142496851
9500.0 74.6273747288997
9750.0 74.30416656285728
10000.0 74.22368330843626
10300.0 73.64991990556632
10600.0 70.72430223440192
10900.0 71.08658676790996
11200.0 73.14586522878817
11500.0 74.84987339313118
11800.0 72.87234108534459
12200.0 71.1036466115396
12500.0 71.29335235300438
12800.0 70.99567299924178
13200.0 71.65398369772635
13600.0 69.96566993054836
14000.0 70.73436076712524
14500.0 71.63399431106465
15000.0 71.3028483131494
15500.0 71.24241144471473
16000.0 72.70071891761313
16500.0 70.75455879068228
17000.0 71.0797208479747
17500.0 68.40497819546839
18000.0 68.74504600421037
18500.0 65.06281473380461
19000.0 60.81296955013421
19500.0 60.505069291215804
