Freq "Estimated In-Room Response"
20.5078 38.51725271230383
21.9727 39.09958477543721
23.4375 42.04218986362433
24.9023 44.14224010653491
26.3672 45.597494218779175
27.832 47.66791810498076
29.2969 49.948284964284866
30.7617 52.559009466256995
32.2266 54.3869875244627
33.6914 56.518251373349855
35.1562 58.112844137175145
36.6211 59.95133380956479
38.0859 61.38480316806978
39.5508 62.99714548451635
41.0156 64.80756172061244
42.4805 65.74256758555887
43.9453 67.07560250642034
45.4102 68.39571227939106
46.875 69.56303175600551
48.3398 70.79421293682228
51.2695 72.97507129470814
52.7344 74.05299271449188
54.1992 75.03057135674474
55.6641 75.95324298201736
58.5938 77.65836318181157
60.0586 78.40892495365235
62.9883 79.747941509965
64.4531 80.30219660913355
67.3828 81.25402336348559
68.8477 81.67497184730216
71.7773 82.40803951979736
74.707 82.93249809239465
77.6367 83.33652796043172
79.1016 83.51374596184843
82.0312 83.81369043975272
84.9609 84.0214030908626
87.8906 84.1375922771279
90.8203 84.29297865315506
95.2148 84.40106063183168
98.1445 84.39645785804574
101.074 84.42663052139326
105.469 84.46990018993912
108.398 84.42436554524032
112.793 84.4721337885205
117.188 84.44378326144898
120.117 84.4638380036357
124.512 84.46207658034835
128.906 84.42110628289373
133.301 84.4008752281932
139.16 84.36613334183664
143.555 84.362860327676
147.949 84.331823247289
153.809 84.31122311769948
159.668 84.2993321707821
165.527 84.3193649065963
171.387 84.25375512435477
177.246 84.19540204285997
183.105 84.14497255180676
188.965 84.09405034956453
196.289 84.12234810282662
203.613 84.04987588638005
210.938 84.01969588070948
218.262 83.92937868236675
225.586 83.88585233937019
232.91 83.8323848195836
241.699 83.7271909631891
250.488 83.69333561002917
259.277 83.80356736391151
268.066 83.70012462277727
276.855 83.83995782173724
287.109 83.87003078630877
297.363 84.01718076404401
307.617 84.06967810833292
319.336 83.96615224557733
329.59 84.04315759167135
341.309 84.01474619842226
353.027 84.05727448333212
366.211 84.04278931533467
379.395 84.1607666105808
392.578 84.01287304680916
405.762 83.9672615570778
420.41 84.01617147479861
435.059 83.9365966333874
451.172 83.966324317623
465.82 83.97742151760124
483.398 83.9313503932794
499.512 83.95971906675388
517.09 83.93321751209122
536.133 83.59575797860352
555.176 83.73615463020508
574.219 83.79224027621886
594.727 83.65762433784796
615.234 83.67948614487729
637.207 83.77492917278308
659.18 83.51961284491809
682.617 83.42352375468555
707.52 83.40638686228023
732.422 83.0286029498092
757.324 82.89806487580076
785.156 82.57923472794029
811.523 82.18053882128434
840.82 81.85530710245332
870.117 81.77045912006916
900.879 81.93552135743965
933.105 81.69959721064134
965.332 81.24806246595794
1000.49 80.86273567070337
1035.64 80.68558776115229
1072.27 80.09990393753843
1108.89 80.28697246838901
1148.44 80.75542294706067
1189.45 80.84657615033042
1230.47 81.1835734401535
1274.41 81.22935606208053
1319.82 81.58128082061498
1366.7 81.08134862774315
1413.57 80.99186928984163
1463.38 81.33237259006917
1516.11 81.58863496052373
1568.85 81.27005888251118
1624.51 80.79965608623831
1681.64 80.44680025505863
1741.7 80.64045732991883
1803.22 81.45367775103371
1866.21 81.62588286367354
1932.13 81.1105111606773
1999.51 81.32299784969629
2069.82 81.53981281365114
2143.07 81.41514372916912
2219.24 81.25867677363752
2296.88 81.70033811681077
2378.91 82.08293025750568
2462.4 81.55654396387858
2548.83 81.41580996629048
2639.65 81.76042896884549
2731.93 81.19226593771823
2828.61 81.20956291564968
2928.22 81.35728603231793
3030.76 81.0347137002463
3137.7 80.59463771201088
3249.02 80.87147056700049
3363.28 81.12271622601675
3481.93 81.34751154251545
3604.98 81.25721045749863
3732.42 81.36228768031664
3864.26 81.21761256341333
4000.49 81.82679006619759
4141.11 81.35370628189446
4287.6 80.276432168407
4438.48 80.70783025138708
4595.21 81.56911773576591
4756.35 81.7822986134293
4924.8 81.88491493605903
5097.66 81.904896552178
5277.83 81.72193515851144
5463.87 81.7155714718258
5657.23 81.60584589161645
5856.45 81.4034317215691
6062.99 81.37030622070776
6276.86 81.19866489518562
6498.05 80.811168607724
6726.56 80.64081949845297
6963.87 80.55964771658236
7209.96 80.42735462532359
7464.84 80.50905795743928
7727.05 80.44309017220642
7999.51 80.30441540618466
8282.23 80.14727547319563
8573.73 79.77350602517684
8876.95 79.41384328358698
9188.96 79.10270383535267
9514.16 78.82157323710992
9849.61 78.78632488772138
10196.8 78.58403801558116
10555.7 78.48544436621428
10927.7 78.5510396831452
11313.0 78.67626711240769
11712.9 78.86928751588881
12126.0 79.06976987678188
12553.7 79.30441896503646
12996.1 79.53237006204017
13454.6 79.66132814932358
13929.2 79.91234536037528
14419.9 80.07666358200854
14928.2 80.05004427299382
15455.6 79.78220423998336
16000.5 79.29565625018394
16564.5 78.44960361813564
17148.9 77.55695005921687
17752.4 76.74421124273836
18379.4 75.95924229614414
19026.9 75.09300733199392
19697.8 74.11019332698964
19999.5 73.67823186266374
