Freq,On Axis,Listening Window,Sound Power,Early Reflections,Early Reflections DI,Sound Power DI,DI offset
22.4,54.80379746835443,54.65734331101169,56.548006599675006,56.07235364689062,18.584989664121068,18.10933671133668,20
23.0,56.40379746835444,56.59958098092865,58.564935910879925,58.06296013600662,18.536620844922027,18.034645070048725,20
23.6,58.70379746835444,59.021853657152704,61.949816197703626,61.178229971474835,17.84362368567787,17.072037459449078,20
24.0,60.70379746835444,60.86089780510203,63.134151459296405,62.405439189329854,18.455458615772173,17.726746345805623,20
25.0,62.00379746835445,62.08994654980499,63.64477484247807,63.02260565622434,19.06734089358065,18.44517170732692,20
25.8,63.10379746835444,63.14501562064581,64.22934098140615,63.697661168992084,19.447354451653723,18.915674639239654,20
26.5,64.00379746835443,63.97450689951364,64.72516247862917,64.28182108174016,19.69268581777348,19.24934442088447,20
27.2,64.90379746835444,64.74162730847281,64.95823345164959,64.8433988180452,19.898228490427613,19.783393856823224,20
28.0,65.70379746835444,65.60886558596452,65.45250945134775,65.58689014201471,20.021975443949813,20.15635613461677,20
29.0,66.50379746835443,66.37416716053094,66.00474627979327,66.27527977201234,20.098887388518605,20.369420880737678,20
30.0,67.30379746835443,67.27668935081002,66.77505465948262,67.06878862400818,20.20790072680184,20.501634691327396,20
30.7,68.00379746835445,68.14241424832922,67.70449434533622,67.90182337732676,20.240590871002453,20.437919902993002,20
31.5,68.50379746835443,68.79740354164691,68.38134021658938,68.5359999600958,20.26140358155112,20.416063325057536,20
32.5,69.00379746835443,69.31051873137989,68.88549308908368,69.0093683681171,20.301150363262792,20.425025642296205,20
33.5,69.20379746835444,69.46643268768884,69.02378948505218,69.15991182166282,20.30652086602602,20.44264320263666,20
34.5,69.30379746835445,69.45609214165616,69.06908719700803,69.23726860358332,20.21882353807284,20.387004944648126,20
35.5,69.50379746835442,69.49668875921209,69.10781095038932,69.28696423403218,20.209724525179908,20.38887780882277,20
36.5,69.50379746835442,69.45775462470455,68.92948043419014,69.17925763842692,20.27849698627763,20.52827419051441,20
37.5,69.50379746835442,69.41757442542477,68.5129789509611,68.92857501289754,20.488999412527235,20.904595474463676,20
38.7,69.60379746835444,69.41796729109187,67.81525770986423,68.53851531952425,20.87945197156762,21.602709581227643,20
40.0,69.50379746835442,69.57628461729921,67.88283865251184,68.6631325672205,20.913152050078708,21.693445964787372,20
41.2,69.30379746835445,69.68412180253446,68.0547024287283,68.82040734947732,20.863714453057142,21.629419373806158,20
42.5,69.30379746835445,69.76245059571123,68.27427551774845,68.93671014317917,20.82574045253206,21.48817507796278,20
43.7,69.40379746835445,69.84391665185493,68.58794977076835,69.06922767328655,20.774688978568378,21.25596688108658,20
45.0,69.50379746835442,69.89170814144416,68.95509253844035,69.22947050519447,20.662237636249685,20.9366156030038,20
46.2,69.40379746835445,69.77037272477743,69.22982156901307,69.36607475135321,20.40429797342422,20.540551155764362,20
47.5,69.40379746835445,69.38167326614159,69.35550233893154,69.38944783562775,19.99222543051384,20.026170927210046,20
48.7,69.30379746835445,68.76466903804244,67.15771824923004,67.97262016202252,20.79204887601992,21.606950788812398,20
50.0,69.30379746835445,68.52956838389157,65.85973143515092,67.15748191079619,21.37208647309538,22.669836948740652,20
51.5,69.20379746835444,68.618845363477,65.7106774575889,67.1238388844623,21.495006479014705,22.908167905888106,20
53.0,69.00379746835443,68.55252868606608,65.64586275045997,67.06699071003295,21.48553797603313,22.906665935606114,20
54.5,68.80379746835445,68.36118301608724,65.63473718717916,66.97349716511381,21.387685850973426,22.726445828908084,20
56.0,68.60379746835444,68.19076409589984,65.6292644989292,66.90559424683742,21.285169849062413,22.561499596970634,20
58.0,68.60379746835444,68.1937953401155,65.77105168087691,66.95110658589785,21.242688754217653,22.42274365923859,20
60.0,68.60379746835444,68.20632567486668,65.94941255061148,67.0369089842769,21.16941669058977,22.256913124255192,20
61.5,68.70379746835444,68.32477562369085,66.2326315853001,67.22169293381684,21.103082689874014,22.092144038390757,20
63.0,68.70379746835444,68.36930187822882,66.41677247885215,67.33288420466063,21.036417673568195,21.952529399376672,20
65.0,68.90379746835444,68.48035954868436,66.53231556998722,67.40264310244422,21.077716446240146,21.948043978697143,20
67.0,68.90379746835444,68.56653644893233,66.71962889162779,67.54065414859312,21.025882300339205,21.846907557304533,20
69.0,69.00379746835443,68.72117529264473,66.96217779339914,67.76274014987416,20.95843514277057,21.758997499245595,20
71.0,69.20379746835444,68.92903671051216,67.27293321425464,68.06951149156772,20.85952521894444,21.65610349625753,20
73.0,69.20379746835444,69.0503283028117,67.78773473304237,68.40234356500612,20.647984737805587,21.262593569769336,20
75.0,69.20379746835444,69.1272434819761,68.28254726551403,68.68868134819549,20.438562133780607,20.84469621646207,20
77.5,69.20379746835444,69.1825447823057,68.69259609884791,68.90590580002394,20.276638982281753,20.489948683457783,20
80.0,69.20379746835444,69.21553332547029,69.11231869089885,69.13259061481682,20.08294271065347,20.103214634571444,20
82.5,69.30379746835445,69.23738729523443,69.43026308725645,69.32750688939069,19.909880405843737,19.807124207977978,20
85.0,69.30379746835445,69.23738729523443,69.67614037215031,69.45703963651263,19.780347658721794,19.561246923084113,20
87.5,69.20379746835444,69.16015395238631,69.79685221937345,69.49833762468987,19.661816327696442,19.36330173301286,20
90.0,69.10379746835444,69.11527815433836,69.6644501448421,69.37487882069424,19.74039933364412,19.45082800949625,20
92.5,69.10379746835444,69.16040650047817,69.28678341743961,69.16354197337307,19.996864527105103,19.873623083038567,20
95.0,69.10379746835444,69.17224257352875,68.97078735216267,69.00863650973291,20.16360606379584,20.201455221366075,20
97.5,69.00379746835443,69.13865665863037,68.8028006263239,68.9054064593973,20.23325019923307,20.335856032306467,20
100.0,68.80379746835445,69.06141667988038,68.67574970124281,68.81521631886073,20.246200361019646,20.385666978637573,20
103.0,68.80379746835445,68.93865665863036,68.57117667086825,68.71857026396344,20.22008639466692,20.36747998776211,20
106.0,68.70379746835444,68.83868030955387,68.49286856702251,68.61509289041082,20.223587419143044,20.345811742531353,20
109.0,68.70379746835444,68.86092345308661,68.44904906071643,68.60941921505757,20.251504238029042,20.41187439237018,20
112.0,68.80379746835445,68.90457092136026,68.34900601461129,68.57282760001779,20.331743321342472,20.55556490674897,20
115.0,68.80379746835445,68.89305588366506,68.21592081846252,68.51970736953561,20.373348514129447,20.677135065202535,20
118.0,68.90379746835444,68.91604956558281,68.1162046111115,68.44978059651244,20.46626896907037,20.79984495447131,20
122.0,68.90379746835444,68.90405331491031,67.97946051666536,68.3890184223567,20.515034892553615,20.92459279824496,20
125.0,68.90379746835444,68.90405331491031,67.83023922155336,68.29533156491819,20.608721749992128,21.073814093356958,20
128.0,69.00379746835443,68.94852641893166,67.57264686068007,68.18210471022964,20.766421708702026,21.375879558251597,20
132.0,69.00379746835443,68.9825447823057,67.51460291444818,68.25555071130576,20.726994070999936,21.46794186785752,20
136.0,69.10379746835444,69.04903285443726,67.7620178203135,68.44249118115877,20.606541673278485,21.287015034123755,20
140.0,69.10379746835444,69.08203053343833,67.99421090883168,68.54144594554724,20.54058458789109,21.087819624606652,20
145.0,69.10379746835444,69.07122904162618,67.94648305219606,68.47616829328615,20.595060748340032,21.124745989430124,20
150.0,69.20379746835444,69.10532067785624,67.80930182781468,68.40532941030754,20.699991267548697,21.296018850041563,20
155.0,69.20379746835444,69.1178354020572,67.66146180798637,68.32689390714643,20.79094149491077,21.456373594070826,20
160.0,69.30379746835445,69.18382442362373,67.66522839156511,68.37235652668842,20.811467896935312,21.518596032058625,20
165.0,69.30379746835445,69.20583813328875,67.69304398877267,68.4027811164834,20.803057016805354,21.51279414451608,20
170.0,69.40379746835445,69.23994351946172,67.68645568115086,68.39394102311795,20.846002496343772,21.553487838310858,20
175.0,69.50379746835442,69.26469917796321,67.68319239951455,68.42624565888936,20.838453519073852,21.581506778448656,20
180.0,69.50379746835442,69.22261699069568,67.4809986734371,68.25839593121403,20.96422105948166,21.741618317258585,20
185.0,69.60379746835444,69.2345922859546,67.17737624895697,68.10330036592045,21.13129192003416,22.05721603699763,20
190.0,69.60379746835444,69.36347174390755,67.124421814184,68.16302000505961,21.200451738847946,22.23904992972355,20
195.0,69.70379746835444,69.3883868285639,67.33405861457597,68.27310299282608,21.115283835737813,22.05432821398793,20
200.0,69.70379746835444,69.35714493611019,66.99590605677729,68.04029008235572,21.316854853754464,22.3612388793329,20
206.0,69.70379746835444,69.35714493611019,66.80462603069509,67.99394315331037,21.36320178279982,22.5525189054151,20
212.0,69.70379746835444,69.39136466963579,66.61112421202454,67.94096151890494,21.45040315073085,22.780240457611256,20
218.0,69.70379746835444,69.38190297885463,66.32147645156464,67.85363698891713,21.528265989937495,23.06042652728999,20
224.0,69.70379746835444,69.40342633129195,66.15243199149887,67.83036683895791,21.57305949233404,23.25099433979308,20
230.0,69.70379746835444,69.40043233615496,66.07170310082451,67.79405433038896,21.606378005766004,23.328729235330457,20
236.0,69.70379746835444,69.3803350196629,66.05590120221815,67.77307705284161,21.60725796682128,23.324433817444742,20
240.0,69.70379746835444,69.2937953401155,66.00229961927491,67.6521886506872,21.6416066894283,23.291495720840587,20
250.0,69.60379746835444,69.19722625128956,65.78422651996054,67.35295412816616,21.844272123123403,23.412999731329023,20
258.0,69.50379746835442,69.15343842128918,65.27680794683114,67.02801749950646,22.12542092178272,23.87663047445804,20
265.0,69.50379746835442,69.38429763927901,65.31916382571835,67.43697557308936,21.947322066189656,24.065133813560664,20
272.0,69.50379746835442,69.49279938840107,65.99773915939546,68.00242660903677,21.490372779364293,23.495060229005603,20
280.0,69.50379746835442,69.53866834796858,66.59861119438507,68.39193982904324,21.146728518925343,22.94005715358351,20
290.0,69.40379746835445,69.48253892978158,67.1114751585072,68.51676035596792,20.965778573813665,22.37106377127438,20
300.0,69.40379746835445,69.4817733861682,67.12644851318173,68.44211891375288,21.03965447241532,22.355324872986472,20
307.0,69.50379746835442,69.52621952755962,67.16334768938232,68.41967599946214,21.106543528097475,22.3628718381773,20
315.0,69.50379746835442,69.5596370452122,67.35276177447675,68.49940358407677,21.060233461135425,22.206875270735452,20
325.0,69.60379746835444,69.57148094652581,67.61416191738115,68.61972296039177,20.95175798613404,21.957319029144656,20
335.0,69.70379746835444,69.49433243210436,67.39150516062453,68.42171695439471,21.072615477709647,22.102827271479825,20
345.0,69.80379746835443,69.36164514989089,66.65005527594577,67.92662995427396,21.435015195616927,22.711589873945115,20
355.0,69.80379746835443,69.29601238952729,65.94153122832853,67.50518241482277,21.790829974704522,23.354481161198763,20
365.0,69.90379746835444,69.3552524064114,65.51495103895357,67.34839612165061,22.006856284760786,23.840301367457826,20
375.0,69.90379746835444,69.41609403232461,65.11667614678079,67.18788951001983,22.22820452230478,24.299417885543818,20
387.0,70.00379746835443,69.48794625974745,64.79589113575301,67.06493346514634,22.423012794601107,24.692055123994436,20
400.0,70.00379746835443,69.52814755547423,64.43219645150451,66.88336095760643,22.644786597867807,25.095951103969725,20
412.0,69.90379746835444,69.53340402950737,64.21284702356836,66.79470930333864,22.73869472616873,25.32055700593901,20
425.0,69.90379746835444,69.52927996779665,64.18859646099405,66.84485610426462,22.684423863532032,25.340683506802606,20
437.0,69.70379746835444,69.47875506142522,64.30189651877961,66.88637983111313,22.592375230312086,25.176858542645604,20
450.0,69.60379746835444,69.39885967372742,64.44206522110761,66.87817664322169,22.520683030505722,24.956794452619803,20
462.0,69.40379746835445,69.25359561956726,64.23952405748203,66.66935530696193,22.58424031260533,25.014071562085235,20
475.0,69.30379746835445,68.99989633817506,63.86714025865324,66.37369602529591,22.62620031287915,25.132756079521826,20
487.0,69.10379746835444,68.74523175179874,63.573668781659094,66.07208339026157,22.673148361537173,25.171562970139647,20
500.0,69.00379746835443,68.5666260306924,63.20920419287407,65.80081565970532,22.765810370987083,25.357421837818336,20
515.0,69.00379746835443,68.49032824544251,62.86793805388048,65.58536673145079,22.904961513991722,25.622390191562033,20
530.0,69.00379746835443,68.45965773168658,62.59308717951379,65.39095692039626,23.068700811290313,25.86657055217279,20
545.0,69.10379746835444,68.49710516084187,62.241486748365645,65.1358421994894,23.361262961352466,26.255618412476224,20
560.0,69.10379746835444,68.558894028218,61.87470631892498,64.96681498227682,23.59207904594119,26.684187709293028,20
580.0,69.10379746835444,68.65753961661194,61.79834600115389,65.13342535979933,23.52411425681261,26.859193615458054,20
600.0,69.10379746835444,68.77037160141043,62.210621997831936,65.52567989414123,23.244691707269197,26.559749603578496,20
615.0,69.20379746835444,68.84600980275367,62.62034305596367,65.73451335033107,23.1114964524226,26.225666746789997,20
630.0,69.30379746835445,68.93781641836456,63.03625580178597,65.98182104876192,22.955995369602647,25.901560616578593,20
650.0,69.40379746835445,69.0207376303105,63.358548892291694,66.20455798978817,22.816179640522336,25.662188738018813,20
670.0,69.50379746835442,68.98637177415284,63.28468155458681,66.13433186954491,22.852039904607935,25.701690219566032,20
690.0,69.60379746835444,68.88143760169505,62.97513937887504,65.89123561536609,22.99020198632897,25.906298222820013,20
710.0,69.70379746835444,69.0645228260619,63.168207367590014,66.07855880449485,22.985964021567057,25.89631545847189,20
730.0,69.80379746835443,69.32799515642736,63.6539062618147,66.52492896611137,22.803066190315988,25.674088894612666,20
750.0,69.70379746835444,69.31750677168219,63.697230774386526,66.55047052941448,22.767036242267707,25.620275997295664,20
775.0,69.60379746835444,69.12071178786418,63.165222855803435,66.25677540841589,22.86393637944829,25.955488932060746,20
800.0,69.60379746835444,69.05538557791094,63.264169578283955,66.46482039158307,22.590565186327865,25.791215999626985,20
825.0,69.50379746835442,68.97493519471074,63.56227481181493,66.64252073332146,22.332414461389277,25.412660382895808,20
850.0,69.50379746835442,68.81774398311823,63.215293217113455,66.32662880400036,22.49111517911787,25.60245076600478,20
875.0,69.50379746835442,68.82540123788652,63.0505374975085,66.11159969750689,22.713801540379635,25.774863740378024,20
900.0,69.50379746835442,68.90265526454536,63.05358237385664,66.03229106495442,22.870364199590938,25.849072890688717,20
925.0,69.50379746835442,68.88614456951682,62.8243661966214,65.84854618281287,23.037598386703948,26.061778372895418,20
950.0,69.50379746835442,68.90230738430787,62.90691988137101,65.8610623186964,23.041245065611477,25.995387502936865,20
975.0,69.40379746835445,68.68331244895253,62.54398418613444,65.52088885645165,23.162423592500886,26.139328262818097,20
1000.0,69.40379746835445,68.94992605249081,62.86737516526121,65.8148649673754,23.13506108511541,26.0825508872296,20
1030.0,69.40379746835445,68.86382619634146,62.994793746376544,65.82048210073218,23.043344095609285,25.86903244996492,20
1060.0,69.40379746835445,68.7037601051486,62.4296587932745,65.39005287185348,23.31370723329512,26.274101311874105,20
1090.0,69.50379746835442,68.82790237812766,62.60898467809443,65.50415815599956,23.3237442221281,26.21891770003323,20
1120.0,69.60379746835444,68.83429761065102,62.70598481629975,65.51297269115071,23.321324919500313,26.128312794351274,20
1150.0,69.80379746835443,68.93946434849852,62.209288269304636,65.38534892067126,23.554115427827256,26.730176079193882,20
1180.0,69.90379746835444,69.08397075571018,62.28245487912247,65.51390001266131,23.570070743048873,26.801515876587715,20
1220.0,69.90379746835444,69.20246441562752,62.65062533850953,65.87513455429388,23.327329861333638,26.55183907711799,20
1250.0,69.80379746835443,68.78508368309481,61.85081873088443,65.24730201796963,23.53778166512518,26.934264952210384,20
1280.0,69.60379746835444,68.80843028381521,61.99778968224041,65.41213304431962,23.396297239495595,26.810640601574804,20
1320.0,69.40379746835445,68.50070079157389,61.62071988505545,64.97454328116918,23.526157510404715,26.87998090651844,20
1360.0,69.40379746835445,68.46633063361752,61.477624726807264,64.82839376730045,23.637936866317062,26.988705906810253,20
1400.0,69.40379746835445,68.53731352301801,61.329438588226296,64.73740011836703,23.79991340465098,27.207874934791718,20
1450.0,69.40379746835445,68.44827199623798,61.10679742937383,64.52527287307649,23.92299912316149,27.34147456686415,20
1500.0,69.30379746835445,68.63802677970666,61.38676337105399,64.76962678379788,23.86839999590879,27.251263408652676,20
1550.0,69.20379746835444,68.54174409681647,60.86888841969342,64.24945127106683,24.29229282574964,27.672855677123053,20
1600.0,69.40379746835445,68.97153775053273,61.5394827974462,64.89575177601532,24.075785974517416,27.432054953086535,20
1650.0,69.50379746835442,69.00004601654412,61.17435910505566,64.6705538220073,24.32949219453681,27.82568691148846,20
1700.0,69.60379746835444,69.22586229871449,61.43409031772326,64.86951465354053,24.356347645173955,27.79177198099123,20
1750.0,69.60379746835444,69.08541054198376,61.07809262345047,64.40241570259866,24.682994839385103,28.00731791853329,20
1800.0,69.50379746835442,69.12362343095707,61.083549699913675,64.38227665096862,24.741346779988447,28.040073731043393,20
1850.0,69.40379746835445,69.07953326283157,60.68970904301851,63.897578701179114,25.18195456165246,28.389824219813065,20
1900.0,69.30379746835445,69.08661632830108,61.107968176591655,64.08275437310851,25.003861955192562,27.97864815170942,20
1950.0,69.30379746835445,68.92998854053832,60.63795833174514,63.777445406824725,25.152543133713593,28.29203020879318,20
2000.0,69.40379746835445,69.24524609804018,61.25254447180683,64.3307807517645,24.91446534627569,27.992701626233355,20
2060.0,69.60379746835444,69.3280112802681,61.111921603741976,64.34529803835702,24.982713241911085,28.216089676526124,20
2120.0,69.70379746835444,69.18672039216362,60.962411339197715,64.20657560806494,24.980144784098684,28.224309052965907,20
2180.0,69.60379746835444,69.34317095224338,61.21347821881032,64.56376129165132,24.779409660592066,28.12969273343306,20
2240.0,69.60379746835444,69.04225143079162,60.67236945913085,64.2119039612718,24.830347469519822,28.369881971660774,20
2300.0,69.60379746835444,68.78121362044925,60.46731449146908,63.98309857592028,24.79811504452897,28.313899128980168,20
2360.0,69.50379746835442,68.89939412805101,60.80591058191236,64.23020826247564,24.669185865575372,28.093483546138657,20
2400.0,69.50379746835442,68.73364622577922,60.603854155761596,64.06959688984432,24.664049335934905,28.12979207001763,20
2500.0,69.40379746835445,68.68882705769197,60.54950753860946,63.978509881614414,24.710317176077552,28.139319519082505,20
2580.0,69.40379746835445,68.44476266450438,60.44182272487093,63.81143300924303,24.63332965526135,28.00293993963345,20
2650.0,69.40379746835445,68.60564637986651,60.61890044533274,64.05995398345881,24.545692396407702,27.986745934533772,20
2720.0,69.70379746835444,68.8922466259558,61.14261809468972,64.50913574950629,24.38311087644952,27.749628531266083,20
