Freq,On Axis,Listening Window,Sound Power,Early Reflections,Early Reflections DI,Sound Power DI,DI offset
22.4,54.89999999999999,54.753545842657246,56.644209131320565,56.168556178536164,18.584989664121082,18.10933671133668,20
23.0,56.5,56.69578351257421,58.661138442525484,58.15916266765218,18.536620844922027,18.034645070048725,20
23.6,58.8,59.11805618879826,62.046018729349186,61.274432503120394,17.84362368567787,17.072037459449078,20
24.0,60.8,60.95710033674759,63.230353990941964,62.501641720975414,18.455458615772173,17.726746345805623,20
25.0,62.10000000000001,62.18614908145055,63.74097737412363,63.1188081878699,19.06734089358065,18.44517170732692,20
25.8,63.2,63.24121815229137,64.32554351305171,63.793863700637644,19.447354451653723,18.915674639239654,20
26.5,64.1,64.0707094311592,64.82136501027473,64.37802361338572,19.69268581777348,19.24934442088447,20
27.2,65.0,64.83782984011837,65.05443598329515,64.93960134969076,19.898228490427613,19.783393856823224,20
28.0,65.8,65.70506811761008,65.54871198299331,65.68309267366027,20.021975443949813,20.15635613461677,20
29.0,66.6,66.4703696921765,66.10094881143883,66.3714823036579,20.098887388518605,20.369420880737678,20
30.0,67.39999999999999,67.37289188245558,66.87125719112818,67.16499115565374,20.20790072680184,20.501634691327396,20
30.7,68.10000000000001,68.23861677997478,67.80069687698177,67.99802590897232,20.240590871002453,20.437919902993002,20
31.5,68.6,68.89360607329247,68.47754274823494,68.63220249174135,20.26140358155112,20.416063325057536,20
32.5,69.1,69.40672126302545,68.98169562072924,69.10557089976265,20.301150363262792,20.425025642296205,20
33.5,69.3,69.5626352193344,69.11999201669774,69.25611435330838,20.30652086602602,20.44264320263666,20
34.5,69.4,69.55229467330172,69.16528972865359,69.33347113522888,20.21882353807284,20.387004944648126,20
35.5,69.59999999999998,69.59289129085765,69.20401348203488,69.38316676567774,20.209724525179908,20.38887780882277,20
36.5,69.59999999999998,69.55395715635011,69.0256829658357,69.27546017007248,20.27849698627763,20.52827419051441,20
37.5,69.59999999999998,69.51377695707033,68.60918148260666,69.0247775445431,20.488999412527235,20.904595474463676,20
38.7,69.7,69.51416982273743,67.91146024150979,68.6347178511698,20.879451971567633,21.602709581227643,20
40.0,69.59999999999998,69.67248714894477,67.9790411841574,68.75933509886606,20.913152050078708,21.693445964787372,20
41.2,69.4,69.78032433418002,68.15090496037386,68.91660988112288,20.863714453057142,21.629419373806158,20
42.5,69.4,69.85865312735679,68.37047804939401,69.03291267482473,20.82574045253206,21.48817507796278,20
43.7,69.50000000000001,69.94011918350049,68.6841523024139,69.16543020493211,20.774688978568378,21.25596688108658,20
45.0,69.59999999999998,69.98791067308971,69.05129507008591,69.32567303684,20.662237636249714,20.9366156030038,20
46.2,69.50000000000001,69.86657525642299,69.32602410065863,69.46227728299877,20.40429797342422,20.540551155764362,20
47.5,69.50000000000001,69.47787579778715,69.4517048705771,69.48565036727331,19.99222543051384,20.026170927210046,20
48.7,69.4,68.860871569688,67.2539207808756,68.06882269366808,20.79204887601992,21.606950788812398,20
50.0,69.4,68.62577091553713,65.95593396679648,67.25368444244175,21.37208647309538,22.669836948740652,20
51.5,69.3,68.71504789512257,65.80687998923446,67.22004141610786,21.495006479014705,22.908167905888106,20
53.0,69.1,68.64873121771164,65.74206528210553,67.16319324167851,21.48553797603313,22.906665935606114,20
54.5,68.9,68.4573855477328,65.73093971882471,67.06969969675937,21.387685850973426,22.726445828908084,20
56.0,68.7,68.2869666275454,65.72546703057476,67.00179677848298,21.285169849062413,22.561499596970634,20
58.0,68.7,68.28999787176106,65.86725421252247,67.0473091175434,21.242688754217653,22.42274365923859,20
60.0,68.7,68.30252820651224,66.04561508225704,67.13311151592247,21.16941669058977,22.256913124255192,20
61.5,68.8,68.42097815533641,66.32883411694566,67.3178954654624,21.103082689874014,22.092144038390757,20
63.0,68.8,68.46550440987438,66.51297501049771,67.42908673630619,21.036417673568195,21.952529399376672,20
65.0,69.0,68.57656208032992,66.62851810163278,67.49884563408978,21.077716446240146,21.948043978697143,20
67.0,69.0,68.66273898057788,66.81583142327335,67.63685668023868,21.025882300339205,21.846907557304533,20
69.0,69.1,68.81737782429029,67.0583803250447,67.85894268151972,20.95843514277057,21.758997499245595,20
71.0,69.3,69.02523924215772,67.3691357459002,68.16571402321328,20.85952521894444,21.65610349625753,20
73.0,69.3,69.14653083445727,67.88393726468793,68.49854609665168,20.647984737805587,21.262593569769336,20
75.0,69.3,69.22344601362165,68.37874979715959,68.78488387984105,20.438562133780607,20.84469621646207,20
77.5,69.3,69.27874731395126,68.78879863049347,69.0021083316695,20.276638982281753,20.489948683457783,20
80.0,69.3,69.31173585711585,69.2085212225444,69.22879314646238,20.08294271065347,20.103214634571444,20
82.5,69.4,69.33358982687999,69.52646561890201,69.42370942103625,19.909880405843737,19.807124207977978,20
85.0,69.4,69.33358982687999,69.77234290379587,69.55324216815819,19.780347658721794,19.561246923084113,20
87.5,69.3,69.25635648403187,69.89305475101901,69.59454015633543,19.661816327696442,19.36330173301286,20
90.0,69.2,69.21148068598391,69.76065267648767,69.4710813523398,19.74039933364412,19.45082800949625,20
92.5,69.2,69.25660903212373,69.38298594908517,69.25974450501863,19.996864527105103,19.873623083038567,20
95.0,69.2,69.26844510517431,69.06698988380823,69.10483904137847,20.16360606379584,20.201455221366075,20
97.5,69.1,69.23485919027593,68.89900315796946,69.00160899104286,20.23325019923307,20.335856032306467,20
100.0,68.9,69.15761921152594,68.77195223288837,68.9114188505063,20.246200361019646,20.385666978637573,20
103.0,68.9,69.03485919027592,68.66737920251381,68.814772795609,20.22008639466692,20.36747998776211,20
106.0,68.8,68.93488284119942,68.58907109866807,68.7112954220564,20.22358741914303,20.345811742531353,20
109.0,68.8,68.95712598473217,68.54525159236199,68.70562174670313,20.251504238029042,20.41187439237018,20
112.0,68.9,69.00077345300582,68.44520854625685,68.66903013166335,20.331743321342472,20.55556490674897,20
115.0,68.9,68.98925841531062,68.31212335010808,68.61590990118115,20.37334851412946,20.677135065202535,20
118.0,69.0,69.01225209722837,68.21240714275706,68.545983128158,20.46626896907037,20.79984495447131,20
122.0,69.0,69.00025584655587,68.07566304831091,68.48522095400226,20.515034892553615,20.92459279824496,20
125.0,69.0,69.00025584655587,67.92644175319892,68.39153409656376,20.608721749992114,21.073814093356958,20
128.0,69.1,69.04472895057721,67.66884939232563,68.2783072418752,20.766421708702012,21.375879558251583,20
132.0,69.1,69.07874731395125,67.61080544609374,68.35175324295132,20.726994070999936,21.46794186785752,20
136.0,69.2,69.14523538608282,67.85822035195906,68.53869371280433,20.606541673278485,21.287015034123755,20
140.0,69.2,69.17823306508389,68.09041344047723,68.6376484771928,20.54058458789109,21.087819624606652,20
145.0,69.2,69.16743157327174,68.04268558384162,68.57237082493171,20.595060748340032,21.124745989430124,20
150.0,69.3,69.2015232095018,67.90550435946024,68.5015319419531,20.699991267548697,21.296018850041563,20
155.0,69.3,69.21403793370276,67.75766433963193,68.42309643879199,20.79094149491077,21.456373594070826,20
160.0,69.4,69.28002695526929,67.76143092321067,68.46855905833398,20.811467896935312,21.518596032058625,20
165.0,69.4,69.30204066493431,67.78924652041823,68.49898364812896,20.803057016805354,21.51279414451608,20
170.0,69.50000000000001,69.33614605110728,67.78265821279642,68.4901435547635,20.846002496343772,21.553487838310858,20
175.0,69.59999999999998,69.36090170960877,67.7793949311601,68.52244819053492,20.838453519073852,21.58150677844867,20
180.0,69.59999999999998,69.31881952234124,67.57720120508266,68.35459846285958,20.96422105948166,21.741618317258585,20
185.0,69.7,69.33079481760016,67.27357878060253,68.199502897566,21.13129192003416,22.05721603699763,20
190.0,69.7,69.45967427555311,67.22062434582956,68.25922253670517,21.200451738847946,22.23904992972355,20
195.0,69.8,69.48458936020945,67.43026114622153,68.36930552447164,21.115283835737813,22.05432821398793,20
200.0,69.8,69.45334746775575,67.09210858842285,68.13649261400128,21.316854853754464,22.3612388793329,20
206.0,69.8,69.45334746775575,66.90082856234065,68.09014568495593,21.36320178279982,22.5525189054151,20
212.0,69.8,69.48756720128135,66.7073267436701,68.0371640505505,21.45040315073085,22.780240457611256,20
218.0,69.8,69.47810551050019,66.4176789832102,67.94983952056269,21.528265989937495,23.06042652728999,20
224.0,69.8,69.49962886293751,66.24863452314443,67.92656937060347,21.57305949233404,23.25099433979308,20
230.0,69.8,69.49663486780052,66.16790563247007,67.89025686203452,21.606378005766004,23.328729235330457,20
236.0,69.8,69.47653755130845,66.1521037338637,67.86927958448717,21.60725796682128,23.324433817444756,20
240.0,69.8,69.38999787176105,66.09850215092047,67.74839118233275,21.6416066894283,23.291495720840587,20
250.0,69.7,69.29342878293512,65.8804290516061,67.44915665981172,21.844272123123403,23.412999731329023,20
258.0,69.59999999999998,69.24964095293474,65.3730104784767,67.12422003115202,22.12542092178272,23.87663047445804,20
265.0,69.59999999999998,69.48050017092459,65.41536635736391,67.53317810473492,21.94732206618967,24.065133813560678,20
272.0,69.59999999999998,69.58900192004663,66.09394169104102,68.09862914068233,21.490372779364293,23.495060229005603,20
280.0,69.59999999999998,69.63487087961414,66.69481372603063,68.4881423606888,21.146728518925343,22.94005715358351,20
290.0,69.50000000000001,69.57874146142716,67.20767769015276,68.61296288761348,20.96577857381368,22.371063771274393,20
300.0,69.50000000000001,69.57797591781376,67.22265104482729,68.53832144539844,21.03965447241532,22.355324872986472,20
307.0,69.59999999999998,69.62242205920518,67.25955022102788,68.51587853110767,21.106543528097504,22.3628718381773,20
315.0,69.59999999999998,69.65583957685776,67.4489643061223,68.59560611572235,21.06023346113541,22.206875270735452,20
325.0,69.7,69.66768347817137,67.71036444902671,68.7159254920373,20.95175798613407,21.957319029144656,20
335.0,69.8,69.59053496374992,67.48770769227009,68.51791948604027,21.072615477709647,22.102827271479825,20
345.0,69.89999999999999,69.45784768153645,66.74625780759133,68.02283248591952,21.435015195616927,22.711589873945115,20
355.0,69.89999999999999,69.39221492117285,66.0377337599741,67.60138494646833,21.790829974704522,23.35448116119875,20
365.0,70.0,69.45145493805695,65.61115357059913,67.44459865329617,22.006856284760786,23.840301367457826,20
375.0,70.0,69.51229656397017,65.21287867842635,67.28409204166539,22.22820452230478,24.299417885543818,20
387.0,70.1,69.584148791393,64.89209366739857,67.1611359967919,22.423012794601107,24.692055123994436,20
400.0,70.1,69.6243500871198,64.52839898315007,66.97956348925197,22.64478659786782,25.095951103969725,20
412.0,70.0,69.62960656115293,64.30904955521392,66.8909118349842,22.73869472616873,25.32055700593901,20
425.0,70.0,69.62548249944221,64.28479899263961,66.94105863591018,22.684423863532032,25.340683506802606,20
437.0,69.8,69.57495759307078,64.39809905042517,66.98258236275869,22.592375230312086,25.176858542645604,20
450.0,69.7,69.49506220537297,64.53826775275317,66.97437917486725,22.520683030505722,24.956794452619803,20
462.0,69.50000000000001,69.34979815121282,64.33572658912759,66.76555783860749,22.58424031260533,25.014071562085235,20
475.0,69.4,69.09609886982062,63.963342790298796,66.46989855694147,22.62620031287915,25.132756079521826,20
487.0,69.2,68.8414342834443,63.669871313304654,66.16828592190713,22.673148361537173,25.171562970139647,20
500.0,69.1,68.66282856233796,63.30540672451963,65.89701819135088,22.765810370987083,25.357421837818336,20
515.0,69.1,68.58653077708807,62.96414058552604,65.68156926309635,22.904961513991722,25.622390191562033,20
530.0,69.1,68.55586026333214,62.68928971115935,65.48715945204182,23.068700811290313,25.86657055217279,20
545.0,69.2,68.59330769248743,62.337689280011205,65.23204473113496,23.361262961352466,26.255618412476224,20
560.0,69.2,68.65509655986357,61.97090885057054,65.06301751392238,23.59207904594119,26.684187709293028,20
580.0,69.2,68.7537421482575,61.89454853279945,65.22962789144489,23.52411425681261,26.859193615458054,20
600.0,69.2,68.86657413305599,62.306824529477495,65.6218824257868,23.244691707269197,26.559749603578496,20
615.0,69.3,68.94221233439923,62.71654558760923,65.83071588197663,23.1114964524226,26.225666746789997,20
630.0,69.4,69.03401895001012,63.13245833343153,66.0780235804075,22.95599536960262,25.901560616578593,20
650.0,69.50000000000001,69.11694016195607,63.45475142393725,66.30076052143373,22.816179640522336,25.662188738018813,20
670.0,69.59999999999998,69.0825743057984,63.38088408623237,66.23053440119047,22.852039904607935,25.701690219566032,20
690.0,69.7,68.97764013334061,63.0713419105206,65.98743814701164,22.99020198632897,25.906298222820013,20
710.0,69.8,69.16072535770746,63.264409899235574,66.1747613361404,22.985964021567057,25.89631545847189,20
730.0,69.89999999999999,69.42419768807292,63.75010879346026,66.62113149775695,22.803066190315974,25.674088894612666,20
750.0,69.8,69.41370930332775,63.793433306032085,66.64667306106004,22.767036242267707,25.620275997295664,20
775.0,69.7,69.21691431950974,63.261425387448995,66.35297794006145,22.86393637944829,25.955488932060746,20
800.0,69.7,69.1515881095565,63.360372109929514,66.56102292322863,22.590565186327865,25.791215999626985,20
825.0,69.59999999999998,69.0711377263563,63.65847734346049,66.73872326496702,22.332414461389277,25.412660382895808,20
850.0,69.59999999999998,68.9139465147638,63.311495748759015,66.42283133564592,22.49111517911787,25.60245076600478,20
875.0,69.59999999999998,68.92160376953208,63.14674002915406,66.20780222915245,22.713801540379635,25.774863740378024,20
900.0,69.59999999999998,68.99885779619092,63.1497849055022,66.12849359659998,22.870364199590938,25.849072890688717,20
925.0,69.59999999999998,68.98234710116238,62.92056872826696,65.94474871445843,23.037598386703948,26.061778372895418,20
950.0,69.59999999999998,68.99850991595343,63.00312241301657,65.95726485034196,23.041245065611477,25.995387502936865,20
975.0,69.50000000000001,68.7795149805981,62.64018671778,65.61709138809721,23.162423592500886,26.139328262818097,20
1000.0,69.50000000000001,69.04612858413637,62.96357769690677,65.91106749902096,23.13506108511541,26.0825508872296,20
1030.0,69.50000000000001,68.96002872798702,63.090996278022104,65.91668463237775,23.04334409560927,25.86903244996492,20
1060.0,69.50000000000001,68.79996263679416,62.52586132492006,65.48625540349904,23.31370723329512,26.274101311874105,20
1090.0,69.59999999999998,68.92410490977322,62.70518720973999,65.60036068764512,23.3237442221281,26.21891770003323,20
1120.0,69.7,68.93050014229658,62.802187347945306,65.60917522279627,23.321324919500313,26.128312794351274,20
1150.0,69.89999999999999,69.03566688014408,62.305490800950196,65.48155145231682,23.554115427827256,26.730176079193882,20
1180.0,70.0,69.18017328735574,62.37865741076803,65.61010254430687,23.570070743048873,26.801515876587715,20
1220.0,70.0,69.29866694727308,62.74682787015509,65.97133708593944,23.327329861333638,26.55183907711799,20
1250.0,69.89999999999999,68.88128621474037,61.94702126252999,65.34350454961519,23.53778166512518,26.934264952210384,20
1280.0,69.7,68.90463281546077,62.09399221388597,65.50833557596518,23.396297239495595,26.810640601574804,20
1320.0,69.50000000000001,68.59690332321945,61.71692241670101,65.07074581281474,23.526157510404715,26.87998090651844,20
1360.0,69.50000000000001,68.56253316526308,61.57382725845282,64.92459629894601,23.637936866317062,26.988705906810253,20
1400.0,69.50000000000001,68.63351605466357,61.42564111987184,64.8336026500126,23.79991340465098,27.207874934791732,20
1450.0,69.50000000000001,68.54447452788354,61.20299996101939,64.62147540472205,23.92299912316149,27.34147456686415,20
1500.0,69.4,68.73422931135222,61.48296590269955,64.86582931544343,23.86839999590879,27.251263408652676,20
1550.0,69.3,68.63794662846203,60.96509095133899,64.34565380271239,24.29229282574964,27.67285567712304,20
1600.0,69.50000000000001,69.06774028217829,61.63568532909176,64.99195430766088,24.075785974517416,27.432054953086535,20
1650.0,69.59999999999998,69.09624854818968,61.27056163670122,64.76675635365287,24.32949219453681,27.82568691148846,20
1700.0,69.7,69.32206483036005,61.530292849368806,64.96571718518611,24.35634764517394,27.791771980991243,20
1750.0,69.7,69.18161307362932,61.17429515509603,64.49861823424422,24.682994839385103,28.00731791853329,20
1800.0,69.59999999999998,69.21982596260263,61.179752231559235,64.47847918261418,24.741346779988447,28.040073731043393,20
1850.0,69.50000000000001,69.17573579447713,60.78591157466407,63.993781232824674,25.18195456165246,28.389824219813065,20
1900.0,69.4,69.18281885994664,61.204170708237214,64.17895690475407,25.003861955192562,27.97864815170942,20
1950.0,69.4,69.02619107218388,60.7341608633907,63.8736479384703,25.15254313371358,28.29203020879318,20
2000.0,69.50000000000001,69.34144862968574,61.34874700345239,64.42698328341005,24.91446534627569,27.992701626233355,20
2060.0,69.7,69.42421381191366,61.208124135387536,64.44150057000257,24.982713241911085,28.216089676526124,20
2120.0,69.8,69.28292292380918,61.058613870843274,64.3027781397105,24.980144784098684,28.224309052965907,20
2180.0,69.7,69.43937348388894,61.30968075045588,64.65996382329688,24.779409660592066,28.12969273343306,20
2240.0,69.7,69.13845396243718,60.76857199077641,64.30810649291736,24.830347469519822,28.369881971660774,20
2300.0,69.7,68.87741615209481,60.56351702311464,64.07930110756584,24.79811504452897,28.313899128980168,20
2360.0,69.59999999999998,68.99559665969657,60.90211311355792,64.3264107941212,24.669185865575372,28.093483546138657,20
2400.0,69.59999999999998,68.82984875742478,60.700056687407155,64.16579942148988,24.664049335934905,28.12979207001763,20
2500.0,69.50000000000001,68.78502958933753,60.64571007025502,64.07471241325997,24.710317176077552,28.139319519082505,20
2580.0,69.50000000000001,68.54096519614994,60.53802525651649,63.90763554088859,24.63332965526135,28.00293993963345,20
2650.0,69.50000000000001,68.70184891151207,60.7151029769783,64.15615651510437,24.545692396407702,27.986745934533772,20
2720.0,69.8,68.98844915760137,61.23882062633528,64.60533828115184,24.38311087644952,27.749628531266083,20
2800.0,69.89999999999999,68.94056057411113,61.32509742135932,64.70898914664237,24.231571427468765,27.615463152751815,20
2900.0,69.59999999999998,68.6774326270326,61.29956550805376,64.71688566803213,23.960546959000467,27.37786711897884,20
3000.0,69.59999999999998,68.61178484289405,61.48387856413187,64.85140542405902,23.76037941883503,27.127906278762183,20
3070.0,69.59999999999998,68.59906375199955,61.257169001482865,64.84347787531756,23.75558587668199,27.341894750516687,20
3150.0,69.59999999999998,68.47189256865416,61.39085713901268,64.89980937801782,23.572083190636334,27.081035429641474,20
3250.0,69.4,68.33018173979296,60.769572561722256,64.63561698254931,23.694564757243654,27.560609178070706,20
3350.0,69.7,68.5293983608148,61.17152449083487,64.90202029379269,23.627378067022107,27.357873869979926,20
3450.0,70.1,69.01415328569976,61.554072654751295,65.3248509884771,23.689302297222667,27.460080630948468,20
3550.0,70.4,69.3348670814456,61.719441139168154,65.63570299423593,23.699164087209667,27.61542594227744,20
3650.0,70.5,69.40052618295056,61.66206694664261,65.75531014364873,23.64521603930183,27.738459236307946,20
3750.0,70.4,69.35700906143303,61.44993625293702,65.56728688178575,23.789722179647285,27.90707280849601,20
3870.0,69.8,68.68159068103061,60.874201435702915,64.95994301627883,23.721647664751785,27.8073892453277,20
4000.0,69.59999999999998,68.36832310042085,60.54788893041113,64.75129985435363,23.61702324606722,27.82043417000972,20
