Freq,On Axis,Listening Window,Sound Power,Early Reflections,Early Reflections DI,Sound Power DI,DI offset
22.4,46.999999999999986,45.356640443621174,49.655042398298534,47.56364056057082,37.792999883050356,35.70159804532264,40
23.0,47.89999999999999,46.88298607995783,50.5932168623432,48.671349417922485,38.211636662035346,36.289769217614634,40
23.6,48.8,48.286746720812786,51.60850554609654,49.86706507301024,38.41968164780255,36.67824117471625,40
24.0,49.3,49.39797440868897,53.012621617148156,51.518968968780186,37.87900543990878,36.38535279154081,40
25.0,49.89999999999999,50.3084619906236,54.11993985549374,52.77999870721298,37.528463283410616,36.18852213512986,40
25.8,50.7,50.93904627174307,54.39698594932484,53.103537677171474,37.83550859457159,36.54206032241822,40
26.5,51.499999999999986,51.46413088351231,54.425294878079896,53.18223848617161,38.2818923973407,37.038836005432415,40
27.2,52.60000000000001,52.314565917933734,54.08341394179358,53.16196657007045,39.15259934786329,38.231151976140154,40
28.0,53.499999999999986,53.0377587522966,53.5770675580785,53.066154042501594,39.971604709795,39.4606911942181,40
29.0,53.999999999999986,53.47191612053159,53.145230017828894,52.985346482603106,40.48656963792848,40.326686102702695,40
30.0,54.10000000000001,53.55274901962282,52.626936150125076,52.749125233268316,40.80362378635451,40.92581286949775,40
30.7,53.39999999999999,52.946218111319254,51.915596056576035,52.171597004112314,40.77462110720694,41.03062205474322,40
31.5,52.60000000000001,52.19308741202944,51.09595362737052,51.42262892238027,40.77045848964917,41.09713378465892,40
32.5,51.8,51.39308741202943,50.39377746962826,50.72694641435599,40.66614099767344,40.99930994240117,40
33.5,52.8,52.47548435621876,51.26106863905544,51.77003699032677,40.705447365891985,41.21441571716332,40
34.5,54.89999999999999,54.76971018796762,53.21694240773651,53.89325046062264,40.87645972734498,41.55276778023111,40
35.5,57.39999999999999,57.29027257090358,55.526415765563186,56.29736068295607,40.992911887947514,41.763856805340396,40
36.5,59.39999999999999,59.33409756292208,57.49512265651343,58.332091590356825,41.00200597256526,41.83897490640865,40
37.5,61.10000000000001,60.945494479198786,58.967153413675035,59.89350086738712,41.05199361181167,41.97834106552375,40
38.7,62.3,62.14701360926959,60.01452240684823,61.04064652959373,41.10636707967586,42.13249120242136,40
40.0,63.2,63.02621015383258,60.78146186711051,61.89367826666434,41.13253188716824,42.24474828672207,40
41.2,64.6,64.38127710423244,62.1367717670813,63.27060893092231,41.11066817331013,42.24450533715114,40
42.5,66.0,65.78127710423244,63.59126925649056,64.70498843848164,41.07628866575081,42.19000784774188,40
43.7,67.50000000000001,67.28127710423243,65.1952140367981,66.23763959450773,41.043637509724704,42.086063067434324,40
45.0,68.90000000000002,68.74701360926962,66.74891721949352,67.73897802388508,41.00803558538453,41.998096389776094,40
46.2,70.00000000000001,69.86971018796763,67.90618123677126,68.89482916979325,40.97488101817437,41.963528951196366,40
47.5,71.10000000000001,70.92621015383257,68.92598137638001,69.92531239876423,41.00089775506834,42.00022877745256,40
48.7,72.3,72.08127710423244,70.0506158652151,71.07084171426533,41.010435389967114,42.03066123901735,40
50.0,73.4,73.24901542823474,71.24454357383269,72.24155672490593,41.00745870332881,42.004471854402055,40
51.5,74.5,74.30431892369502,72.36040481535623,73.33329565156538,40.97102327212964,41.94391410833879,40
53.0,75.6,75.36063752019827,73.35737192581108,74.34787794729446,41.0127595729038,42.00326559438719,40
54.5,76.49999999999999,76.28127710423244,74.24492568456105,75.25741296902662,41.02386413520583,42.03635141967139,40
56.0,77.4,77.18127710423244,75.06472772813693,76.12005814067537,41.06121896355707,42.116549376095506,40
58.0,78.0,77.86971018796761,75.70919156472114,76.79764945042454,41.07206073754307,42.160518623246475,40
60.0,78.5,78.28127710423244,76.0951350985155,77.20470780778781,41.07656929644463,42.186142005716945,40
61.5,78.7,78.48127710423245,76.27149601871157,77.39069507874851,41.09058202548394,42.20978108552087,40
63.0,78.7,78.48127710423245,76.269163924237,77.38627390763571,41.095003196596736,42.21211317999544,40
65.0,78.7,78.48127710423245,76.23489718923825,77.36415955140845,41.117117552824,42.24637991499419,40
67.0,78.7,78.56971018796762,76.2572882370906,77.41335286990508,41.15635731806253,42.31242195087701,40
69.0,78.8,78.60328449402552,76.30085506403819,77.4676600511756,41.13562444284992,42.30242942998733,40
71.0,78.90000000000002,78.68127710423244,76.33187196827859,77.51228722809775,41.16898987613469,42.349405135953845,40
73.0,78.90000000000002,78.74901542823476,76.36326853927388,77.54454834416084,41.20446708407391,42.38574688896088,40
75.0,78.99999999999999,78.82621015383258,76.46026097299375,77.64420912738898,41.1820010264436,42.365949180838825,40
77.5,79.2,78.98127710423243,76.58097979572169,77.78279271358811,41.198484390644325,42.400297308510744,40
80.0,79.4,79.24901542823474,76.73983359646127,77.99305340278251,41.255962025452234,42.509181831773475,40
82.5,79.6,79.44901542823474,76.94021519961854,78.21834109862034,41.2306743296144,42.50880022861621,40
85.0,79.9,79.74901542823476,77.20143656736555,78.48873205877611,41.26028336945865,42.54757886086921,40
87.5,80.2,80.04901542823474,77.47187574912853,78.77240398170574,41.276611446529,42.57713967910621,40
90.0,80.5,80.34901542823474,77.80484154428795,79.07859660939945,41.27041881883528,42.54417388394678,40
92.5,80.8,80.62869601737451,78.08661417461539,79.35127128847131,41.2774247289032,42.54208184275912,40
95.0,81.2,80.94037254002035,78.31586225138554,79.60682811605022,41.333544423970125,42.62451028863481,40
97.5,81.49999999999999,81.24037254002035,78.47468756475236,79.84243166872956,41.397940871290785,42.76568497526799,40
100.0,81.8,81.51855276047125,78.60140851373716,80.06061478965199,41.45793797081926,42.9171442467341,40
103.0,82.0,81.74037254002035,78.70713983335115,80.23576156785482,41.50461097216552,43.033232706669196,40
106.0,82.2,81.89855684849736,78.79442796050064,80.37649719475651,41.522059653740854,43.10412888799672,40
109.0,82.3,82.04037254002034,78.85759396913967,80.47789867139853,41.56247386862181,43.18277857088067,40
112.0,82.4,82.18676720294032,78.87675331008042,80.53741685512382,41.649350347816494,43.3100138928599,40
115.0,82.59999999999998,82.27548435621877,78.85574246833578,80.58541454543798,41.690069810780784,43.41974188788299,40
118.0,82.7,82.37548435621876,78.83777023284775,80.63444583623699,41.74103851998177,43.53771412337102,40
122.0,82.8,82.45574945230594,78.86600159185478,80.69876577961686,41.756983672689074,43.589747860451155,40
125.0,82.89999999999999,82.57892674764837,78.93092450751378,80.78817120697647,41.790755540671896,43.64800224013459,40
128.0,83.0,82.67892674764835,78.99279289525857,80.88159777707448,41.79732897057387,43.68613385238977,40
132.0,83.1,82.7573002954609,79.05233256275066,80.95893572998038,41.79836456548051,43.70496773271023,40
136.0,83.1,82.77892674764836,79.02461472365144,80.97579095650237,41.80313579114599,43.75431202399692,40
140.0,83.2,82.79101239693367,78.9152739864858,80.94573789125702,41.84527450567664,43.875738410447866,40
145.0,83.1,82.75965737756461,78.7621459638355,80.88596480234104,41.87369257522357,43.997511413729114,40
150.0,83.1,82.73793451608317,78.6262253181636,80.81989789788916,41.91803661819401,44.111709197919566,40
155.0,83.0,82.7025165542995,78.57092310667863,80.79242081903875,41.910095735260754,44.13159344762087,40
160.0,83.1,82.69542515610898,78.59952199210043,80.7994379343315,41.89598722177749,44.09590316400855,40
165.0,83.1,82.78335179759365,78.70118530848782,80.88568049223203,41.89767130536163,44.08216648910583,40
170.0,83.3,82.91892575904012,78.81101152078332,80.99720327022223,41.92172248881789,44.1079142382568,40
175.0,83.5,83.11892575904014,78.90679133292838,81.15302307207087,41.96590268696927,44.21213442611176,40
180.0,83.8,83.40026896530439,79.0528697512322,81.38068184462858,42.01958712067581,44.3473992140722,40
185.0,84.2,83.75502917746158,79.29053073277134,81.7063640116,42.04866516586158,44.464498444690236,40
190.0,84.6,84.15502917746159,79.60013371842966,82.07117953237952,42.08384964508207,44.554895459031925,40
195.0,85.09999999999998,84.63652716646841,79.99693813585051,82.5006898091723,42.13583735729611,44.6395890306179,40
200.0,85.5,84.9969393950779,80.17027131511354,82.76212729807287,42.23481209700503,44.826668079964364,40
206.0,85.6,85.09693939507791,79.97989839228755,82.71684088563636,42.38009850944155,45.11704100279036,40
212.0,85.7,85.17903341354533,79.82278298599807,82.68272176198643,42.4963116515589,45.35625042754725,40
218.0,85.8,85.21575463885948,79.72074900021711,82.66892562734998,42.5468290115095,45.49500563864237,40
224.0,85.9,85.35476134571574,79.85084313479236,82.81801397566957,42.53674737004617,45.50391821092339,40
230.0,86.3,85.71575463885948,80.23562908972725,83.19792433635509,42.51783030250439,45.480125549132225,40
236.0,86.6,86.0402450749879,80.50085856414792,83.48604016748331,42.554204907504584,45.539386510839975,40
240.0,86.8,86.2229214622978,80.55322878958717,83.61146420398849,42.611457258309315,45.66969267271064,40
250.0,86.9,86.28123986840863,80.47349503664559,83.62444352763174,42.65679634077689,45.807744831763046,40
258.0,86.9,86.21879374949056,80.29443433692323,83.50465890877442,42.71413484071614,45.92435941256733,40
265.0,86.9,86.26447070944684,80.22513809903934,83.47157250427934,42.7928982051675,46.0393326104075,40
272.0,87.3,86.61879374949056,80.4688196273561,83.7393929663897,42.87940078310086,46.149974122134466,40
280.0,87.7,86.98114934275881,80.71082455103165,83.99381368920673,42.98733565355208,46.27032479172716,40
290.0,88.1,87.36476227529162,80.91896689322898,84.2592782243682,43.10548405092342,46.44579538206264,40
300.0,88.2,87.44868826265169,80.82108589876317,84.27276056924694,43.175927693404745,46.62760236388851,40
307.0,88.0,87.16203057096702,80.28105498852827,83.90550053826037,43.25653003270665,46.88097558243875,40
315.0,87.4,86.64868826265169,79.57135869406441,83.33008395600889,43.3186043066428,47.077329568587274,40
325.0,86.8,86.0278928467797,78.80235168953374,82.63128002827612,43.39661281850357,47.22554115724596,40
335.0,86.10000000000001,85.28682497723624,77.97096714183822,81.8426612131754,43.44416376406083,47.31585783539802,40
345.0,85.2,84.4120512251581,77.0772914853719,80.91151191503464,43.50053931012346,47.33475973978619,40
355.0,84.6,83.7711972531688,76.37631128464227,80.21863692277735,43.552560330391444,47.39488596852652,40
365.0,84.5,83.6711972531688,76.19313077666737,80.05778267970497,43.61341457346383,47.478066476501425,40
375.0,85.3,84.36950081434087,76.76679275677542,80.68503696862574,43.68446384571513,47.60270805756545,40
387.0,86.7,85.74461016530766,77.97757862900835,82.00177004126931,43.74284012403835,47.767031536299314,40
400.0,88.2,87.25577656490101,79.32437205427097,83.4732818857589,43.78249467914212,47.931404510630045,40
412.0,89.2,88.15574339399976,80.08671327403125,84.35259794851093,43.80314544548882,48.0690301199685,40
425.0,89.2,88.18174033481353,80.04351195769952,84.36602448354988,43.81571585126365,48.138228377114004,40
437.0,88.5,87.48174033481352,79.24947019605078,83.58238755434114,43.899352780472384,48.23227013876274,40
450.0,87.59999999999998,86.5216853230103,78.16853978984393,82.49385057693448,44.027834746075825,48.35314553316637,40
462.0,87.0,85.86181814007902,77.41189979509137,81.72835744155881,44.13346069852021,48.44991834498765,40
475.0,87.0,85.8357013106082,77.27047460125745,81.62020633717482,44.21549497343338,48.56522670935075,40
487.0,87.7,86.52285231322408,77.78339156086169,82.20677653772863,44.31607577549545,48.73946075236239,40
500.0,88.7,87.41906907987827,78.56427490999279,83.07097031810629,44.34809876177198,48.85479416988548,40
515.0,89.3,87.95630886626707,78.95697360963655,83.51731827531928,44.43899059094778,48.999335256630516,40
530.0,88.90000000000002,87.54464750819088,78.47510116027084,83.04150857450203,44.503138933688845,49.06954634792004,40
545.0,87.89999999999999,86.43743567838035,77.16612607836039,81.80792774152077,44.62950793685958,49.27130960001996,40
560.0,86.7,85.26476860587452,75.8066053633311,80.48846340395677,44.77630520191775,49.45816324254342,40
580.0,85.9,84.4432678567895,74.87371863259693,79.62949980590571,44.813768050883795,49.56954922419257,40
600.0,85.7,84.14684036111336,74.46671469794833,79.26626991225346,44.8805704488599,49.68012566316503,40
615.0,85.9,84.21517214057577,74.54030471633517,79.33942826289044,44.87574387768534,49.6748674242406,40
630.0,85.8,84.05131923121363,74.39541261969877,79.14849993047586,44.90281930073776,49.65590661151485,40
650.0,85.6,83.78775395182726,74.1452949207911,78.83362335707386,44.954130594753394,49.642459031036154,40
670.0,85.5,83.57873494379028,74.00610189901904,78.64852607241322,44.93020887137706,49.57263304477124,40
690.0,85.5,83.54487151109363,73.95727052669709,78.56531614468568,44.97955536640795,49.587600984396545,40
710.0,85.6,83.59158040548732,74.08480889517655,78.62408120423719,44.967499201250135,49.50677151031077,40
730.0,85.7,83.70322337492755,74.16283633544155,78.70890653854006,44.99431683638748,49.54038703948599,40
750.0,85.9,83.75983753925895,74.12173767605468,78.71123336682379,45.04860417243516,49.638099863204275,40
775.0,85.8,83.58364913265832,73.96715461306398,78.55121593628706,45.03243319637126,49.61649451959434,40
800.0,85.6,83.28877114719509,73.69327012712277,78.30835703724249,44.980414109952605,49.59550102007232,40
825.0,85.39999999999999,83.17805271761615,73.5869591302606,78.20388425142613,44.97416846619002,49.59109358735556,40
850.0,85.3,83.24585665954918,73.74476992135334,78.33883158093572,44.90702507861346,49.50108673819584,40
875.0,85.6,83.55450193984795,74.01798523978965,78.66430420364705,44.8901977362009,49.5365167000583,40
900.0,86.0,83.95450193984796,74.32826918963852,79.02291906507631,44.93158287477165,49.62623275020944,40
925.0,86.3,84.21024722019321,74.53755964331963,79.25901962344223,44.95122759675098,49.672687576873585,40
950.0,86.6,84.4564211026002,74.60652797457801,79.41352528074268,45.04289582185753,49.84989312802219,40
975.0,86.9,84.66619025928289,74.60460736935504,79.48902381690489,45.177166442377995,50.06158288992785,40
1000.0,87.2,84.83289858514495,74.66955865377875,79.63656659482629,45.196331990318654,50.163339931366195,40
1030.0,87.3,84.86518509893403,74.67968912301818,79.67946839930394,45.18571669963009,50.185495975915856,40
1060.0,87.3,84.8144675282965,74.66683049730888,79.68041611574033,45.134051412556175,50.147637030987624,40
1090.0,87.1,84.59282748809117,74.59199492162078,79.5708443310509,45.02198315704027,50.00083256647039,40
1120.0,86.7,84.29836099118903,74.36832155935058,79.32166432261403,44.976696668575,49.93003943183845,40
1150.0,86.10000000000001,83.81796730692326,74.06434810381353,78.97228972890719,44.84567757801608,49.753619203109736,40
1180.0,85.39999999999999,83.34266105162021,73.77128921683685,78.62922133280846,44.713439718811756,49.57137183478336,40
1220.0,84.7,82.90137526034728,73.4807587008041,78.33323408249724,44.56814117785004,49.42061655954318,40
1250.0,84.2,82.57754760076458,73.10634481674225,77.99273052484614,44.58481707591844,49.471202784022324,40
1280.0,83.90000000000002,82.35895903315848,72.65372906256641,77.62063872932997,44.738320303828516,49.70522997059207,40
1320.0,83.8,82.22715443975805,72.22167027026622,77.27787300904374,44.94928143071431,50.00548416949184,40
1360.0,83.90000000000002,82.15188965972307,71.91640719417519,77.06054040783765,45.09134925188542,50.235482465547875,40
1400.0,83.90000000000002,82.14932429184933,71.78566983644721,76.94972939263779,45.19959489921153,50.36365445540211,40
1450.0,84.1,82.26952325857046,71.77622427843109,76.97823009529402,45.291293163276436,50.49329898013937,40
1500.0,84.5,82.5418504193013,71.79591897246388,77.09645901328953,45.445391406011765,50.74593144683742,40
1550.0,85.2,82.98977617584656,71.73117071836826,77.20291628850435,45.7868598873422,51.258605457478296,40
1600.0,85.9,83.34901924218734,71.69239746137106,77.33895490504656,46.010064337140776,51.65662178081628,40
1650.0,86.2,83.52003711592711,71.78917339617591,77.48240555450526,46.03763156142185,51.7308637197512,40
1700.0,86.2,83.50669669080769,71.89349005018839,77.53642930276638,45.97026738804131,51.613206640619296,40
1750.0,85.8,83.29696571197361,72.10396473180315,77.60710440418542,45.68986130778819,51.19300098017047,40
1800.0,85.39999999999999,83.19959450461614,72.44659845359932,77.79795683995167,45.40163766466448,50.75299605101682,40
1850.0,85.39999999999999,83.38782647803816,72.84708124110516,78.11936773180189,45.26845874623628,50.540745236933006,40
1900.0,85.6,83.70308415170409,73.3231889156503,78.54863778827243,45.15444636343166,50.379895236053784,40
1950.0,85.6,83.83233432977275,73.69337822803584,78.83658777144467,44.99574655832808,50.13895610173691,40
2000.0,85.5,83.95776442585333,73.93635403966928,79.03454395840514,44.92322046744819,50.021410386184044,40
2060.0,85.6,84.12454126992561,73.98235978592153,79.0953785877173,45.02916268220831,50.142181484004084,40
2120.0,85.8,84.25794302905753,73.92811329040138,79.08169618782951,45.17624684122802,50.329829738656144,40
2180.0,85.8,84.20122760271929,73.75170180507529,78.92678123163192,45.274446371087365,50.449525797644,40
2240.0,85.6,83.89767175146115,73.47783709625706,78.65564798987646,45.24202376158469,50.419834655204085,40
2300.0,85.2,83.38052331462161,72.99103205308857,78.19265499083308,45.187868323788535,50.38949126153304,40
2360.0,84.9,82.88065385354572,72.25369868453623,77.5476415011231,45.33301235242263,50.62695516900949,40
2400.0,84.8,82.48731224984928,71.36677657244701,76.81786252466485,45.669449725184435,51.12053567740227,40
2500.0,84.9,82.15744000387221,70.53335543294337,76.16444706856755,45.992992935304656,51.624084570928844,40
2580.0,84.6,81.6687920784713,69.79296138999266,75.51598867173918,46.15280340673212,51.87583068847864,40
2650.0,84.2,81.2188159551822,69.2662845269646,75.01156036982965,46.20725558535254,51.9525314282176,40
2720.0,84.3,81.2229254672163,69.258816074865,75.00507389585984,46.21785157135646,51.964109392351304,40
2800.0,84.3,81.29665947186523,69.49629068586572,75.18046393965604,46.11619553220919,51.80036878599951,40
2900.0,84.5,81.57767935074878,69.98775972903731,75.57812851013101,45.99955084061777,51.58991962171147,40
3000.0,84.9,82.1573738353314,70.80168038013015,76.31454351074929,45.84283032458211,51.35569345520125,40
3070.0,85.3,82.69678666352893,71.53041181029334,77.0193499567358,45.67743670679313,51.16637485323558,40
3150.0,86.2,83.55473779347157,72.35681866946625,77.90876141647959,45.64597637699198,51.197919124005324,40
3250.0,87.3,84.50634070916384,73.19866970672662,78.85797855184039,45.64836215732345,51.30767100243722,40
3350.0,88.1,85.179197129243,73.87683011607191,79.59447107376559,45.584726055477404,51.30236701317108,40
3450.0,88.8,85.77837655776796,74.52627248503379,80.24608170411302,45.53229485365493,51.25210407273417,40
3550.0,89.2,86.08770065011383,74.92295838684639,80.62437603479204,45.463324615321795,51.16474226326744,40
3650.0,89.1,86.04213914431912,75.08246358570501,80.69376833268812,45.348370811631,50.95967555861411,40
3750.0,88.99999999999999,86.02862604143193,75.25079551642635,80.78933566225632,45.239290379175614,50.777830525005584,40
3870.0,88.8,85.96892143222686,75.35213750764312,80.81517122578721,45.15375020643965,50.61678392458374,40
4000.0,88.4,85.86641507215448,75.42762669230518,80.79801975459137,45.068395317563116,50.4387883798493,40
4120.0,88.4,85.98269477436169,75.52840240134606,80.87914346494561,45.103551309416076,50.45429237301563,40
4250.0,88.5,86.0374790164203,75.47811521186675,80.84960724296768,45.18787177345263,50.559363804553556,40
4370.0,88.4,85.80696654991743,75.29464655589854,80.6583355256541,45.14863102426334,50.512319994018895,40
4500.0,88.1,85.45787989473284,75.03784354218244,80.38923372377288,45.068646170959966,50.4200363525504,40
