Freq "Sound Power"
22.4 49.65504239829855
23.0 50.59321686234318
23.6 51.60850554609655
24.0 53.01262161714817
25.0 54.119939855493726
25.8 54.39698594932486
26.5 54.42529487807988
27.2 54.083413941793566
28.0 53.57706755807848
29.0 53.14523001782891
30.0 52.62693615012509
30.7 51.91559605657605
31.5 51.095953627370534
32.5 50.393777469628276
33.5 51.26106863905542
34.5 53.216942407736525
35.5 55.52641576556317
36.5 57.495122656513445
37.5 58.96715341367502
38.7 60.01452240684824
40.0 60.781461867110494
41.2 62.136771767081285
42.5 63.59126925649058
43.7 65.1952140367981
45.0 66.7489172194935
46.2 67.90618123677127
47.5 68.92598137638001
48.7 70.05061586521508
50.0 71.24454357383267
51.5 72.36040481535622
53.0 73.35737192581108
54.5 74.24492568456105
56.0 75.06472772813692
58.0 75.70919156472112
60.0 76.0951350985155
61.5 76.27149601871159
63.0 76.26916392423702
65.0 76.23489718923824
67.0 76.25728823709062
69.0 76.30085506403819
71.0 76.33187196827858
73.0 76.36326853927386
75.0 76.46026097299375
77.5 76.58097979572169
80.0 76.73983359646125
82.5 76.94021519961852
85.0 77.20143656736555
87.5 77.47187574912853
90.0 77.80484154428794
92.5 78.08661417461539
95.0 78.31586225138552
97.5 78.47468756475234
100.0 78.60140851373714
103.0 78.70713983335116
106.0 78.79442796050066
109.0 78.85759396913969
112.0 78.8767533100804
115.0 78.85574246833579
118.0 78.83777023284775
122.0 78.86600159185478
125.0 78.93092450751378
128.0 78.99279289525859
132.0 79.05233256275068
136.0 79.02461472365144
140.0 78.9152739864858
145.0 78.7621459638355
150.0 78.62622531816362
155.0 78.57092310667862
160.0 78.59952199210043
165.0 78.70118530848782
170.0 78.81101152078332
175.0 78.90679133292838
180.0 79.0528697512322
185.0 79.29053073277134
190.0 79.60013371842967
195.0 79.9969381358505
200.0 80.17027131511352
206.0 79.97989839228757
212.0 79.82278298599806
218.0 79.7207490002171
224.0 79.85084313479234
230.0 80.23562908972724
236.0 80.5008585641479
240.0 80.55322878958715
250.0 80.47349503664557
258.0 80.29443433692323
265.0 80.22513809903936
272.0 80.46881962735608
280.0 80.71082455103166
290.0 80.918966893229
300.0 80.82108589876316
307.0 80.28105498852825
315.0 79.5713586940644
325.0 78.80235168953374
335.0 77.97096714183823
345.0 77.0772914853719
355.0 76.37631128464227
365.0 76.19313077666737
375.0 76.7667927567754
387.0 77.97757862900833
400.0 79.32437205427095
412.0 80.08671327403127
425.0 80.04351195769952
437.0 79.2494701960508
450.0 78.16853978984392
462.0 77.41189979509139
475.0 77.27047460125746
487.0 77.78339156086169
500.0 78.5642749099928
515.0 78.95697360963655
530.0 78.47510116027084
545.0 77.1661260783604
560.0 75.80660536333109
580.0 74.87371863259693
600.0 74.46671469794833
615.0 74.54030471633517
630.0 74.39541261969879
650.0 74.14529492079112
670.0 74.00610189901904
690.0 73.95727052669707
710.0 74.08480889517656
730.0 74.16283633544154
750.0 74.12173767605468
775.0 73.96715461306397
800.0 73.69327012712277
825.0 73.5869591302606
850.0 73.74476992135335
875.0 74.01798523978965
900.0 74.32826918963852
925.0 74.53755964331963
950.0 74.60652797457803
975.0 74.60460736935504
1000.0 74.66955865377876
1030.0 74.67968912301816
1060.0 74.66683049730887
1090.0 74.59199492162078
1120.0 74.36832155935059
1150.0 74.06434810381353
1180.0 73.77128921683686
1220.0 73.4807587008041
1250.0 73.10634481674224
1280.0 72.65372906256641
1320.0 72.22167027026623
1360.0 71.9164071941752
1400.0 71.78566983644723
1450.0 71.7762242784311
1500.0 71.7959189724639
1550.0 71.73117071836828
1600.0 71.69239746137104
1650.0 71.78917339617591
1700.0 71.8934900501884
1750.0 72.10396473180316
1800.0 72.44659845359934
1850.0 72.84708124110516
1900.0 73.3231889156503
1950.0 73.69337822803584
2000.0 73.93635403966928
2060.0 73.98235978592152
2120.0 73.92811329040138
2180.0 73.7517018050753
2240.0 73.47783709625705
2300.0 72.99103205308859
2360.0 72.25369868453623
2400.0 71.366776572447
2500.0 70.53335543294335
2580.0 69.79296138999267
2650.0 69.26628452696458
2720.0 69.258816074865
2800.0 69.49629068586572
2900.0 69.98775972903731
3000.0 70.80168038013015
3070.0 71.53041181029333
3150.0 72.35681866946624
3250.0 73.19866970672663
3350.0 73.87683011607191
3450.0 74.52627248503379
3550.0 74.92295838684637
3650.0 75.08246358570503
3750.0 75.25079551642635
3870.0 75.35213750764314
4000.0 75.4276266923052
4120.0 75.52840240134606
4250.0 75.47811521186675
4370.0 75.29464655589854
4500.0 75.03784354218246
4620.0 74.80673853801272
4750.0 74.65943342652739
4870.0 74.80672368859844
5000.0 75.15865452810915
5150.0 75.66148276387275
5300.0 76.19068993749188
5450.0 76.48933121612028
5600.0 76.36025957168539
5800.0 75.82884422678276
6000.0 75.15042521314444
6150.0 74.46731917437896
6300.0 73.94772613419323
6500.0 73.58808602939166
6700.0 73.22132326240083
6900.0 72.87492101933788
7100.0 72.49764400892585
7300.0 72.10967669673727
7500.0 71.7115397603151
7750.0 71.35766880987359
8000.0 71.12089526998119
8250.0 71.04018524459212
8500.0 70.96989503947889
8750.0 70.75479697216213
9000.0 70.25768816342713
9250.0 69.55266368882687
9500.0 68.9169149238366
9750.0 68.55522969100214
10000.0 68.77447975202885
10300.0 69.37424948213703
10600.0 69.75286499221565
10900.0 69.45401244797654
11200.0 68.51126777608016
11500.0 67.1921752343351
11800.0 66.06056031633446
12200.0 65.42087360363213
12500.0 64.90737866116686
12800.0 64.5276061275967
13200.0 64.0345321823582
13600.0 63.6093711058805
14000.0 63.775877297768645
14500.0 63.97425923842488
15000.0 63.48015746813746
15500.0 62.566502311153414
16000.0 61.75170872341744
16500.0 61.55603193752131
17000.0 62.655491903231535
17500.0 64.68544024364184
18000.0 66.42311995052326
18500.0 66.74878136199204
19000.0 64.94640855573323
19500.0 60.89779482272573
