Freq,On Axis,Listening Window,Sound Power,Early Reflections,Early Reflections DI,Sound Power DI,DI offset
22.4,24.131645569620247,23.567950652204246,25.432118641328685,24.149199232730126,49.41875141947412,48.13583201087556,50
23.0,26.831645569620235,26.194061693974106,28.180190796424483,26.88389221404327,49.310169479930835,48.01387089754962,50
23.6,28.931645569620258,28.226547589352293,30.306327401619427,28.999372997040297,49.227174592312,47.920220187732866,50
24.0,30.831645569620264,30.118755275433273,32.46443831809833,31.061722392919023,49.05703288251425,47.65431695733494,50
25.0,32.831645569620264,32.53339423993182,36.017662049380164,34.19691619006096,48.33647804987086,46.51573219055166,50
25.8,34.53164556962025,34.54741172937915,38.66714257279776,36.62931029331244,47.918101436066706,45.88026915658139,50
26.5,35.93164556962026,36.19550280915399,40.67298156099068,38.527041523696596,47.6684612854574,45.522521248163315,50
27.2,37.23164556962027,37.661304022504,42.38773301747716,40.18354481052492,47.47775921197908,45.27357100502684,50
28.0,38.73164556962027,39.24335911046373,44.13962673231413,41.88532821497924,47.35803089548449,45.1037323781496,50
29.0,40.43164556962026,41.062804174476696,46.09531101324964,43.80664940427175,47.256154770204944,44.967493161227054,50
30.0,41.831645569620264,42.38587939811754,47.402427271215146,45.12317804097884,47.262701357138695,44.98345212690239,50
30.7,43.13164556962025,43.58121405642359,48.56046751327273,46.30219022021089,47.2790238362127,45.020746543150864,50
31.5,45.23164556962027,45.491116956673466,50.468786951679164,48.23199370728895,47.259123249384515,45.0223300049943,50
32.5,46.73164556962027,46.98641826718665,51.918550085810125,49.70500044117708,47.28141782600957,45.067868181376525,50
33.5,48.13164556962025,48.252729651162724,53.154633472483795,50.96497045484918,47.287759196313544,45.09809617867893,50
34.5,49.831645569620264,49.769642196570715,54.50596003928726,52.39844527032935,47.37119692624137,45.263682157283455,50
35.5,51.43164556962026,51.04876218697365,55.52025934881806,53.566752801376964,47.48200938559668,45.52850283815559,50
36.5,53.03164556962025,52.410307906118476,56.610626200039036,54.815757701434165,47.59455020468431,45.79968170607944,50
37.5,54.63164556962025,53.85990365421708,57.89090756257747,56.21607791005769,47.643825744159386,45.96899609163961,50
38.7,56.53164556962025,55.62496266168833,59.42062933287255,57.8761979998209,47.748764661867426,46.20433332881578,50
40.0,58.53164556962025,57.907858578255315,60.3274820852192,59.418423854745754,48.48943472350956,47.58037649303611,50
41.2,60.63164556962025,60.16285730432111,61.3584678593173,61.119556857384964,49.04330044693614,48.80438944500381,50
42.5,63.03164556962025,62.73053410345025,63.10295276652698,63.351541366096995,49.37899273735326,49.62758133692327,50
43.7,65.83164556962024,65.59243998336325,65.40100518658974,66.01650715032224,49.57593283304101,50.19143479677351,50
45.0,68.23164556962027,68.0852643472393,67.22270774782544,68.08113280872615,50.00413153851315,50.862556599413864,50
46.2,70.23164556962027,70.13551878350495,68.77511817417894,69.79581590824964,50.33970287525531,51.36040060932601,50
47.5,71.83164556962024,71.81143943665762,70.15420914638511,71.25995115612685,50.551488280530776,51.65723029027251,50
48.7,73.53164556962025,73.48799617087634,71.62862909484099,72.7943296971211,50.69366647375524,51.859367076035355,50
50.0,75.13164556962028,75.06574313254238,72.99832360937684,74.13350671398632,50.93223641855606,52.06741952316554,50
51.5,76.73164556962026,76.62166754250103,74.41925314396313,75.52141129695764,51.10025624554339,52.2024143985379,50
53.0,78.23164556962026,78.1438859164715,75.88959292957736,76.98227799308069,51.16160792339082,52.25429298689414,50
54.5,79.83164556962026,79.68926478114619,77.26005153167793,78.43010521220619,51.25915956894001,52.42921324946826,50
56.0,81.83164556962025,81.59028662196054,79.0036089126199,80.25530190292221,51.33498471903833,52.58667770934065,50
58.0,83.53164556962025,83.34592124190713,80.67938193091973,81.982302298398,51.36361894350914,52.6665393109874,50
60.0,85.23164556962024,84.96879515330802,82.04786092533593,83.47059542088708,51.49819973242094,52.9209342279721,50
61.5,86.93164556962026,86.71344853170031,83.63714676979339,85.14234724065003,51.57110129105028,53.07630176190692,50
63.0,88.93164556962026,88.65838223003358,85.50783472002132,87.06855778838083,51.58982444165275,53.15054751001226,50
65.0,90.93164556962026,90.74666893852982,87.48095135180264,89.12300684374149,51.62366209478833,53.26571758672718,50
67.0,93.03164556962025,92.75838223003356,89.46341702549097,91.15143495246039,51.60694727757317,53.29496520454259,50
69.0,95.03164556962025,94.75838223003358,91.41661280519119,93.13064674778288,51.6277354822507,53.34176942484238,50
71.0,96.33164556962024,96.11465789864836,92.73841212537454,94.48735177720071,51.627306121447646,53.37624577327382,50
73.0,96.93164556962026,96.6920248985657,93.3077803724629,95.07013930446085,51.62188559410485,53.384244526102805,50
75.0,97.23164556962026,96.96953892256663,93.6035156044945,95.36678711019383,51.6027518123728,53.36602331807212,50
77.5,97.13164556962026,96.90413764832519,93.55968997716974,95.31709598016646,51.58704166815873,53.34444767115545,50
80.0,96.93164556962026,96.66953892256663,93.33181933594611,95.08303655600554,51.58650236656109,53.33771958662052,50
82.5,96.53164556962025,96.29254727922904,92.98360863445805,94.72460569952592,51.56794157970312,53.30893864477099,50
85.0,96.33164556962024,96.08092589518421,92.75163578079133,94.48306409655164,51.597861798632565,53.329290114392876,50
87.5,96.13164556962026,95.88092589518422,92.54131730531685,94.26971758693031,51.61120830825391,53.33960858986737,50
90.0,95.83164556962025,95.56060772656951,92.19513962711875,93.9394716691788,51.621136057390714,53.365468099450766,50
92.5,95.63164556962026,95.34916728557808,91.94512056441788,93.69868451369672,51.65048277188136,53.4040467211602,50
95.0,95.53164556962025,95.22723210540113,91.72511678356697,93.51123410657469,51.71599799882644,53.502115321834154,50
97.5,95.53164556962025,95.20712992583903,91.60791226747227,93.45979664808783,51.747333277751196,53.599217658366754,50
100.0,95.53164556962025,95.21816224751018,91.52586645776499,93.42057808954449,51.79758415796569,53.69229578974519,50
103.0,95.43164556962026,95.12916661492648,91.35143388638602,93.29676207955845,51.83240453536803,53.77773272854046,50
106.0,95.33164556962025,95.00712992583902,91.14891255795908,93.13222165297694,51.874908272862086,53.858217367879945,50
109.0,95.23164556962024,94.90712992583902,90.92959982365593,92.9769133897107,51.93021653612831,53.97753010218308,50
112.0,95.13164556962028,94.78739502192619,90.70855549462796,92.8245728766098,51.96282214531638,54.07883952729823,50
115.0,95.03164556962025,94.697273683618,90.525697285169,92.69715900236926,52.00011468124873,54.17157639844899,50
118.0,95.13164556962028,94.79899913106435,90.47810333698256,92.7373844248307,52.061614706233655,54.32089579408179,50
122.0,95.33164556962025,94.98739502192619,90.49095116470632,92.86735672414801,52.12003829777818,54.49644385721987,50
125.0,95.63164556962026,95.22265796655394,90.59772105046062,93.06158574975274,52.1610722168012,54.62493691609332,50
128.0,95.93164556962026,95.5873950219262,90.8486195472189,93.39206121881692,52.19533380310928,54.738775474707296,50
132.0,96.33164556962024,96.01057231726861,91.17861166187971,93.78347793439954,52.22709438286907,54.8319606553889,50
136.0,96.63164556962025,96.28045509830619,91.38865950806246,94.04556799141565,52.23488710689054,54.89179559024373,50
140.0,96.83164556962025,96.45789699747344,91.50617376678053,94.21535699905766,52.24253999841578,54.951723230692906,50
145.0,97.03164556962025,96.59262473205108,91.57945263621505,94.32389599214684,52.26872873990423,55.013172095836026,50
150.0,97.03164556962025,96.60344226382531,91.54414357449221,94.32179042605487,52.28165183777044,55.059298689333104,50
155.0,97.03164556962025,96.56282487189634,91.47150797987908,94.27416070605123,52.288664165845105,55.09131689201726,50
160.0,96.93164556962026,96.53191453492465,91.34505568536997,94.184133547445,52.34778098747965,55.18685884955468,50
165.0,96.83164556962025,96.39855074824621,91.10322228328891,93.9826243225019,52.4159264257443,55.295328464957294,50
170.0,96.73164556962026,96.28009937030288,90.86026634497948,93.80975334730147,52.47034602300141,55.4198330253234,50
175.0,96.53164556962025,96.08009937030288,90.53718577909277,93.5407678719549,52.53933149834798,55.54291359121011,50
180.0,96.33164556962024,95.786406915336,90.14288953340463,93.20293796290923,52.58346895242677,55.643517381931375,50
185.0,95.93164556962026,95.386406915336,89.65399324698689,92.75854622296654,52.62786069236945,55.73241366834911,50
190.0,95.53164556962025,94.91124930406554,89.09591827317136,92.26525145091634,52.6459978531492,55.81533103089417,50
195.0,94.93164556962026,94.34740020847974,88.40739498401167,91.64553516568488,52.701865042794864,55.94000522446807,50
200.0,94.33164556962025,93.72997843294229,87.7111073529952,91.00417626610279,52.7258021668395,56.01887107994709,50
206.0,93.83164556962024,93.16738543312849,87.10292192588324,90.4349704850853,52.732414948043186,56.06446350724525,50
212.0,93.53164556962025,92.85892064155388,86.67814707719978,90.06498814130485,52.79393250024903,56.1807735643541,50
218.0,93.63164556962026,92.90039919148478,86.619618300638,90.04867049273102,52.85172869875376,56.280780890846785,50
224.0,93.93164556962026,93.21279491237908,86.81669784923866,90.28740632094637,52.92538859143271,56.39609706314042,50
230.0,94.43164556962026,93.66318720281498,87.11569938118676,90.6368612246356,53.026325978179386,56.54748782162822,50
236.0,95.03164556962025,94.14788822507829,87.46340724080159,91.05675090095525,53.09113732412304,56.6844809842767,50
240.0,95.43164556962026,94.5571519598495,87.71214988918997,91.34577554558189,53.21137641426762,56.84500207065953,50
250.0,95.83164556962025,94.90849949904978,87.9171688281034,91.63021951421925,53.27827998483053,56.99133067094638,50
258.0,96.23164556962027,95.20712183212555,88.04494923664312,91.80064712285508,53.40647470927047,57.16217259548243,50
265.0,96.53164556962025,95.44653874324239,88.12015486610315,91.94206002921219,53.5044787140302,57.326383877139236,50
272.0,96.63164556962025,95.45437420061842,87.9737191096179,91.85486660567861,53.59950759493981,57.480655091000514,50
280.0,96.43164556962026,95.14486405653545,87.51673744114277,91.4596398205952,53.685224235940254,57.62812661539269,50
290.0,96.03164556962025,94.6491045310351,86.83736760820763,90.8476803942377,53.80142413679741,57.81173692282748,50
300.0,95.43164556962026,94.00691928612535,86.05440269964588,90.1144113370776,53.892507949047754,57.952516586479476,50
307.0,94.83164556962026,93.32959657816815,85.30993368448539,89.38901151158154,53.94058506658661,58.019662893682764,50
315.0,94.23164556962026,92.83042093242977,84.81173823068265,88.87700961628863,53.95341131614114,58.018682701747124,50
325.0,93.93164556962026,92.51778750859458,84.53476790230026,88.5844357539371,53.93335175465748,57.98301960629432,50
335.0,94.03164556962025,92.65485810506215,84.73667614865624,88.74958628492331,53.905271820138836,57.9181819564059,50
345.0,94.23164556962026,92.9322726381526,85.06320849257972,89.05903269019859,53.873239947954005,57.86906414557288,50
355.0,94.63164556962026,93.34486405653543,85.45624298481158,89.44523482285668,53.89962923367875,57.88862107172385,50
365.0,95.43164556962026,94.16765742206292,86.37470894961821,90.35031026996026,53.817347152102656,57.79294847244471,50
375.0,96.23164556962027,94.9665492629578,87.08421109911149,91.09353702997821,53.87301223297959,57.88233816384631,50
387.0,95.93164556962026,94.63624041302776,86.29004748273762,90.54504028997817,54.09120012304959,58.346192930290144,50
400.0,94.93164556962026,93.60504769488911,84.69935080225824,89.29339675656635,54.31165093832276,58.90569689263087,50
412.0,94.63164556962026,93.31189029518066,84.19360790130729,88.84302273055008,54.468867564630585,59.11828239387337,50
425.0,94.13164556962025,92.69479423199255,83.44020674830823,88.10222285208599,54.59257137990656,59.25458748368432,50
437.0,95.13164556962028,93.68072963534102,84.38370356267788,89.02560362176149,54.65512601357953,59.297026072663144,50
450.0,95.83164556962025,94.40976565776157,85.25249109352713,89.73248982970179,54.67727582805978,59.15727456423444,50
462.0,96.23164556962027,94.72801857542989,85.44875030431112,89.95000040657564,54.778018168854246,59.27926827111877,50
475.0,96.43164556962026,94.92654817960207,85.54700888001832,90.07693304779306,54.849615131809,59.37953929958374,50
487.0,96.73164556962026,95.21941053903194,85.719886376132,90.30470961451545,54.914700924516495,59.499524162899945,50
500.0,96.93164556962026,95.35782442753016,85.71124032986332,90.35023731709337,55.00758711043679,59.646584097666846,50
515.0,96.93164556962026,95.33023943739138,85.56048043100313,90.17641225128074,55.15382718611065,59.769759006388256,50
530.0,97.03164556962025,95.39431893101307,85.49706866790338,90.11771816447458,55.27660076653849,59.8972502631097,50
545.0,97.13164556962026,95.44484213388023,85.43900279168403,90.07491431232772,55.36992782155251,60.0058393421962,50
560.0,97.13164556962026,95.46073847127428,85.33734471598595,90.00036844159233,55.460370029681954,60.12339375528833,50
580.0,97.03164556962025,95.29307940668984,85.06238508609293,89.76990888986444,55.5231705168254,60.23069432059691,50
600.0,96.63164556962025,94.81393095593128,84.46159153899764,89.22677490122622,55.58715605470506,60.352339416933646,50
615.0,96.03164556962025,94.15984762822232,83.68497109640968,88.51374417207616,55.646103456146164,60.47487653181264,50
630.0,95.63164556962026,93.72272404677335,83.14996223954614,88.0428592843838,55.679864762389556,60.57276180722721,50
650.0,95.73164556962026,93.76463008971221,83.15700718551084,88.12041029537676,55.644219794335456,60.60762290420138,50
670.0,96.03164556962025,94.02596486263626,83.42234859915213,88.40147468663989,55.62449017599637,60.60361626348413,50
690.0,96.13164556962026,94.06627833011748,83.53824068313133,88.52314226638933,55.543136063728156,60.52803764698615,50
710.0,96.33164556962024,94.28603195494028,83.88427771398983,88.84416403916184,55.441867915778445,60.40175424095045,50
730.0,96.73164556962026,94.73010019389731,84.52096117848455,89.42333175311862,55.3067684407787,60.20913901541276,50
750.0,96.63164556962025,94.77379253438484,84.8207526158841,89.663028940988,55.11076359339684,59.953039918500735,50
775.0,96.03164556962025,94.29337003595279,84.61055525280632,89.36995981519338,54.92341022075941,59.68281478314647,50
800.0,95.13164556962028,93.54910513054654,84.10789106835787,88.76739160571948,54.781713524827055,59.44121406218866,50
825.0,94.23164556962026,92.87458333384049,83.59821322020551,88.17479291408176,54.69979041975873,59.27637011363498,50
850.0,93.73164556962027,92.4867274502688,83.2908602387875,87.81300877410837,54.67371867616043,59.1958672114813,50
875.0,93.43164556962026,92.41280821074221,83.26596450979962,87.74858123865924,54.66422697208297,59.1468437009426,50
900.0,93.33164556962025,92.41492068012712,83.20645055390578,87.69345318255802,54.72146749756911,59.20847012622134,50
925.0,93.33164556962025,92.47915222737609,83.13292432717293,87.62933263019143,54.84981959718466,59.34622790020316,50
950.0,93.63164556962026,92.78038039445948,83.25915841397563,87.76858811942394,55.011792275035546,59.52122198048386,50
975.0,94.13164556962025,93.22066107907588,83.44786002716344,88.00220111794012,55.218459961135764,59.77280105191244,50
1000.0,94.33164556962025,93.30504774708636,83.30116574598073,87.89647241233794,55.40857533474842,60.00388200110564,50
1030.0,94.43164556962026,93.11143234682474,82.86438298960594,87.55203703781973,55.55939530900501,60.2470493572188,50
1060.0,95.03164556962025,93.46176408769783,83.07233699330389,87.84938021106085,55.61238387663698,60.38942709439394,50
1090.0,96.03164556962025,94.30614007551307,83.83384474999123,88.64763803383603,55.65850204167704,60.47229532552184,50
1120.0,96.33164556962024,94.68817313793072,84.26349757787666,89.04417983747524,55.64399330045548,60.424675560054055,50
1150.0,95.83164556962025,94.23301062927817,83.8242582590198,88.58867380780622,55.64433682147195,60.40875237025837,50
1180.0,94.53164556962025,92.87860186397266,82.41804531026725,87.22336544333234,55.65523642064032,60.460556553705416,50
1220.0,93.23164556962026,91.4756359106537,80.9522291193231,85.82283995998431,55.652795950669386,60.523406791330586,50
1250.0,93.03164556962025,91.30544395223721,80.77133049386316,85.63821297417526,55.66723097806195,60.53411345837405,50
1280.0,93.73164556962027,92.07637118436722,81.59370410764856,86.42797882602935,55.64839235833787,60.482667076718656,50
1320.0,94.63164556962026,93.00823065046556,82.48141457693666,87.307581784613,55.70064886585256,60.526816073528906,50
1360.0,95.33164556962025,93.61370405890884,82.95806743012989,87.78804505631804,55.8256590025908,60.65563662877895,50
1400.0,95.63164556962026,93.71116668211226,82.83803768241646,87.76067144800919,55.95049523410307,60.87312899969581,50
1450.0,95.73164556962026,93.61090261077993,82.58518660559466,87.57636683497975,56.03453577580018,61.025716005185274,50
1500.0,95.83164556962025,93.62511241469511,82.55037368620414,87.54945353892577,56.075658875769335,61.07473872849097,50
1550.0,96.03164556962025,93.74240684825108,82.68876313228829,87.66287869414383,56.07952815410725,61.05364371596279,50
1600.0,96.43164556962026,94.05199285695336,82.98343630424358,87.96462047768853,56.087372379264835,61.06855655270978,50
1650.0,96.43164556962026,94.13158643318125,83.08175675495225,88.0279268717836,56.10365956139765,61.049829678229,50
1700.0,96.03164556962025,93.74559505380657,82.71013928530843,87.6653073872569,56.080287666549665,61.03545576849814,50
1750.0,95.53164556962025,93.37519294672481,82.37293809913457,87.33712855712017,56.03806438960464,61.00225484759024,50
1800.0,94.73164556962026,92.63558344042156,81.66090027106996,86.65924362558943,55.97633981483213,60.97468316935159,50
1850.0,94.43164556962026,92.39048181033063,81.46433859923135,86.48445498398267,55.906026826347954,60.92614321109927,50
1900.0,94.73164556962026,92.62251749857961,81.76044120313577,86.81235517948113,55.81016231909848,60.86207629544384,50
1950.0,95.13164556962028,92.96383916560507,82.02922035072082,87.16686405631484,55.79697510929023,60.934618814884246,50
2000.0,95.63164556962026,93.46514632681865,82.39141613242985,87.60980879956392,55.85533752725473,61.0737301943888,50
2060.0,95.53164556962025,93.29484562697286,82.08046380753494,87.38671217293887,55.90813345403399,61.21438181943792,50
2120.0,95.03164556962025,92.80215407155194,81.51839911514477,86.87064233676935,55.93151173478259,61.283754956407165,50
2180.0,94.53164556962025,92.21644923308315,80.84654131244433,86.2530088404569,55.963440392626254,61.36990792063882,50
2240.0,94.13164556962025,91.76016389786426,80.30061361894062,85.77693556636444,55.98322833149982,61.45955027892364,50
2300.0,94.23164556962026,91.78354902629975,80.16720348449296,85.79044382280202,55.993105203497734,61.616345541806794,50
2360.0,95.13164556962028,92.71903498083776,80.92389057311979,86.65011873873657,56.068916242101196,61.79514440771797,50
2400.0,96.43164556962026,94.27343731982388,82.46293600162775,88.14526843582881,56.12816888399507,61.81050131819613,50
2500.0,96.73164556962026,94.68696575917815,82.97130252310201,88.6068972703697,56.08006848880845,61.71566323607614,50
2580.0,96.13164556962026,94.10249916190115,82.41218539878503,88.05394586870106,56.04855329320009,61.69031376311612,50
2650.0,94.93164556962026,92.92642369750394,81.21915587393676,86.87368484656915,56.05273885093479,61.70726782356718,50
2720.0,94.43164556962026,92.33458568537148,80.57241580864255,86.28404987782108,56.0505358075504,61.76216987672893,50
2800.0,95.43164556962026,93.38473705270549,81.61258369654715,87.31957251334163,56.06516453936386,61.77215335615834,50
