Freq "Listening Window"
22.4 23.336305082583976
23.0 25.962416124353837
23.6 27.994902019732024
24.0 29.887109705813003
25.0 32.301748670311554
25.8 34.31576615975888
26.5 35.96385723953372
27.2 37.42965845288373
28.0 39.01171354084346
29.0 40.83115860485643
30.0 42.15423382849727
30.7 43.34956848680335
31.5 45.259471387053196
32.5 46.75477269756641
33.5 48.02108408154248
34.5 49.537996626950445
35.5 50.817116617353406
36.5 52.178662336498206
37.5 53.62825808459684
38.7 55.39331709206806
40.0 57.676213008635045
41.2 59.93121173470084
42.5 62.49888853383001
43.7 65.36079441374301
45.0 67.85361877761903
46.2 69.90387321388468
47.5 71.57979386703738
48.7 73.2563506012561
50.0 74.83409756292211
51.5 76.39002197288079
53.0 77.91224034685123
54.5 79.45761921152594
56.0 81.35864105234029
58.0 83.1142756722869
60.0 84.73714958368777
61.5 86.48180296208004
63.0 88.42673666041333
65.0 90.51502336890955
67.0 92.52673666041332
69.0 94.52673666041332
71.0 95.88301232902812
73.0 96.46037932894544
75.0 96.73789335294637
77.5 96.67249207870492
80.0 96.43789335294636
82.5 96.06090170960877
85.0 95.84928032556397
87.5 95.64928032556398
90.0 95.32896215694925
92.5 95.1175217159578
95.0 94.99558653578086
97.5 94.97548435621877
100.0 94.98651667788994
103.0 94.89752104530623
106.0 94.77548435621877
109.0 94.67548435621877
112.0 94.55574945230595
115.0 94.46562811399772
118.0 94.5673535614441
122.0 94.75574945230595
125.0 94.99101239693367
128.0 95.35574945230593
132.0 95.77892674764834
136.0 96.04880952868592
140.0 96.22625142785319
145.0 96.36097916243081
150.0 96.37179669420505
155.0 96.33117930227607
160.0 96.30026896530438
165.0 96.16690517862594
170.0 96.04845380068262
175.0 95.84845380068262
180.0 95.55476134571576
185.0 95.15476134571576
190.0 94.6796037344453
195.0 94.11575463885947
200.0 93.49833286332205
206.0 92.93573986350825
212.0 92.62727507193364
218.0 92.66875362186452
224.0 92.98114934275881
230.0 93.43154163319474
236.0 93.91624265545805
240.0 94.32550639022926
250.0 94.67685392942954
258.0 94.9754762625053
265.0 95.21489317362214
272.0 95.22272863099815
280.0 94.91321848691518
290.0 94.41745896141487
300.0 93.7752737165051
307.0 93.0979510085479
315.0 92.59877536280953
325.0 92.28614193897434
335.0 92.42321253544189
345.0 92.70062706853236
355.0 93.11321848691519
365.0 93.93601185244265
375.0 94.73490369333753
387.0 94.40459484340752
400.0 93.37340212526885
412.0 93.08024472556042
425.0 92.4631486623723
437.0 93.44908406572077
450.0 94.17812008814131
462.0 94.49637300580964
475.0 94.69490260998182
487.0 94.98776496941167
500.0 95.1261788579099
515.0 95.09859386777113
530.0 95.16267336139282
545.0 95.21319656425996
560.0 95.22909290165401
580.0 95.06143383706959
600.0 94.58228538631104
615.0 93.92820205860208
630.0 93.4910784771531
650.0 93.53298452009196
670.0 93.79431929301602
690.0 93.83463276049723
710.0 94.05438638532004
730.0 94.49845462427706
750.0 94.5421469647646
775.0 94.06172446633255
800.0 93.31745956092627
825.0 92.64293776422025
850.0 92.25508188064855
875.0 92.18116264112196
900.0 92.18327511050688
925.0 92.24750665775582
950.0 92.54873482483923
975.0 92.98901550945564
1000.0 93.07340217746612
1030.0 92.87978677720449
1060.0 93.23011851807757
1090.0 94.07449450589283
1120.0 94.45652756831045
1150.0 94.00136505965793
1180.0 92.64695629435242
1220.0 91.24399034103342
1250.0 91.07379838261697
1280.0 91.84472561474696
1320.0 92.77658508084531
1360.0 93.38205848928858
1400.0 93.479521112492
1450.0 93.37925704115966
1500.0 93.39346684507487
1550.0 93.51076127863081
1600.0 93.82034728733309
1650.0 93.899940863561
1700.0 93.5139494841863
1750.0 93.14354737710454
1800.0 92.4039378708013
1850.0 92.15883624071037
1900.0 92.39087192895937
1950.0 92.7321935959848
2000.0 93.23350075719841
2060.0 93.06320005735259
2120.0 92.57050850193167
2180.0 91.98480366346291
2240.0 91.528518328244
2300.0 91.5519034566795
2360.0 92.48738941121749
2400.0 94.04179175020363
2500.0 94.45532018955788
2580.0 93.87085359228088
2650.0 92.69477812788367
2720.0 92.10294011575122
2800.0 93.15309148308523
2900.0 94.20129948622966
3000.0 94.29695348251109
3070.0 94.40198503320565
3150.0 94.38171310090084
3250.0 93.75598160029122
3350.0 93.55278308442348
3450.0 92.79567308992435
3550.0 92.14557906411906
3650.0 91.72031982188697
3750.0 90.77652816180515
3870.0 90.30418375386876
4000.0 90.36609505648966
4120.0 90.13891389263725
4250.0 90.61015406624611
4370.0 91.37739224537248
4500.0 92.60154511191946
4620.0 93.55520253981906
4750.0 94.17716923929623
4870.0 95.00878461930361
5000.0 95.09538765722925
5150.0 94.69314569774885
5300.0 95.0586128308035
5450.0 94.9895379589167
5600.0 95.55194907673885
5800.0 96.29255137438405
6000.0 95.85919652580797
6150.0 95.52690983488745
6300.0 95.31036635872846
6500.0 94.61545366471864
6700.0 94.15649179230014
6900.0 93.58487320528572
7100.0 93.443474489167
7300.0 94.30900775833449
7500.0 94.69333781854888
7750.0 94.86657107693452
8000.0 94.78374907572365
8250.0 93.70581354665326
8500.0 92.24651514915573
8750.0 91.90794469724261
9000.0 92.84577822857945
9250.0 94.21259196381791
9500.0 95.23276966211358
9750.0 95.02053409920211
10000.0 94.54880444099337
10300.0 95.28418170869732
10600.0 95.05578086952404
10900.0 94.34193176375621
11200.0 93.79718297427291
11500.0 93.01790661026786
11800.0 92.2324584504257
12200.0 91.57237933178138
12500.0 91.40676720379082
12800.0 91.42813666988414
13200.0 90.83629482623317
13600.0 89.86441347348237
14000.0 88.62594559897624
14500.0 86.70373942173985
15000.0 86.29177340277795
15500.0 86.48566765552411
16000.0 85.82728480617436
16500.0 86.98903906654799
17000.0 88.50378295178541
17500.0 91.40686812257113
18000.0 93.93021767938887
18500.0 94.45017682026443
19000.0 93.76118206130639
19500.0 90.90663396011846
