Freq "Listening Window"
22.4 23.567950652204246
23.0 26.194061693974106
23.6 28.226547589352293
24.0 30.118755275433273
25.0 32.53339423993182
25.8 34.54741172937915
26.5 36.19550280915399
27.2 37.661304022504
28.0 39.24335911046373
29.0 41.062804174476696
30.0 42.38587939811754
30.7 43.58121405642359
31.5 45.491116956673466
32.5 46.98641826718665
33.5 48.252729651162724
34.5 49.769642196570715
35.5 51.04876218697365
36.5 52.410307906118476
37.5 53.85990365421708
38.7 55.62496266168833
40.0 57.907858578255315
41.2 60.16285730432111
42.5 62.73053410345025
43.7 65.59243998336325
45.0 68.0852643472393
46.2 70.13551878350495
47.5 71.81143943665762
48.7 73.48799617087634
50.0 75.06574313254238
51.5 76.62166754250103
53.0 78.1438859164715
54.5 79.68926478114619
56.0 81.59028662196054
58.0 83.34592124190713
60.0 84.96879515330802
61.5 86.71344853170031
63.0 88.65838223003358
65.0 90.74666893852982
67.0 92.75838223003356
69.0 94.75838223003358
71.0 96.11465789864836
73.0 96.6920248985657
75.0 96.96953892256663
77.5 96.90413764832519
80.0 96.66953892256663
82.5 96.29254727922904
85.0 96.08092589518421
87.5 95.88092589518422
90.0 95.56060772656951
92.5 95.34916728557808
95.0 95.22723210540113
97.5 95.20712992583903
100.0 95.21816224751018
103.0 95.12916661492648
106.0 95.00712992583902
109.0 94.90712992583902
112.0 94.78739502192619
115.0 94.697273683618
118.0 94.79899913106435
122.0 94.98739502192619
125.0 95.22265796655394
128.0 95.5873950219262
132.0 96.01057231726861
136.0 96.28045509830619
140.0 96.45789699747344
145.0 96.59262473205108
150.0 96.60344226382531
155.0 96.56282487189634
160.0 96.53191453492465
165.0 96.39855074824621
170.0 96.28009937030288
175.0 96.08009937030288
180.0 95.786406915336
185.0 95.386406915336
190.0 94.91124930406554
195.0 94.34740020847974
200.0 93.72997843294229
206.0 93.16738543312849
212.0 92.85892064155388
218.0 92.90039919148478
224.0 93.21279491237908
230.0 93.66318720281498
236.0 94.14788822507829
240.0 94.5571519598495
250.0 94.90849949904978
258.0 95.20712183212555
265.0 95.44653874324239
272.0 95.45437420061842
280.0 95.14486405653545
290.0 94.6491045310351
300.0 94.00691928612535
307.0 93.32959657816815
315.0 92.83042093242977
325.0 92.51778750859458
335.0 92.65485810506215
345.0 92.9322726381526
355.0 93.34486405653543
365.0 94.16765742206292
375.0 94.9665492629578
387.0 94.63624041302776
400.0 93.60504769488911
412.0 93.31189029518066
425.0 92.69479423199255
437.0 93.68072963534102
450.0 94.40976565776157
462.0 94.72801857542989
475.0 94.92654817960207
487.0 95.21941053903194
500.0 95.35782442753016
515.0 95.33023943739138
530.0 95.39431893101307
545.0 95.44484213388023
560.0 95.46073847127428
580.0 95.29307940668984
600.0 94.81393095593128
615.0 94.15984762822232
630.0 93.72272404677335
650.0 93.76463008971221
670.0 94.02596486263626
690.0 94.06627833011748
710.0 94.28603195494028
730.0 94.73010019389731
750.0 94.77379253438484
775.0 94.29337003595279
800.0 93.54910513054654
825.0 92.87458333384049
850.0 92.4867274502688
875.0 92.41280821074221
900.0 92.41492068012712
925.0 92.47915222737609
950.0 92.78038039445948
975.0 93.22066107907588
1000.0 93.30504774708636
1030.0 93.11143234682474
1060.0 93.46176408769783
1090.0 94.30614007551307
1120.0 94.68817313793072
1150.0 94.23301062927817
1180.0 92.87860186397266
1220.0 91.4756359106537
1250.0 91.30544395223721
1280.0 92.07637118436722
1320.0 93.00823065046556
1360.0 93.61370405890884
1400.0 93.71116668211226
1450.0 93.61090261077993
1500.0 93.62511241469511
1550.0 93.74240684825108
1600.0 94.05199285695336
1650.0 94.13158643318125
1700.0 93.74559505380657
1750.0 93.37519294672481
1800.0 92.63558344042156
1850.0 92.39048181033063
1900.0 92.62251749857961
1950.0 92.96383916560507
2000.0 93.46514632681865
2060.0 93.29484562697286
2120.0 92.80215407155194
2180.0 92.21644923308315
2240.0 91.76016389786426
2300.0 91.78354902629975
2360.0 92.71903498083776
2400.0 94.27343731982388
2500.0 94.68696575917815
2580.0 94.10249916190115
2650.0 92.92642369750394
2720.0 92.33458568537148
2800.0 93.38473705270549
2900.0 94.43294505584991
3000.0 94.52859905213136
3070.0 94.63363060282592
3150.0 94.61335867052111
3250.0 93.98762716991148
3350.0 93.78442865404372
3450.0 93.0273186595446
3550.0 92.37722463373932
3650.0 91.95196539150722
3750.0 91.0081737314254
3870.0 90.535829323489
4000.0 90.59774062610991
4120.0 90.37055946225752
4250.0 90.84179963586635
4370.0 91.60903781499275
4500.0 92.83319068153972
4620.0 93.78684810943932
4750.0 94.4088148089165
4870.0 95.24043018892388
5000.0 95.32703322684951
5150.0 94.9247912673691
5300.0 95.29025840042374
5450.0 95.22118352853695
5600.0 95.78359464635912
5800.0 96.5241969440043
6000.0 96.09084209542823
6150.0 95.75855540450772
6300.0 95.54201192834871
6500.0 94.8470992343389
6700.0 94.3881373619204
6900.0 93.81651877490596
7100.0 93.67512005878726
7300.0 94.54065332795474
7500.0 94.92498338816914
7750.0 95.09821664655479
8000.0 95.01539464534389
8250.0 93.93745911627353
8500.0 92.478160718776
8750.0 92.13959026686287
9000.0 93.07742379819969
9250.0 94.44423753343817
9500.0 95.46441523173384
9750.0 95.25217966882235
10000.0 94.78045001061363
10300.0 95.51582727831756
10600.0 95.28742643914431
10900.0 94.57357733337648
11200.0 94.02882854389317
11500.0 93.2495521798881
11800.0 92.46410402004597
12200.0 91.80402490140162
12500.0 91.63841277341109
12800.0 91.6597822395044
13200.0 91.06794039585344
13600.0 90.09605904310261
14000.0 88.85759116859651
14500.0 86.9353849913601
15000.0 86.5234189723982
15500.0 86.71731322514438
16000.0 86.05893037579462
16500.0 87.22068463616824
17000.0 88.73542852140567
17500.0 91.63851369219137
18000.0 94.16186324900913
18500.0 94.68182238988469
19000.0 93.99282763092663
19500.0 91.13827952973871
