Freq "Sound Power"
22.4 25.200473071708444
23.0 27.948545226804214
23.6 30.074681831999186
24.0 32.23279274847806
25.0 35.786016479759894
25.8 38.43549700317752
26.5 40.44133599137044
27.2 42.15608744785689
28.0 43.90798116269386
29.0 45.8636654436294
30.0 47.170781701594905
30.7 48.328821943652486
31.5 50.23714138205892
32.5 51.686904516189884
33.5 52.922987902863525
34.5 54.27431446966699
35.5 55.28861377919779
36.5 56.378980630418766
37.5 57.6592619929572
38.7 59.18898376325231
40.0 60.09583651559893
41.2 61.12682228969706
42.5 62.87130719690671
43.7 65.16935961696947
45.0 66.99106217820517
46.2 68.54347260455867
47.5 69.92256357676484
48.7 71.39698352522075
50.0 72.76667803975658
51.5 74.18760757434288
53.0 75.65794735995709
54.5 77.02840596205768
56.0 78.77196334299964
58.0 80.44773636129946
60.0 81.81621535571566
61.5 83.40550120017315
63.0 85.27618915040107
65.0 87.2493057821824
67.0 89.23177145587073
69.0 91.18496723557092
71.0 92.50676655575427
73.0 93.07613480284265
75.0 93.37187003487423
77.5 93.32804440754947
80.0 93.10017376632585
82.5 92.75196306483778
85.0 92.51999021117106
87.5 92.3096717356966
90.0 91.9634940574985
92.5 91.71347499479762
95.0 91.49347121394673
97.5 91.37626669785203
100.0 91.29422088814474
103.0 91.11978831676575
106.0 90.91726698833884
109.0 90.69795425403568
112.0 90.47690992500769
115.0 90.29405171554875
118.0 90.2464577673623
122.0 90.25930559508606
125.0 90.36607548084035
128.0 90.61697397759863
132.0 90.94696609225947
136.0 91.15701393844219
140.0 91.27452819716027
145.0 91.34780706659481
150.0 91.31249800487196
155.0 91.23986241025881
160.0 91.1134101157497
165.0 90.87157671366866
170.0 90.62862077535922
175.0 90.30554020947253
180.0 89.91124396378439
185.0 89.42234767736663
190.0 88.86427270355112
195.0 88.1757494143914
200.0 87.47946178337494
206.0 86.871276356263
212.0 86.44650150757953
218.0 86.38797273101775
224.0 86.5850522796184
230.0 86.8840538115665
236.0 87.23176167118132
240.0 87.48050431956973
250.0 87.68552325848316
258.0 87.81330366702286
265.0 87.8885092964829
272.0 87.74207353999763
280.0 87.2850918715225
290.0 86.60572203858737
300.0 85.82275713002562
307.0 85.07828811486513
315.0 84.5800926610624
325.0 84.30312233268
335.0 84.50503057903597
345.0 84.83156292295945
355.0 85.22459741519133
365.0 86.14306337999797
375.0 86.85256552949124
387.0 86.05840191311736
400.0 84.467705232638
412.0 83.96196233168703
425.0 83.20856117868797
437.0 84.15205799305761
450.0 85.02084552390687
462.0 85.21710473469085
475.0 85.31536331039807
487.0 85.48824080651173
500.0 85.47959476024307
515.0 85.32883486138289
530.0 85.26542309828312
545.0 85.20735722206376
560.0 85.10569914636568
580.0 84.83073951647269
600.0 84.2299459693774
615.0 83.45332552678944
630.0 82.9183166699259
650.0 82.92536161589058
670.0 83.19070302953186
690.0 83.30659511351107
710.0 83.65263214436958
730.0 84.2893156088643
750.0 84.58910704626385
775.0 84.37890968318605
800.0 83.87624549873762
825.0 83.36656765058527
850.0 83.05921466916723
875.0 83.03431894017936
900.0 82.97480498428554
925.0 82.90127875755266
950.0 83.02751284435537
975.0 83.21621445754317
1000.0 83.06952017636048
1030.0 82.63273741998569
1060.0 82.84069142368365
1090.0 83.60219918037096
1120.0 84.0318520082564
1150.0 83.59261268939954
1180.0 82.18639974064699
1220.0 80.72058354970285
1250.0 80.53968492424289
1280.0 81.36205853802832
1320.0 82.2497690073164
1360.0 82.72642186050965
1400.0 82.60639211279619
1450.0 82.35354103597439
1500.0 82.31872811658388
1550.0 82.45711756266803
1600.0 82.75179073462331
1650.0 82.850111185332
1700.0 82.47849371568819
1750.0 82.1412925295143
1800.0 81.42925470144971
1850.0 81.2326930296111
1900.0 81.52879563351553
1950.0 81.79757478110055
2000.0 82.1597705628096
2060.0 81.84881823791468
2120.0 81.2867535455245
2180.0 80.61489574282409
2240.0 80.06896804932035
2300.0 79.9355579148727
2360.0 80.69224500349952
2400.0 82.23129043200748
2500.0 82.73965695348174
2580.0 82.18053982916477
2650.0 80.9875103043165
2720.0 80.34077023902228
2800.0 81.3809381269269
2900.0 82.4429397137566
3000.0 82.53939291070918
3070.0 82.66761869653654
3150.0 82.66828464963277
3250.0 82.07632091765183
3350.0 81.90089935608805
3450.0 81.23448739145854
3550.0 80.65165854840433
3650.0 80.32288849012772
3750.0 79.48372447934496
3870.0 79.04091738714241
4000.0 79.1328766471561
4120.0 78.94981668190707
4250.0 79.55151106270358
4370.0 80.37002382336759
4500.0 81.68106627914983
4620.0 82.68301318905219
4750.0 83.37717917012311
4870.0 84.28523211200314
5000.0 84.40540078162084
5150.0 83.99500689922337
5300.0 84.3829662431576
5450.0 84.32237415488194
5600.0 84.84061690224524
5800.0 85.54752733714352
6000.0 85.01866904219958
6150.0 84.60820914718033
6300.0 84.36189872612793
6500.0 83.62589398866267
6700.0 83.09412743933521
6900.0 82.51429160877109
7100.0 82.38390464539987
7300.0 83.23643895668643
7500.0 83.61065397832078
7750.0 83.78336503644377
8000.0 83.67873698374878
8250.0 82.61682711769636
8500.0 81.15932348368706
8750.0 80.82547173081805
9000.0 81.76767353435011
9250.0 83.1479615857656
9500.0 84.15661872413516
9750.0 83.96383832074675
10000.0 83.49120073352313
10300.0 84.18740823685448
10600.0 83.93415782279455
10900.0 83.17607250634228
11200.0 82.637103979149
11500.0 81.81383902756271
11800.0 81.02769611656262
12200.0 80.3484233625456
12500.0 80.1757030203626
12800.0 80.21274483315693
13200.0 79.67275341181126
13600.0 78.83105562946888
14000.0 77.6774595211782
14500.0 75.93851057366118
15000.0 75.70137569656175
15500.0 76.13499579835654
16000.0 75.61054301041861
16500.0 76.7801715051918
17000.0 78.26583766815894
17500.0 81.07590757274849
18000.0 83.56974882830247
18500.0 83.99834134222277
19000.0 83.24020471883932
19500.0 80.25888935085368
