Freq "Ceiling Bounce"
20.5078 55.455803190417484
21.9727 61.1603170620255
23.4375 62.07771212732747
24.9023 65.05434484266023
26.3672 67.51487537648914
27.832 68.7930385483738
29.2969 70.57866193732067
30.7617 71.83128556188744
32.2266 73.30698134218301
33.6914 74.70255256848901
35.1562 76.11033603409018
36.6211 77.33385707971716
38.0859 78.39531088488992
39.5508 79.46929293289607
41.0156 80.32734206351009
42.4805 81.02469979941213
43.9453 81.69863806167315
45.4102 82.32540105708172
46.875 82.92092702946711
48.3398 83.3804871984962
51.2695 84.11053676157145
52.7344 84.40864603842157
54.1992 84.66373580858236
55.6641 84.89011488127844
58.5938 85.30740358423263
60.0586 85.54270981855724
62.9883 85.77536221957094
64.4531 85.89392444436903
67.3828 86.00122212102885
68.8477 86.1225648595549
71.7773 86.29462069056878
74.707 86.49481928951582
77.6367 86.7504961981465
79.1016 86.80451539833841
82.0312 86.76675545574889
84.9609 86.84453958205044
87.8906 87.00860351955949
90.8203 87.29391694834258
95.2148 86.96361836637082
98.1445 87.12589480135505
101.074 86.99729432411566
105.469 87.3872206658315
108.398 87.48923215983085
112.793 87.4713553716826
117.188 87.56881480288301
120.117 87.56449187796363
124.512 87.45759310637202
128.906 87.4585966724758
133.301 87.44436979104421
139.16 87.3788074050545
143.555 87.29429186288489
147.949 87.21656083947762
153.809 87.18611710733185
159.668 87.32139642189424
165.527 87.27151000784836
171.387 87.26785052162877
177.246 87.03437714545672
183.105 86.91617467096364
188.965 86.89213496218377
196.289 87.02666354852047
203.613 86.86736450399573
210.938 86.8694274937681
218.262 86.7517491431147
225.586 86.71427260802021
232.91 86.68491335189704
241.699 86.30265508762686
250.488 86.13296854936503
259.277 86.2756218220978
268.066 85.90138425623101
276.855 85.7988008707879
287.109 85.75045741055997
297.363 86.13261365066572
307.617 84.85099395306328
319.336 85.38158598317456
329.59 86.0847726665971
341.309 85.70346417582861
353.027 85.46259248932965
366.211 85.84672130777084
379.395 86.05474704062937
392.578 85.32072402018225
405.762 84.99282061036457
420.41 85.41210106978319
435.059 85.15130276573379
451.172 84.83950443705992
465.82 85.14914091445043
483.398 85.16836221423824
499.512 84.73858460586108
517.09 84.60780884725902
536.133 84.29211630164374
555.176 86.05021213285426
574.219 87.91943516807335
594.727 87.44686352580341
615.234 85.68272132608405
637.207 80.51129049349346
659.18 81.77737115379557
682.617 83.41080262349232
707.52 84.5939697568152
732.422 84.23844431169877
757.324 85.63056375358651
785.156 85.06633309624549
811.523 84.95964867778953
840.82 83.80765905017732
870.117 84.74088641960881
900.879 82.66203999353161
933.105 84.44320273767255
965.332 82.69933942471715
1000.49 85.85695336882505
1035.64 82.74271742144373
1072.27 81.19170295027318
1108.89 81.62545578629472
1148.44 84.76085444234879
1189.45 84.33665044988435
1230.47 82.62352421642713
1274.41 79.93449133754903
1319.82 80.72403634651805
1366.7 80.6187275817998
1413.57 81.45495288171227
1463.38 82.4139192754878
1516.11 78.67061110345949
1568.85 78.54239430802916
1624.51 80.15742490924006
1681.64 80.1123488114304
1741.7 80.07408934199333
1803.22 78.35300534303494
1866.21 78.27339575997703
1932.13 77.44195797941083
1999.51 77.71398573692764
2069.82 78.04923958996186
2143.07 78.38592344180249
2219.24 78.67964087774762
2296.88 78.80437228034594
2378.91 78.55487632519122
2462.4 79.33511297242092
2548.83 79.9937176802799
2639.65 81.45802393639174
2731.93 82.04619735563233
2828.61 82.84018563666918
2928.22 83.2542272371432
3030.76 83.9504455973107
3137.7 84.15703977729409
3249.02 84.22292714309214
3363.28 84.15081104909602
3481.93 84.665691667285
3604.98 84.70040736005132
3732.42 85.02139089151011
3864.26 84.89065458588215
4000.49 84.57764217459646
4141.11 84.86699918015422
4287.6 84.54795762364905
4438.48 84.83714771638569
4595.21 84.14240357400784
4756.35 84.47592765163279
4924.8 84.4875353055002
5097.66 84.61044950691041
5277.83 84.41449234443432
5463.87 84.14304220907498
5657.23 84.38326425511372
5856.45 83.94464172523554
6062.99 83.75906189418166
6276.86 83.77573202052626
6498.05 83.71641276711345
6726.56 83.28189914038536
6963.87 83.0041547605883
7209.96 82.59496759310528
7464.84 82.18642311404174
7727.05 81.6706179238705
7999.51 81.46390076436127
8282.23 81.07054900290075
8573.73 80.70770923521208
8876.95 80.69474548735964
9188.96 80.72230896163784
9514.16 80.62829369962378
9849.61 80.27721911538261
10196.8 79.6478227974777
10555.7 79.15632661687017
10927.7 78.70235362207309
11313.0 78.0643656626395
11712.9 77.70994393700552
12126.0 77.35797508438786
12553.7 77.14918690635535
12996.1 76.63579219795773
13454.6 76.14943025896294
13929.2 75.75078034682453
14419.9 75.6408523004174
14928.2 75.58282903376833
15455.6 75.36127517448327
16000.5 74.95961978000972
16564.5 74.72685607737459
17148.9 74.05850264711817
17752.4 73.186016077112
18379.4 71.63113692973253
19026.9 70.3654157586255
19697.8 69.77721270476741
19999.5 69.9763117814851
