Freq "Estimated In-Room Response"
22.4 38.34249220721715
23.0 39.33286342021627
23.6 40.320799378829165
24.0 41.30742530920732
25.0 42.28157216527963
25.8 43.27759307683765
26.5 44.265197325585135
27.2 45.26160548980711
28.0 46.2512095874023
29.0 47.253981742654744
30.0 48.24687642721942
30.7 49.244627837292015
31.5 50.24392876808518
32.5 51.2317047231556
33.5 52.206275508774056
34.5 53.17567435305868
35.5 54.132156534689
36.5 55.091412194761446
37.5 56.007037630149696
38.7 56.91945396682323
40.0 57.7974621474696
41.2 58.67649216761295
42.5 59.47598904408299
43.7 60.2751065723416
45.0 61.020697351213244
46.2 61.716331639692115
47.5 62.37076305781501
48.7 62.97496024566854
50.0 63.540262636435656
51.5 64.03907010411056
53.0 64.47622876712096
54.5 64.86610182780952
56.0 65.21391006730026
58.0 65.51543628517379
60.0 65.7803945804662
61.5 66.02419259115051
63.0 66.2948578262891
65.0 66.58268367726085
67.0 66.90381231993607
69.0 67.29200423251564
71.0 67.73582113508473
73.0 68.21395700563451
75.0 68.7592272042003
77.5 69.27246835429794
80.0 69.76026389215706
82.5 70.21821619075332
85.0 70.62845376358118
87.5 71.01024662678918
90.0 71.39429933971039
92.5 71.8061695775044
95.0 72.27522976632491
97.5 72.78293678116817
100.0 73.27128250082752
103.0 73.66896956967928
106.0 73.98018106169339
109.0 74.19207014219575
112.0 74.3414245625549
115.0 74.48253453817813
118.0 74.66763070041198
122.0 74.89841811535919
125.0 75.19795115041147
128.0 75.4733439366531
132.0 75.73986784078328
136.0 75.96340171582469
140.0 76.21887038373507
145.0 76.47655656728651
150.0 76.75060756720968
155.0 76.95520569180383
160.0 77.14595187761928
165.0 77.26564270122786
170.0 77.31420630678308
175.0 77.23048862671617
180.0 77.15605658708662
185.0 77.03503547820665
190.0 76.91386010468374
195.0 76.74018469634248
200.0 76.57185377801476
206.0 76.43472107504209
212.0 76.36235044546098
218.0 76.3400727302888
224.0 76.42733444080997
230.0 76.57898939088885
236.0 76.75432811893863
240.0 76.93397073113849
250.0 77.0491704215525
258.0 77.10000836450827
265.0 77.05578675764433
272.0 76.97789002359339
280.0 76.90981712926298
290.0 76.88858898723451
300.0 76.91547343434154
307.0 77.002920479076
315.0 77.10534843660389
325.0 77.18754457098834
335.0 77.19369734746813
345.0 77.11144642749561
355.0 76.98251576069238
365.0 76.8806274769078
375.0 76.81231316455332
387.0 76.80543608312092
400.0 76.80684863188601
412.0 76.64722661423325
425.0 76.34939176907358
437.0 75.88833033538633
450.0 75.49790450650633
462.0 75.40676244160717
475.0 75.65388832235755
487.0 76.05164820691108
500.0 76.41007952314551
515.0 76.67123160776136
530.0 76.85864532603067
545.0 76.996040476753
560.0 76.92854568557942
580.0 76.59200892531486
600.0 76.05341714883949
615.0 75.5213381995877
630.0 75.10042983884334
650.0 74.85346304699421
670.0 74.74765074047899
690.0 74.64043001872245
710.0 74.3134671306141
730.0 73.88213481082424
750.0 73.56852363722368
775.0 73.29554708779659
800.0 73.04654022818626
825.0 72.98738707318408
850.0 72.91702131264658
875.0 72.44254499450768
900.0 71.93771343524345
925.0 72.06320203473604
950.0 72.40723038790433
975.0 73.06773037052163
1000.0 74.27112447053476
1030.0 75.90437344240385
1060.0 77.21374827258411
1090.0 77.27294969625011
1120.0 76.02224360337506
1150.0 74.47859559333558
1180.0 73.78381707700454
1220.0 73.2863141768063
1250.0 72.91226463445761
1280.0 73.15070767756986
1320.0 73.60917146533204
1360.0 73.59457026161998
1400.0 73.0193682096213
1450.0 72.32480766419215
1500.0 72.19827582140384
1550.0 72.4459358840331
1600.0 72.54700714356947
1650.0 72.44636818889197
1700.0 72.92071410360417
1750.0 73.64018169995681
1800.0 74.16675333192627
1850.0 74.056657361246
1900.0 74.0280604957543
1950.0 73.57196907094256
2000.0 72.95485370236825
2060.0 72.74768238115946
2120.0 72.56839797316333
2180.0 71.66512409989375
2240.0 71.00181565155323
2300.0 70.35962666199298
2360.0 70.20706906230707
2400.0 69.89888097332931
2500.0 70.37890284775719
2580.0 70.23021837167941
2650.0 70.27149214778709
2720.0 69.99404087014615
2800.0 69.89274958457912
2900.0 71.22336273818235
3000.0 72.90789827051091
3070.0 73.73890505502645
3150.0 74.0695254530557
3250.0 74.25306693675226
3350.0 74.27796319452449
3450.0 74.05672527241778
3550.0 73.40463776006578
3650.0 72.7643616337151
3750.0 72.68980202711965
3870.0 73.24950771804714
4000.0 73.66709645690834
4120.0 73.74189185475747
4250.0 73.4338859758121
4370.0 73.2418522951302
4500.0 72.48608949168921
4620.0 72.17882848325856
4750.0 72.0469452823232
4870.0 72.41837084852781
5000.0 72.07163228190778
5150.0 72.70624441068126
5300.0 73.70408876256958
5450.0 74.04383622986046
5600.0 73.05821305757307
5800.0 72.90115550905348
6000.0 73.33854776985989
6150.0 73.30272286442916
6300.0 72.67729450354702
6500.0 72.898380101706
6700.0 73.16911686797957
6900.0 71.58409034828937
7100.0 70.29294959822559
7300.0 70.21729803272828
7500.0 68.9434373683715
7750.0 69.33927782714663
8000.0 70.837299151369
8250.0 69.8045252373267
8500.0 70.59404317603713
8750.0 73.9209829402012
9000.0 74.63044352842253
9250.0 74.3445345711895
9500.0 72.53505175847785
9750.0 71.21878993818196
10000.0 71.38099881743159
10300.0 70.78140492188065
10600.0 68.85821553381531
10900.0 69.1123370326555
11200.0 71.38356943630104
11500.0 66.70100352533235
11800.0 68.71598996614026
12200.0 75.31395046544569
12500.0 66.33837224259183
12800.0 68.91213862494702
13200.0 70.08536613524645
13600.0 73.27662976454795
14000.0 70.71140202794176
14500.0 71.79227883302757
15000.0 70.21640908817257
15500.0 67.64419913650711
16000.0 66.43343950112525
16500.0 62.9302332440991
17000.0 64.25261728073316
17500.0 63.706703405446675
18000.0 63.784009061598525
18500.0 63.256900641140646
19000.0 63.35652579559749
19500.0 60.03844893733579
