Freq "Floor Bounce"
20.5078 46.840336944206314
21.9727 49.92072386979788
23.4375 52.38731048662726
24.9023 54.93088524339743
26.3672 57.31598588008907
27.832 59.99670531408353
29.2969 61.901659156546984
30.7617 63.88238353511343
32.2266 65.53037308235605
33.6914 67.37903159935686
35.1562 68.80631804211002
36.6211 70.15181803158679
38.0859 71.38627099534371
39.5508 72.41847134223522
41.0156 73.33078975240473
42.4805 74.25177707487876
43.9453 75.09951652478381
45.4102 75.76251004684701
46.875 76.35056216224906
48.3398 76.8966219163812
51.2695 77.8677384606569
52.7344 78.24157299204444
54.1992 78.60693677666612
55.6641 79.00291572046854
58.5938 79.64025095277104
60.0586 79.92365002685031
62.9883 80.50176695737056
64.4531 80.67311696793969
67.3828 80.95100142215814
68.8477 81.02553952152738
71.7773 81.48570832077178
74.707 81.90919411913187
77.6367 81.78613237826667
79.1016 81.7702524313467
82.0312 82.17753337497939
84.9609 82.31834589241605
87.8906 82.21770739884501
90.8203 82.06228973760508
95.2148 82.35597934858784
98.1445 82.30852452532329
101.074 82.13236207707463
105.469 82.32408169024106
108.398 82.37497723582281
112.793 82.30792829474737
117.188 82.09301375205159
120.117 82.01695824553984
124.512 82.10717745009092
128.906 81.99010153307185
133.301 81.9611627289613
139.16 81.88318644845312
143.555 81.70824357584135
147.949 81.56778543193401
153.809 81.59950121481553
159.668 81.72243057927874
165.527 81.61477095515995
171.387 81.59848761932783
177.246 81.5239715397038
183.105 81.24970799719964
188.965 81.27412574402081
196.289 81.36717154799395
203.613 81.20564168634255
210.938 81.18653034576876
218.262 80.98735195666646
225.586 80.98456279185793
232.91 81.120862791507
241.699 81.11694963199152
250.488 81.51753467035297
259.277 81.2182178495269
268.066 80.97045718551661
276.855 81.15849717002463
287.109 80.73400619980106
297.363 80.95077788194858
307.617 81.02180210987005
319.336 80.91387293760059
329.59 81.18220969845603
341.309 81.5053313032152
353.027 81.95727358097076
366.211 82.71689247300995
379.395 82.85646566806668
392.578 82.33305531644864
405.762 82.02031232249898
420.41 82.55372387028605
435.059 81.75090791420867
451.172 82.61811673289687
465.82 81.70043436094849
483.398 81.55369577817211
499.512 81.49524895261897
517.09 81.15299920397634
536.133 80.87921152213468
555.176 81.27347980318068
574.219 80.73163505619905
594.727 80.09660852352867
615.234 80.1796164364998
637.207 81.19941543947581
659.18 80.88585805964047
682.617 81.7570892784988
707.52 82.23855661380003
732.422 81.94370400755973
757.324 81.48105581416067
785.156 81.58265176639243
811.523 80.68771371608496
840.82 79.16404051927356
870.117 79.39327998253201
900.879 79.32108182696811
933.105 79.69580340104483
965.332 79.42713524425491
1000.49 79.48508732288208
1035.64 78.50938039138336
1072.27 78.99849587535032
1108.89 78.68281594447775
1148.44 78.90274150203678
1189.45 79.0184373813329
1230.47 78.64675589171485
1274.41 78.52790547742188
1319.82 78.37072035442955
1366.7 77.79450066164321
1413.57 77.56148572504615
1463.38 77.6790115206234
1516.11 78.24756237598655
1568.85 77.70095415375418
1624.51 78.32167889720333
1681.64 79.01745577885626
1741.7 78.77530875670563
1803.22 78.53064664382546
1866.21 79.05902259149741
1932.13 77.57964596695732
1999.51 77.88847190224939
2069.82 78.22650547086597
2143.07 78.58934370712055
2219.24 77.74478350840208
2296.88 77.3104284648065
2378.91 76.19912996872651
2462.4 75.97459976452551
2548.83 75.99168823863457
2639.65 75.6396563534332
2731.93 75.12797536716506
2828.61 74.01418792372519
2928.22 74.21090753349257
3030.76 74.45312475744717
3137.7 74.68452145845406
3249.02 74.66852388475311
3363.28 76.0525169872281
3481.93 76.76601848523967
3604.98 76.62409875424623
3732.42 76.61817400622542
3864.26 76.79610405353654
4000.49 76.91056444516846
4141.11 77.40831971698563
4287.6 77.74355722717497
4438.48 78.3072274687186
4595.21 78.6058146256227
4756.35 77.93073006058374
4924.8 78.17806132125385
5097.66 78.9091913220202
5277.83 78.8345992108024
5463.87 78.8009303809418
5657.23 78.64882112831859
5856.45 78.63380177489299
6062.99 78.31018117856993
6276.86 78.290731840754
6498.05 78.55014159964587
6726.56 78.6171428685326
6963.87 78.34412124309954
7209.96 78.33899856794531
7464.84 78.5819531278506
7727.05 78.55227254936808
7999.51 78.33538326961369
8282.23 78.77041779722784
8573.73 78.56267009196904
8876.95 78.38078382984823
9188.96 78.21669626526227
9514.16 78.07497726225515
9849.61 78.32610534070415
10196.8 78.78025488981874
10555.7 78.42816394007653
10927.7 78.44053437018167
11313.0 78.3592996049167
11712.9 77.86563685207724
12126.0 77.59606064631409
12553.7 77.58454539466267
12996.1 77.32405858488922
13454.6 76.70951034219514
13929.2 75.67936175496475
14419.9 74.91238646711048
14928.2 74.70401273832539
15455.6 74.54659554143845
16000.5 74.16095264151457
16564.5 73.96636197022427
17148.9 73.81222896345562
17752.4 73.58000683668004
18379.4 73.28563078763634
19026.9 73.10481068361776
19697.8 73.00119829434857
19999.5 73.09260414381401
