Freq "Front Wall Bounce"
20.5078 45.55783868128691
21.9727 49.18854249943985
23.4375 51.71370975819909
24.9023 54.38445294201591
26.3672 56.888111272205236
27.832 59.62352618946501
29.2969 61.59176928073023
30.7617 63.58936044206294
32.2266 65.29243115677058
33.6914 67.16641509730367
35.1562 68.58837386735847
36.6211 69.947908334311
38.0859 71.17835179451778
39.5508 72.21172405940052
41.0156 73.12760164710649
42.4805 74.0508048610858
43.9453 74.90906412263217
45.4102 75.5604606173158
46.875 76.14713475113052
48.3398 76.69304125558546
51.2695 77.64803983343388
52.7344 78.02498102770664
54.1992 78.40813299743803
55.6641 78.80959859334611
58.5938 79.44680505293303
60.0586 79.71428861733662
62.9883 80.2899830484839
64.4531 80.45601926812598
67.3828 80.73193093017562
68.8477 80.80611695949037
71.7773 81.27658635221033
74.707 81.70039547149707
77.6367 81.57537016551127
79.1016 81.5600791023843
82.0312 81.96519598888518
84.9609 82.10611117981509
87.8906 82.01148847176322
90.8203 81.81704510693817
95.2148 82.14273724613165
98.1445 82.10605438746023
101.074 81.9280245097899
105.469 82.11991343264137
108.398 82.1670341158484
112.793 82.10014292981782
117.188 81.88696485657849
120.117 81.77743737631961
124.512 81.86385059865633
128.906 81.73548452753973
133.301 81.70357967249988
139.16 81.64960985174271
143.555 81.43754373958197
147.949 81.29120317156355
153.809 81.27167879483115
159.668 81.43322679698603
165.527 81.35542558145596
171.387 81.3207208393862
177.246 81.22012113893507
183.105 81.00589810087382
188.965 81.01590838497648
196.289 81.19613762045825
203.613 81.00400571030522
210.938 80.9304309726998
218.262 80.73934244767291
225.586 80.72582587049583
232.91 80.81974936011537
241.699 80.73556283686074
250.488 81.09579937948098
259.277 80.92519810597446
268.066 80.63853163840554
276.855 80.88894024440455
287.109 80.5194041630081
297.363 80.81788027551525
307.617 80.68468008304238
319.336 80.5928282935212
329.59 80.75907545058301
341.309 81.0065552618023
353.027 81.52699730462162
366.211 82.40916545534351
379.395 82.43624967179717
392.578 82.08519652308365
405.762 81.9405474219857
420.41 82.35375512364405
435.059 81.62253766520057
451.172 82.4689592718543
465.82 81.74001364345118
483.398 81.45953568194118
499.512 81.29534503526216
517.09 80.75412130611417
536.133 81.09809998143598
555.176 81.26475776816673
574.219 80.77250026085801
594.727 80.29351258383497
615.234 80.38485920160738
637.207 81.39481905890975
659.18 81.40515615911549
682.617 82.21595942695212
707.52 82.62997317530892
732.422 82.58266889757452
757.324 82.6895654714726
785.156 82.15256411634672
811.523 81.40333922669343
840.82 80.73721085505672
870.117 80.81566258938177
900.879 81.46800938531119
933.105 81.82102166995558
965.332 81.69859117710318
1000.49 81.50025959628942
1035.64 81.5954231929624
1072.27 81.20324977330594
1108.89 81.67359220796186
1148.44 82.14789840020407
1189.45 82.51414864612856
1230.47 82.55012852471553
1274.41 82.70155926425332
1319.82 82.08876949299557
1366.7 81.619345256524
1413.57 82.00961952764217
1463.38 82.28980312746953
1516.11 82.11331792936383
1568.85 81.61402918546666
1624.51 80.89921861652957
1681.64 80.61682572184858
1741.7 81.13974979259869
1803.22 81.98985262387174
1866.21 81.40224838236196
1932.13 80.05665202882236
1999.51 80.66914388514513
2069.82 81.4322242180844
2143.07 81.12239269011444
2219.24 80.69188167792997
2296.88 81.14484697339583
2378.91 80.89563438482561
2462.4 80.41979416484367
2548.83 80.83141196712933
2639.65 80.50030271057774
2731.93 79.71935671267802
2828.61 80.50627046433394
2928.22 79.93152613475469
3030.76 79.60384401148306
3137.7 79.99588560143263
3249.02 80.0091300248801
3363.28 79.9129546023454
3481.93 80.42044560839855
3604.98 80.09864037376104
3732.42 80.15769499677845
3864.26 80.41378812492007
4000.49 80.06904555799579
4141.11 79.66423076078993
4287.6 80.10743798604318
4438.48 78.91523755127646
4595.21 79.64837731025614
4756.35 79.07357975641186
4924.8 78.97510008119174
5097.66 78.02077789278988
5277.83 78.24816081694483
5463.87 79.38527392720034
5657.23 79.00049474831879
5856.45 77.71672462255073
6062.99 78.23003712944744
6276.86 79.06212305894375
6498.05 79.5203524604908
6726.56 79.75436510083905
6963.87 80.34890610540643
7209.96 80.5317895096855
7464.84 80.64497728302211
7727.05 80.84937731693178
7999.51 80.83500469447448
8282.23 80.57868466356655
8573.73 80.19896589444795
8876.95 80.01324258154892
9188.96 79.91997240262438
9514.16 79.74854014623935
9849.61 79.7930075923745
10196.8 79.95667039217092
10555.7 80.0609028515569
10927.7 80.24836658555574
11313.0 80.33072475517119
11712.9 80.35243403769846
12126.0 80.32622645694384
12553.7 80.18564389047175
12996.1 79.71276728504702
13454.6 79.106998944715
13929.2 78.79044541235206
14419.9 78.39954090791491
14928.2 77.99944782578038
15455.6 77.75313487691776
16000.5 77.75840180666037
16564.5 77.79153983232496
17148.9 77.654973488711
17752.4 77.63806716170127
18379.4 77.21516174739355
19026.9 77.02965048344976
19697.8 76.70265129731548
19999.5 76.63626760689672
