Freq "Front Wall Bounce"
20.5078 69.18965541958146
21.9727 71.86936249188236
23.4375 74.27336242748622
24.9023 74.84551984273998
26.3672 76.59796860685103
27.832 78.17939380142118
29.2969 79.14102538563141
30.7617 80.41687803641025
32.2266 81.34210657796915
33.6914 82.15237756143446
35.1562 82.95555235060993
36.6211 83.80397650589038
38.0859 84.36944269327986
39.5508 84.95776512574389
41.0156 85.50520622711014
42.4805 86.12130059644569
43.9453 86.58325181069442
45.4102 86.96563027681258
46.875 87.47519752775581
48.3398 87.7574010352784
51.2695 88.50977291336945
52.7344 88.82637008824173
54.1992 89.0790321738529
55.6641 89.35398459340288
58.5938 89.7880772174233
60.0586 89.94724105951923
62.9883 90.17247080466939
64.4531 90.43257782160637
67.3828 90.68109399630929
68.8477 90.68278977423022
71.7773 90.6442144167278
74.707 90.69145489743143
77.6367 90.63956080231273
79.1016 90.54304358068863
82.0312 90.51175909719811
84.9609 90.50115471203954
87.8906 90.79659782360804
90.8203 91.04480855963972
95.2148 90.8501424481232
98.1445 90.68910637038202
101.074 90.61482449497936
105.469 90.66286626666195
108.398 90.53308835939106
112.793 90.03611220856209
117.188 89.94221967904986
120.117 90.50065996331611
124.512 90.77589427075645
128.906 90.83289706078071
133.301 90.79337851724297
139.16 89.9448686711718
143.555 90.0139941848735
147.949 90.47509745471791
153.809 90.55658855919881
159.668 90.11509984105635
165.527 89.82868952153062
171.387 90.6152929869462
177.246 90.16575443181894
183.105 89.93535649405366
188.965 90.2896677632932
196.289 89.82301319743662
203.613 89.52429362959447
210.938 90.2572922570032
218.262 89.37208573316794
225.586 89.3022289387863
232.91 89.62270723700051
241.699 90.03609636926606
250.488 90.4317778369881
259.277 90.4676490677758
268.066 90.88240112514416
276.855 89.41627442892282
287.109 88.96884738464348
297.363 90.14448898377734
307.617 89.89568206486047
319.336 89.0389372305279
329.59 88.43972851186935
341.309 87.56035027249295
353.027 89.50354124262773
366.211 89.80350829565631
379.395 88.8719962330614
392.578 89.54646406830136
405.762 88.4002110888348
420.41 87.46556137360656
435.059 87.8730399522974
451.172 88.21260030094335
465.82 89.84817464413673
483.398 89.7466955908706
499.512 88.58821969541404
517.09 91.25466677384532
536.133 89.51296900448307
555.176 89.34065062769257
574.219 91.19943331674166
594.727 90.17549886632823
615.234 89.43962654801211
637.207 88.95400678631
659.18 88.97748305880117
682.617 88.81017055081864
707.52 88.64230898689534
732.422 89.19469227875521
757.324 88.4313221270952
785.156 88.33184882613907
811.523 89.55903989315692
840.82 87.76506346366833
870.117 89.56349306674652
900.879 86.9748834544998
933.105 88.56476744516344
965.332 87.52459602131108
1000.49 88.57804666723153
1035.64 87.48393583989547
1072.27 87.97236337935807
1108.89 88.3377028263144
1148.44 88.69685318067083
1189.45 88.19662613475172
1230.47 88.33985160047953
1274.41 88.09877372098443
1319.82 87.74423244384059
1366.7 89.11650002351168
1413.57 89.15701275915777
1463.38 88.82350689165395
1516.11 88.49047958724702
1568.85 88.51607384523982
1624.51 88.71232295317796
1681.64 88.86100555534068
1741.7 89.15634159536933
1803.22 89.65808034688571
1866.21 89.65113108301324
1932.13 89.53958541816894
1999.51 89.6267898678292
2069.82 89.95322547227372
2143.07 89.86674190047862
2219.24 89.57667189453902
2296.88 89.17781258270597
2378.91 88.64010833859561
2462.4 88.23566262588318
2548.83 88.21667676343866
2639.65 88.28457416769369
2731.93 88.24871592021071
2828.61 88.38998694811481
2928.22 88.03135336802377
3030.76 88.11489462009456
3137.7 88.21938339526622
3249.02 88.26408929287308
3363.28 88.42639713155452
3481.93 88.43417508971046
3604.98 88.66804030318588
3732.42 88.52820737621082
3864.26 88.72121914542319
4000.49 88.5289104061122
4141.11 88.44373747291951
4287.6 88.15324106864729
4438.48 88.0721722194268
4595.21 87.79799812836471
4756.35 88.01448854058982
4924.8 88.00425204152972
5097.66 88.44921832602304
5277.83 88.72572515228575
5463.87 88.61603788287553
5657.23 88.65602087816694
5856.45 88.59646273545394
6062.99 88.51081042828534
6276.86 88.36570278879947
6498.05 88.28669529661043
6726.56 88.344297634602
6963.87 88.55538450640307
7209.96 88.6083469649607
7464.84 88.63886259184802
7727.05 88.68475842747347
7999.51 88.60661820913585
8282.23 88.50941153193946
8573.73 88.498702638298
8876.95 88.1353586084863
9188.96 87.09576703370432
9514.16 86.58678965386895
9849.61 86.36318491605547
10196.8 85.91342765755701
10555.7 85.1099377008862
10927.7 86.38494191515287
11313.0 87.82807405217275
11712.9 88.4329285851205
12126.0 88.15744574695236
12553.7 88.31085627130352
12996.1 88.38000031596363
13454.6 88.71505739182736
13929.2 89.17241672746763
14419.9 89.65724585509764
14928.2 90.55272326404253
15455.6 90.55699660354831
16000.5 90.1252513553645
16564.5 90.34410636822403
17148.9 89.95005635190046
17752.4 90.1482940265022
18379.4 92.37344527405818
19026.9 94.8089228682227
19697.8 94.6739133485002
19999.5 94.99653861446829
