Freq "Side Wall Bounce"
20.5078 71.2400536909281
21.9727 73.44382897586779
23.4375 74.66113538759566
24.9023 75.49741362307942
26.3672 77.01536774914767
27.832 78.57225173799233
29.2969 79.5129862651435
30.7617 80.67508194995648
32.2266 81.51936157378744
33.6914 82.29367109091307
35.1562 83.06710546561166
36.6211 83.85882142608696
38.0859 84.41281985266721
39.5508 84.98621233858117
41.0156 85.50896122793752
42.4805 86.06684309646539
43.9453 86.48234141072825
45.4102 86.87410666079674
46.875 87.37654202144735
48.3398 87.65615392713588
51.2695 88.37400423364883
52.7344 88.66722099644582
54.1992 88.89831804168874
55.6641 89.12281412695955
58.5938 89.52341394893055
60.0586 89.66684004751554
62.9883 89.8340938003816
64.4531 90.05100090791223
67.3828 90.31998556813441
68.8477 90.34061495949345
71.7773 90.29689112404394
74.707 90.29507960504155
77.6367 90.2211233983016
79.1016 90.11863190940495
82.0312 90.01291278272174
84.9609 89.93353731556492
87.8906 90.18062770873428
90.8203 90.4304499370313
95.2148 90.17269911821975
98.1445 89.96921952160298
101.074 89.80296528796394
105.469 89.76766291031319
108.398 89.66440414464924
112.793 89.12133072743318
117.188 88.80651999984501
120.117 89.36329569289437
124.512 89.67950318782039
128.906 89.55390711369675
133.301 89.5564572343019
139.16 88.81532475343172
143.555 88.66652618357787
147.949 89.15771618057255
153.809 89.16206639527087
159.668 88.92300075637277
165.527 88.34414295693833
171.387 89.49586248747559
177.246 88.95101862452134
183.105 88.68351402274155
188.965 88.85094473012072
196.289 88.45477756252944
203.613 87.94375128004958
210.938 88.70658154131416
218.262 88.3167010228662
225.586 87.95919411036209
232.91 87.5595354876285
241.699 88.54728685724115
250.488 88.49956596964086
259.277 88.82873208020025
268.066 90.06424005460467
276.855 88.45283783260798
287.109 88.32911226577852
297.363 89.5416126324149
307.617 89.53006105919613
319.336 89.1235350218501
329.59 88.81969065912695
341.309 86.58332968262508
353.027 86.51006181235584
366.211 88.01182638063842
379.395 87.75602016827969
392.578 87.26500055946049
405.762 87.2953069269209
420.41 85.8332792942033
435.059 86.29100096450108
451.172 84.45189738482357
465.82 86.08088490994763
483.398 88.09417188279383
499.512 85.52823560123284
517.09 86.04592292469604
536.133 86.65570582787264
555.176 85.98660745574227
574.219 87.79032667710987
594.727 87.04526487656875
615.234 86.81226863359768
637.207 86.08290141077264
659.18 86.97626692261159
682.617 85.59552150831882
707.52 86.42764011567334
732.422 86.98537730685786
757.324 86.9105850136058
785.156 85.85701410358435
811.523 85.40641162006378
840.82 84.12168946156999
870.117 84.94832478030557
900.879 83.23571134032976
933.105 84.76187275317758
965.332 85.50187663815203
1000.49 85.22609465956323
1035.64 84.35590190339994
1072.27 84.59936256602411
1108.89 84.6375216426445
1148.44 84.64638012651314
1189.45 84.08129740278744
1230.47 83.81470415925216
1274.41 83.71018931957012
1319.82 83.64191284521968
1366.7 83.91816762688585
1413.57 83.15116321014871
1463.38 83.03882404442723
1516.11 82.25472776476721
1568.85 81.71783702402797
1624.51 82.38957069800415
1681.64 82.90028412596253
1741.7 83.14626347922626
1803.22 83.36173207386979
1866.21 83.85164154291735
1932.13 83.76433040075813
1999.51 83.8471078214243
2069.82 83.5891365609259
2143.07 83.2370357608241
2219.24 83.33462947313836
2296.88 82.90400366419192
2378.91 82.56010800958492
2462.4 81.69607753755233
2548.83 81.6446098141113
2639.65 81.83994322674404
2731.93 81.45002938936636
2828.61 81.42247502781024
2928.22 81.47772740742096
3030.76 81.3592591808685
3137.7 81.40465318449098
3249.02 81.53352743885314
3363.28 81.63877981739631
3481.93 81.73772985406588
3604.98 81.70106580477605
3732.42 81.56049402232634
3864.26 81.35755096486957
4000.49 80.95072706061868
4141.11 81.02149650655569
4287.6 81.0945461277442
4438.48 80.85135980514056
4595.21 81.15511728684207
4756.35 81.18906149318256
4924.8 80.91860819088603
5097.66 81.15034921431871
5277.83 81.48789742835905
5463.87 81.29095611407789
5657.23 81.58878918702229
5856.45 81.94071797061036
6062.99 82.0570752405199
6276.86 82.23101541553108
6498.05 82.53620695532784
6726.56 82.7527892054814
6963.87 82.84316373339297
7209.96 82.83542553754427
7464.84 82.89238627422345
7727.05 82.87828716238822
7999.51 82.76099301127988
8282.23 82.72449831518544
8573.73 82.67862017730215
8876.95 82.14088380076743
9188.96 81.20446262962697
9514.16 80.59660903690474
9849.61 80.06243600093205
10196.8 79.46901743402938
10555.7 78.22901609891036
10927.7 79.2554011294387
11313.0 80.44779031044538
11712.9 80.72084940469242
12126.0 80.52332124934125
12553.7 80.40631483003904
12996.1 80.33370501826924
13454.6 80.50875826269959
13929.2 80.87556817421537
14419.9 81.29844057625388
14928.2 81.52749903199518
15455.6 81.04480484404756
16000.5 80.58243312670201
16564.5 80.69540565837501
17148.9 79.67065193924387
17752.4 80.15232394100234
18379.4 83.75839682842322
19026.9 85.4605121818781
19697.8 85.18926497655808
19999.5 84.82650037582712
