Freq,Floor Bounce,Ceiling Bounce,Front Wall Bounce,Side Wall Bounce,Rear Wall Bounce,Total Early Reflection
20.0,22.458761689926277,24.503357341424262,22.617738585940927,22.289695572911924,20.097058116104236,22.6131064624647
20.2909,22.75014459729256,24.804382097258312,22.922948300351308,22.58640084635927,20.39764455009437,22.9122595125517
20.586,23.492568445794078,25.55609593387065,23.681460880355658,23.33521017238759,21.149303155766276,23.66300447915914
20.8855,24.85673037962836,26.93084420365308,25.06540226339949,24.70785047153153,22.524174124349642,25.037190721458686
21.1893,26.6315977825504,28.716650974160686,26.862574870121747,26.492968807804274,24.30937703674003,26.82299695808841
21.4975,28.331179368398395,30.42583259882143,28.585835292665408,28.202650920598003,26.019566660046948,28.53339516566116
21.8102,29.81378578184045,31.916736062480666,30.09276189556259,29.69634839308965,27.51212272992707,30.02666842932429
22.1274,31.023781384819856,33.133016644533726,31.327470509577452,30.917639845823416,28.731853065404252,31.24681751960962
22.4492,31.968762115740063,34.08100007675283,32.295848291748186,31.873328391254333,29.685079287923415,32.200409924729925
22.7758,32.70540616068185,34.81600859970662,33.053477713133205,32.61850043675513,30.42793258335361,32.94312596203916
23.1071,33.33000104383636,35.436029109688505,33.697081153279626,33.251740629706504,31.05769754341337,33.57240491409506
23.4432,33.97491954425557,36.07038344454476,34.355860645452665,33.901337098515754,31.70539238462176,34.21812044582306
23.7841,34.76237306938158,36.84139665295659,35.151981648111146,34.69130506667439,32.49296813403937,35.00281817913459
24.1301,35.70205297324354,37.758396787451105,36.094776187918356,35.62977800783078,33.42999842309287,35.93570717020437
24.4811,36.71991274396187,38.74972057050648,37.11085090953274,36.6449754643419,34.44409142940715,36.94421741086548
24.8372,37.72066354103423,39.717706880151766,38.10366740529712,37.63869207869037,35.438418316885034,37.931372069310825
25.1984,38.63689861719526,40.59803198311114,39.00635128721835,38.545990939727105,36.34698049552135,38.83143734823521
25.5649,39.444337833701056,41.366378059298356,39.795320593289645,39.34184932303354,37.14511987134732,39.62009327129205
25.9368,40.15999100990528,42.041083549806714,40.489420559630545,40.04399014885824,37.851397394524426,40.31544637753923
26.3141,40.828897966327915,42.66816010812305,41.133716390166526,40.69814489803461,38.5102841989188,40.96290170198701
26.6968,41.501809129667876,43.298940713961244,41.78085422852253,41.35639941277147,39.17404926242223,41.61420356954808
27.0851,42.216348397276604,43.97307382782948,42.46938680303465,42.05605159335603,39.88028096345941,42.30770002979402
27.4791,42.986952357012186,44.70688405832199,43.21572075187878,42.81307559201922,40.644179760665864,43.05916013130623
27.8788,43.804693268334674,45.49202806227014,44.0125802425557,43.61897872476034,41.457358165316876,43.86030124376295
28.2843,44.64619992231674,46.304491207538305,44.83678690933165,44.449776086347995,42.295072447429035,44.6873183765063
28.6957,45.48387405139546,47.118223217840026,45.66288187208461,45.27971507926138,43.13239028624126,45.51415111620848
29.1131,46.29737082840212,47.91190705426608,46.46994630437139,46.08744563686584,43.94712497526426,46.31964138849675
29.5365,47.06999198122459,48.66918330098959,47.242241328487594,46.85670423945781,44.72333091726411,47.087550249795
29.9661,47.8007125710639,49.38741534939744,47.976888389120845,47.58436727482622,45.457690105497804,47.81533684871643
30.402,48.49444936825465,50.071270033349734,48.68024499693608,48.27666221631095,46.156206261118584,48.5085197902453
30.8442,49.16787772860086,50.73509893246609,49.36590281723103,48.94835426551951,46.83447654849279,49.181982500713175
31.2929,49.833918600440924,51.3916008332032,50.04622938701739,49.611741093215116,47.504273188289986,49.84821884753502
31.748,50.492571979962705,52.03814542628494,50.71843833808519,50.265805398349386,48.16482646264008,50.50561653861578
32.2098,51.137089629014454,52.667075733493576,51.37367106356429,50.90208748765704,48.80916945680066,51.14637977036166
32.6783,51.75188296485888,53.2620728238751,51.993893258614676,51.50495259217432,49.4206346863494,51.75406508561623
33.1536,52.34328519876648,53.82879777866184,52.584813267087654,52.080947364027026,50.005076944846095,52.33467013001153
33.6359,52.917338805931465,54.37390086597881,53.15121938057764,52.63495584809583,50.569968740181835,52.89409652745621
34.1251,53.48343090697587,54.90734279532815,53.702065850577256,53.17800019121394,51.12428490202912,53.44206641190577
34.6215,54.04125765869246,55.43010448036158,54.23772202088787,53.71064147008549,51.668325572556824,53.97901910201729
35.125,54.58646270165322,55.941478195425915,54.75688401579967,54.230230023144685,52.200762251428074,54.50294657852102
35.6359,55.11374850613221,56.435460724097496,55.25365897073429,54.732120785912045,52.71598942629883,55.0083161098826
36.1543,55.61977442481914,56.914743068234785,55.7300710122815,55.21680745512508,53.214422737422495,55.49575987810471
36.6802,56.10723000567877,57.38036943196023,56.19000961820747,55.68849840860541,53.6978716372864,55.967935656439025
37.2137,56.575472775710125,57.835714349128665,56.63637728777583,56.14662629633311,54.168903666593636,56.426445002727945
37.755,57.0295823686547,58.28517037839589,57.0763252671956,56.59844209977511,54.63239016806456,56.87698491930895
38.3041,57.472684419660325,58.73375711419665,57.515617909987455,57.0473547667258,55.09259920592554,57.32394116868839
38.8613,57.90978082691352,59.18214046076862,57.95837811537746,57.49764325189334,55.55319751955395,57.77063768198582
39.4265,58.33798736580367,59.62658158816548,58.40218814958753,57.94461140141114,56.010415862957544,58.21361105018538
40.0,58.75345774182978,60.060010981239344,58.840157115132754,58.38319959035567,56.457841025398736,58.64695912364107
40.5818,59.15937309937901,60.48198262800041,59.2722835417223,58.81272451635908,56.89664538553002,59.071231541252956
41.1721,59.5640240073034,60.895430885308556,59.70184010911443,59.23868928637596,57.32942723765039,59.490972961897626
41.771,59.97073532618735,61.301025258761044,60.12940410605566,59.66064828011376,57.75860012396602,59.90737390478897
42.3785,60.37674941980269,61.6930326098596,60.545970950786554,60.0740122023043,58.17784527362865,60.314762508147055
42.9949,60.78712458461912,62.073254858652405,60.95411910865023,60.48030164185816,58.5882405325939,60.71563309885009
43.6203,61.21065859819005,62.45243681501533,61.36169208182743,60.88873042825605,59.000343515146355,61.11943648800222
44.2548,61.65927689669668,62.842343457764,61.77882324805144,61.311062610885344,59.42443042773931,61.53748585373198
44.8985,62.122591208873374,63.23600920309063,62.199652782644606,61.73909203342977,59.853553407802025,61.96216988206048
45.5515,62.58466943713984,63.622139198592805,62.611766897916695,62.15981269535138,60.27566289278563,62.38062900012184
46.2141,63.03632358530581,63.99837433241207,63.01217910164476,62.56909630001316,60.686983734673134,62.78845564272574
46.8863,63.48455368628903,64.37400790378892,63.412764257943365,62.97670979406193,61.098066929457104,63.19523917125689
47.5683,63.933528980861226,64.75800621697752,63.82324308690052,63.38919224489476,61.51794326010638,63.60859890501885
48.2602,64.37306956147232,65.14468234412406,64.23815249187722,63.80182217951095,61.94086027956858,64.0220556387931
48.9621,64.79204515905612,65.52269695342761,64.64690113989224,64.20364371877211,62.35615525112813,64.42458366349688
49.6743,65.19908793533006,65.90072739966782,65.05704343944755,64.60292619927375,62.77150199532329,64.82438496365542
50.3968,65.60421299370228,66.28710702038256,65.47758576208645,65.01054931470549,63.19497477266144,65.23074265250703
51.1299,66.00608519002188,66.67682342665516,65.89941635268904,65.42109766822763,63.619651821063925,65.63826250982059
51.8736,66.39299407430205,67.05520364632186,66.30668185948778,65.82168908487236,64.02985261771565,66.03287561908425
52.6281,66.77583111586821,67.42689489097495,66.70367705166399,66.21813859440834,64.42870277429734,66.42053399326798
53.3936,67.16052313861597,67.79655006736776,67.0915316984814,66.61370116684228,64.82016840373413,66.8050511108554
54.1702,67.54837471389045,68.16017585367149,67.4696755658839,67.00652937896524,65.20095467976824,67.18481172997835
54.9581,67.938133490178,68.51478062025133,67.83572195647305,67.3925207276811,65.5707700946651,67.55747794558133
55.7575,68.32525042214559,68.85605895062561,68.18916797289874,67.76482893970567,65.92794341207822,67.91937767868718
56.5685,68.69778744843951,69.17469739568689,68.52289195156334,68.11385313262055,66.2660761848006,68.26143406961144
57.3914,69.05539255391533,69.47170817431146,68.84309691926522,68.43959750153361,66.59091353258191,68.58589113688323
58.2261,69.39071393541552,69.74640950031998,69.14946801322651,68.73946657785068,66.90168883780107,68.89029592777095
59.073,69.69341016289484,69.98909811091916,69.43529182614122,69.0051767622088,67.19155844391351,69.16608294545152
59.9323,69.98815541995636,70.23042126143041,69.7271116099786,69.2685019747518,67.48630496973702,69.4412939480055
60.804,70.27662923263149,70.47337587176182,70.02510848210918,69.53373035438914,67.78495682082936,69.71777024529197
61.6884,70.52513077832295,70.68600698742135,70.29179400147152,69.77104395462068,68.05050969513218,69.96172639949613
62.5857,70.77658580117816,70.9080214211725,70.56431130750258,70.02241525247548,68.31897455757873,70.21298344976375
63.496,71.06393714353032,71.17110292916865,70.87016137421516,70.32093325680803,68.61833191212177,70.50236867388523
64.4196,71.31219099683305,71.39555277314224,71.1276025711343,70.58565701160894,68.86941915806334,70.75061890890736
65.3566,71.52104945144036,71.57798794010445,71.33462520404889,70.81094083608563,69.07157026078094,70.95526226383747
66.3073,71.7565875417075,71.78104101204059,71.55753170025153,71.05671628432863,69.29275657635296,71.1806906874781
67.2717,71.98016138795938,71.96804237006576,71.76143470289477,71.28163613326826,69.50013984234475,71.38976473840766
68.2502,72.18077641855118,72.12871282628605,71.93983917854801,71.47355612959221,69.68649969336285,71.57289636606359
69.2429,72.37474916393204,72.28374262337628,72.11544845564868,71.65211920323436,69.87297193704283,71.75005850465091
70.2501,72.53741194743465,72.40882325786357,72.26547380010969,71.79547705172509,70.03392272860391,71.89749801712871
71.2719,72.67344959897777,72.50962910943922,72.39643614406233,71.9141102230922,70.1729728742677,72.02151930910613
72.3086,72.79119584084619,72.59413080029128,72.51494887829138,72.01983632960257,70.2957623347446,72.13032942009977
73.3603,72.89761852901306,72.6642823348412,72.62234422075393,72.11889131036254,70.40329194489557,72.22762670842998
74.4274,72.99330957430065,72.71905195294644,72.71506226149634,72.20967014659828,70.49409952870968,72.3120458009383
75.5099,73.07759665988867,72.755394094989,72.79021841296641,72.28635746377792,70.56618809242248,72.38074386351934
76.6083,73.17115245411274,72.79732453784223,72.8683473832296,72.36773449474013,70.643921432468,72.45522470771449
77.7226,73.26672488183328,72.84058472588734,72.94503502807525,72.44346949241667,70.7215163673247,72.52910221511944
78.8531,73.35401505202593,72.87887224985526,73.01402540154807,72.50717610560106,70.79210999851512,72.5950402962472
80.0,73.42733888692337,72.90891490459055,73.07218124775673,72.5566856641556,70.85025663356127,72.64913631157224
81.1636,73.49333834859935,72.93638409693135,73.1251896314602,72.60429785198151,70.90307789965516,72.69876877766141
82.3442,73.54069131055927,72.9449408961562,73.16018631556491,72.64079726385916,70.93800682013837,72.73145323640529
83.5419,73.57974839308255,72.9405319732057,73.18576500396749,72.67773804598826,70.96779248297446,72.7567921738796
84.757,73.62082050875495,72.9327097606459,73.21007588406145,72.72311689046938,71.00364770922988,72.78416084463562
85.9899,73.66487115079246,72.92477895882669,73.23537829096858,72.77546556272002,71.04894135687175,72.81517394080022
87.2406,73.71556645037855,72.92671816218227,73.26822612864918,72.83411989544706,71.10705056587955,72.8545528545932
88.5096,73.76858121454376,72.94024698224469,73.30823593560257,72.89198932217701,71.17207105528252,72.89928481340273
89.797,73.82294813682002,72.96514864138864,73.35556259876684,72.94554993901373,71.23779304525499,72.94753966688693
91.1031,73.87566459775444,72.99513273052185,73.40600879387141,72.98856965275111,71.29539934306307,72.99392362182012
92.4282,73.93471572174997,73.02923742483493,73.46440020413179,73.0291180893613,71.35087694753537,73.04367207533403
93.7726,74.00344550411805,73.06477080199565,73.53166202292456,73.07278599703048,71.407455674765,73.0988406069974
95.1366,74.08949860114099,73.10667884050717,73.61240240150218,73.13123093822936,71.47657525422318,73.16720794866391
96.5204,74.18786747817154,73.1539785745113,73.70029794257164,73.20562166730507,71.55698103512965,73.24602935405612
97.9243,74.29153873456268,73.20722173620693,73.78885677993638,73.29497766914665,71.6457689883199,73.3316502661147
99.3486,74.39388186354444,73.26463020536929,73.87195934769049,73.39089520616696,71.73972841270957,73.418602634648
100.794,74.49287443977737,73.3258918569551,73.9509265929091,73.49041672356663,71.83915944002985,73.50605729171328
102.26,74.58651784337646,73.38478541537931,74.02792607575566,73.58231549984542,71.94018957374197,73.59002790391072
103.747,74.6725067820462,73.43471018354826,74.10496095735311,73.66308795121584,72.03795505472897,73.66775106777438
105.256,74.75918330511998,73.4810863181739,74.19216479597092,73.74155556865132,72.13464753557345,73.74667318240455
106.787,74.83520879333099,73.51284907303057,74.27396380993153,73.80754202889786,72.21202566854657,73.81386842835485
108.34,74.8919373136646,73.52527962051093,74.33303271342076,73.85652670308302,72.26090268610405,73.86025078539943
109.916,74.96735987912957,73.56172714432184,74.40214040519407,73.92584238918859,72.32347363444839,73.92407122731701
111.515,75.02312888351028,73.58184520648099,74.43986906266,73.9737957244774,72.3669654317916,73.96600758000731
113.137,75.10583539935269,73.6300620681318,74.50035303049468,74.04590069710234,72.44299665201324,74.0344127172337
114.783,75.20918297269445,73.69733662162254,74.58605564613306,74.13973672476392,72.54395002164127,74.12503789544203
116.452,75.30718756558419,73.75591906272224,74.67249068675592,74.22873490027264,72.63787239068871,74.21097090682876
118.146,75.41320424608698,73.8233280463549,74.77293595158658,74.33030416346587,72.73883434227399,74.3072195674584
119.865,75.50893334868636,73.88556717863973,74.86409787883376,74.4227844832269,72.83012897804805,74.39468505896131
121.608,75.59703959031526,73.9438141757938,74.94552721700363,74.50665528666146,72.91724202012931,74.47501393479205
123.377,75.68215358891254,73.99427954853446,75.02151078184146,74.58444025248211,73.00354630857824,74.55066826728016
125.171,75.76821895329498,74.0366380516815,75.0976309877438,74.66052401647289,73.08684985385344,74.62445404434641
126.992,75.8661714967702,74.08609523335971,75.18634337492178,74.74730692670065,73.17653476877273,74.70849253129575
128.839,75.96207786155004,74.14166228437422,75.27351758744084,74.83446708091665,73.26312542766638,74.79240534756016
130.713,76.03502951265783,74.18727171322068,75.33913893309645,74.90092926393127,73.33083776217391,74.8569738339591
132.615,76.0617335257973,74.19341774947159,75.36000056310215,74.9239921657102,73.3566797919611,74.87799699982541
134.543,76.06753415207245,74.1738485718422,75.35994461222425,74.92714018508953,73.36129198517732,74.87746028667472
136.5,76.1056503939423,74.17586828028271,75.39046936962306,74.96090347599494,73.3950724364172,74.90626578256106
138.486,76.14870133047201,74.18355330208844,75.42489375747134,74.99672366869838,73.43153818912488,74.93903114806677
140.5,76.1050357792084,74.10668142002638,75.3729173900761,74.94257418430053,73.38155130811155,74.88492120207113
142.544,76.01735787077216,73.988552570467,75.27826837835211,74.84377824480593,73.28770619423635,74.78747796201662
144.617,75.98975315798269,73.93445886546502,75.24561237824585,74.81098284014011,73.25564673587351,74.75266109322237
146.721,75.96619452859353,73.88255330208848,75.21575130569137,74.78792050942432,73.22935446991157,74.72271963577961
148.855,75.96729186300213,73.8541741351501,75.20856471055028,74.78766275815902,73.22786096725709,74.71647230315052
151.02,75.95968087468978,73.819472619769,75.19109397368824,74.77171134786458,73.21588318946756,74.69990384858637
153.217,75.94700309591848,73.78341121578245,75.17094290226746,74.74827452585963,73.19916243704571,74.67897849678721
155.445,75.9323136700337,73.74499517018616,75.14909613083289,74.72685891825815,73.18025109274458,74.65686424124654
157.706,75.92464700034313,73.71354133736148,75.13495808738891,74.71725633517894,73.16862397633771,74.64294173914227
160.0,75.95075049818888,73.71628749623046,75.15337723480881,74.74024550507409,73.18983545212275,74.66222905227714
162.327,75.99355933119124,73.73791559664856,75.18679911292551,74.77394870262272,73.22956963333122,74.69724208903601
164.688,76.04163120283391,73.7669451244819,75.22723724639613,74.81426671488988,73.27715905703323,74.73890904848817
167.084,76.07293251556904,73.7754621139624,75.25410687188152,74.84138137048076,73.30535988968167,74.76428716625374
169.514,76.09482208806075,73.77256659312579,75.27410148726469,74.85969300357385,73.31906783054183,74.77991523718059
171.98,76.08145299337924,73.73643920646803,75.25223853760602,74.84059459913452,73.2985406984357,74.75884955438917
174.481,75.98387305824458,73.62090682908631,75.14324210363647,74.73901635192472,73.20076435655686,74.6550364636225
177.019,75.96234781266362,73.58539127382006,75.1159794374199,74.71378447990584,73.18091671665142,74.62950919628263
179.594,75.99738463337455,73.61114404391641,75.15012924834522,74.74121146224698,73.21471011419787,74.66115928044506
182.206,76.00293053807633,73.6104191059573,75.14911606238748,74.73860002196311,73.2171142750714,74.66214118800849
184.856,76.00319269859646,73.59456437048637,75.1298281898285,74.73354451772845,73.21377527367456,74.65390756580517
187.545,76.04123715418584,73.61039138418842,75.15367510337579,74.7666688783292,73.2476283135998,74.68370513968149
190.273,76.06061899006608,73.61232230522134,75.17267338443868,74.77811257928155,73.26385955702514,74.69820897979979
193.041,75.99328777957642,73.54141518041546,75.1095675537618,74.707767521518,73.19652125164076,74.63064934856789
195.849,75.93968176199958,73.48352674274058,75.04731234663221,74.65302522193342,73.14027322173291,74.57383541295744
198.697,75.94339720810171,73.47344058989793,75.03487345259566,74.64875011678014,73.1382339367083,74.56934988151119
201.587,75.91428580655052,73.43057838098521,74.99868191083041,74.61476499682789,73.10941218649184,74.53557707617502
204.52,75.86086943682521,73.37134858537625,74.94663451565233,74.5625961501974,73.0564699894018,74.48188688514108
207.494,75.8659892824689,73.3745318531341,74.94877645888369,74.56400266006165,73.054695147604,74.48429479510523
210.512,75.85008930367994,73.36095986881027,74.92937581039436,74.53941601378361,73.03768837591038,74.46604904100336
213.574,75.7979892824689,73.31272911986909,74.8766687613713,74.48507291316773,72.99381520708461,74.41514324559273
216.681,75.79194198573212,73.30310794587253,74.863676134262,74.47811155965233,72.98589867190054,74.40654211220668
219.833,75.80907699925628,73.31997134889244,74.87154011081132,74.48859426298561,72.99775105744604,74.41946229817894
223.03,75.80482053595746,73.32750688059822,74.86853730428079,74.4768529625941,72.99453131797003,74.41594725223744
226.274,75.8266191656363,73.35109868446764,74.88996684161576,74.49321072794028,73.01126543384608,74.43611024178455
229.565,75.8217872655203,73.34767227194594,74.87603414485052,74.4828119730613,73.00325182004168,74.42789188446953
232.905,75.8201435971015,73.36708621311894,74.86892297564104,74.47707578630613,73.00327544738344,74.42774015831147
