Freq,Floor Bounce,Ceiling Bounce,Front Wall Bounce,Side Wall Bounce,Rear Wall Bounce,Total Early Reflection
20.0,22.458761689926263,24.503357341424277,22.61773858594094,22.28969557291194,20.097058116104222,22.613106462464742
20.2909,22.750144597292547,24.804382097258355,22.922948300351294,22.586400846359282,20.397644550094356,22.912259512551742
20.586,23.492568445794063,25.556095933870637,23.681460880355672,23.335210172387576,21.149303155766262,23.663004479159127
20.8855,24.856730379628374,26.930844203653066,25.065402263399506,24.707850471531515,22.524174124349628,25.03719072145867
21.1893,26.631597782550358,28.7166509741607,26.862574870121733,26.49296880780426,24.309377036740045,26.822996958088396
21.4975,28.33117936839838,30.425832598821444,28.585835292665394,28.202650920598018,26.019566660046934,28.533395165661176
21.8102,29.813785781840465,31.91673606248068,30.092761895562575,29.696348393089636,27.512122729927086,30.026668429324303
22.1274,31.02378138481987,33.13301664453368,31.327470509577466,30.91763984582346,28.731853065404238,31.246817519609607
22.4492,31.96876211574005,34.081000076752844,32.29584829174817,31.87332839125432,29.6850792879234,32.20040992472991
22.7758,32.70540616068186,34.816008599706635,33.05347771313319,32.61850043675514,30.427932583353595,32.943125962039176
23.1071,33.33000104383635,35.43602910968849,33.69708115327964,33.25174062970649,31.057697543413383,33.572404914095074
23.4432,33.974919544255584,36.070383444544746,34.35586064545268,33.90133709851574,31.705392384621774,34.218120445823075
23.7841,34.76237306938157,36.841396652956604,35.15198164811116,34.6913050666744,32.49296813403936,35.00281817913461
24.1301,35.702052973243525,37.75839678745112,36.09477618791837,35.629778007830765,33.42999842309288,35.93570717020435
24.4811,36.71991274396183,38.74972057050647,37.11085090953273,36.64497546434191,34.444091429407166,36.94421741086546
24.8372,37.72066354103421,39.71770688015175,38.10366740529713,37.63869207869038,35.43841831688502,37.93137206931081
25.1984,38.63689861719524,40.59803198311113,39.00635128721834,38.54599093972709,36.346980495521336,38.8314373482352
25.5649,39.44433783370107,41.36637805929837,39.79532059328966,39.34184932303356,37.145119871347305,39.62009327129206
25.9368,40.15999100990527,42.04108354980673,40.48942055963056,40.043990148858256,37.85139739452444,40.315446377539246
26.3141,40.8288979663279,42.66816010812306,41.13371639016651,40.69814489803463,38.51028419891881,40.96290170198702
26.6968,41.50180912966789,43.29894071396126,41.780854228522486,41.35639941277148,39.174049262422216,41.614203569548096
27.0851,42.21634839727662,43.97307382782952,42.469386803034666,42.05605159335602,39.8802809634594,42.307700029794034
27.4791,42.9869523570122,44.706884058322004,43.21572075187876,42.81307559201923,40.64417976066585,43.05916013130624
27.8788,43.80469326833466,45.49202806227012,44.012580242555686,43.618978724760325,41.45735816531686,43.860301243762905
28.2843,44.646199922316725,46.30449120753832,44.836786909331636,44.44977608634801,42.29507244742902,44.68731837650628
28.6957,45.483874051395475,47.11822321784004,45.662881872084625,45.27971507926139,43.13239028624125,45.514151116208495
29.1131,46.29737082840208,47.91190705426607,46.469946304371405,46.08744563686582,43.94712497526427,46.319641388496734
29.5365,47.069991981224604,48.6691833009896,47.24224132848761,46.8567042394578,44.72333091726409,47.087550249795015
29.9661,47.80071257106391,49.38741534939746,47.97688838912086,47.58436727482621,45.45769010549779,47.81533684871641
30.402,48.494449368254664,50.07127003334975,48.680244996936096,48.27666221631097,46.1562062611186,48.508519790245316
30.8442,49.16787772860084,50.7350989324661,49.365902817231046,48.9483542655195,46.8344765484928,49.18198250071319
31.2929,49.83391860044091,51.3916008332032,50.046229387017405,49.6117410932151,47.50427318829,49.84821884753504
31.748,50.49257197996272,52.03814542628494,50.71843833808522,50.265805398349386,48.16482646264009,50.50561653861578
32.2098,51.13708962901447,52.667075733493576,51.37367106356429,50.90208748765704,48.809169456800674,51.146379770361676
32.6783,51.75188296485888,53.26207282387509,51.993893258614676,51.50495259217432,49.42063468634939,51.75406508561623
33.1536,52.343285198766495,53.82879777866185,52.58481326708767,52.080947364027026,50.00507694484608,52.33467013001153
33.6359,52.91733880593145,54.373900865978825,53.15121938057763,52.63495584809584,50.569968740181835,52.89409652745621
34.1251,53.48343090697588,54.90734279532812,53.702065850577256,53.17800019121394,51.12428490202912,53.44206641190577
34.6215,54.04125765869246,55.43010448036158,54.2377220208879,53.71064147008549,51.66832557255681,53.979019102017304
35.125,54.58646270165325,55.941478195425915,54.756884015799656,54.230230023144685,52.200762251428074,54.50294657852103
35.6359,55.1137485061322,56.435460724097496,55.25365897073429,54.732120785912045,52.71598942629885,55.0083161098826
36.1543,55.61977442481914,56.914743068234756,55.7300710122815,55.21680745512508,53.214422737422495,55.49575987810471
36.6802,56.10723000567879,57.38036943196023,56.19000961820747,55.688498408605426,53.6978716372864,55.967935656439025
37.2137,56.575472775710125,57.835714349128665,56.63637728777583,56.14662629633311,54.16890366659365,56.426445002727945
37.755,57.0295823686547,58.28517037839589,57.0763252671956,56.59844209977513,54.63239016806456,56.87698491930895
38.3041,57.472684419660354,58.73375711419665,57.515617909987455,57.04735476672582,55.092599205925524,57.32394116868839
38.8613,57.90978082691349,59.18214046076861,57.95837811537746,57.49764325189334,55.55319751955395,57.770637681985804
39.4265,58.337987365803684,59.62658158816548,58.40218814958753,57.94461140141115,56.01041586295756,58.213611050185364
40.0,58.75345774182978,60.06001098123937,58.84015711513277,58.38319959035567,56.457841025398736,58.64695912364107
40.5818,59.159373099378996,60.481982628000395,59.2722835417223,58.81272451635908,56.89664538553001,59.071231541252956
41.1721,59.5640240073034,60.89543088530857,59.70184010911444,59.238689286375944,57.32942723765041,59.490972961897626
41.771,59.97073532618735,61.301025258761044,60.12940410605566,59.66064828011376,57.75860012396602,59.907373904788955
42.3785,60.37674941980271,61.693032609859614,60.545970950786554,60.0740122023043,58.17784527362866,60.314762508147055
42.9949,60.787124584619136,62.073254858652376,60.95411910865022,60.480301641858176,58.5882405325939,60.71563309885009
43.6203,61.21065859819005,62.452436815015304,61.36169208182743,60.88873042825605,59.000343515146355,61.11943648800222
44.2548,61.65927689669668,62.842343457764,61.77882324805145,61.31106261088536,59.42443042773931,61.537485853731994
44.8985,62.12259120887336,63.23600920309063,62.19965278264459,61.739092033429785,59.853553407802025,61.962169882060465
45.5515,62.58466943713984,63.62213919859282,62.611766897916695,62.15981269535138,60.27566289278563,62.38062900012184
46.2141,63.03632358530584,63.998374332412055,63.01217910164476,62.56909630001314,60.686983734673134,62.78845564272574
46.8863,63.48455368628902,64.37400790378894,63.412764257943365,62.97670979406193,61.098066929457104,63.19523917125689
47.5683,63.933528980861226,64.75800621697752,63.82324308690052,63.38919224489476,61.51794326010638,63.60859890501885
48.2602,64.37306956147232,65.14468234412408,64.23815249187722,63.80182217951095,61.94086027956858,64.02205563879313
48.9621,64.79204515905613,65.52269695342761,64.64690113989224,64.2036437187721,62.35615525112813,64.42458366349689
49.6743,65.19908793533006,65.90072739966782,65.05704343944754,64.60292619927375,62.77150199532329,64.82438496365542
50.3968,65.60421299370228,66.28710702038256,65.47758576208645,65.01054931470549,63.19497477266145,65.23074265250705
51.1299,66.00608519002188,66.67682342665516,65.89941635268906,65.42109766822763,63.61965182106394,65.63826250982058
51.8736,66.39299407430207,67.05520364632186,66.30668185948778,65.82168908487236,64.02985261771565,66.03287561908425
52.6281,66.77583111586821,67.42689489097495,66.70367705166399,66.21813859440834,64.42870277429734,66.42053399326798
53.3936,67.16052313861597,67.79655006736776,67.09153169848142,66.61370116684228,64.82016840373413,66.8050511108554
54.1702,67.54837471389045,68.16017585367149,67.4696755658839,67.00652937896524,65.20095467976824,67.18481172997835
54.9581,67.93813349017802,68.51478062025134,67.83572195647305,67.3925207276811,65.57077009466508,67.55747794558134
55.7575,68.32525042214559,68.85605895062561,68.18916797289874,67.76482893970567,65.92794341207822,67.91937767868718
56.5685,68.69778744843951,69.17469739568689,68.52289195156334,68.11385313262056,66.2660761848006,68.26143406961144
57.3914,69.05539255391533,69.47170817431144,68.84309691926524,68.43959750153361,66.59091353258191,68.58589113688322
58.2261,69.3907139354155,69.74640950031998,69.14946801322651,68.73946657785069,66.90168883780109,68.89029592777095
59.073,69.69341016289484,69.98909811091916,69.43529182614122,69.0051767622088,67.1915584439135,69.16608294545152
59.9323,69.98815541995636,70.23042126143041,69.7271116099786,69.26850197475181,67.486304969737,69.4412939480055
60.804,70.27662923263148,70.47337587176182,70.02510848210918,69.53373035438912,67.78495682082936,69.71777024529197
61.6884,70.52513077832295,70.68600698742137,70.29179400147152,69.7710439546207,68.05050969513218,69.96172639949613
62.5857,70.77658580117816,70.9080214211725,70.56431130750258,70.02241525247548,68.31897455757874,70.21298344976375
63.496,71.06393714353032,71.17110292916865,70.87016137421516,70.32093325680802,68.61833191212177,70.50236867388523
64.4196,71.31219099683304,71.39555277314224,71.1276025711343,70.58565701160894,68.86941915806334,70.75061890890734
65.3566,71.52104945144038,71.57798794010444,71.33462520404888,70.81094083608563,69.07157026078092,70.95526226383747
66.3073,71.7565875417075,71.78104101204059,71.55753170025153,71.05671628432864,69.29275657635296,71.1806906874781
67.2717,71.98016138795938,71.96804237006576,71.76143470289477,71.28163613326826,69.50013984234475,71.38976473840766
68.2502,72.18077641855118,72.12871282628603,71.93983917854801,71.47355612959223,69.68649969336285,71.57289636606359
69.2429,72.37474916393204,72.2837426233763,72.11544845564869,71.65211920323436,69.87297193704285,71.75005850465092
70.2501,72.53741194743465,72.40882325786356,72.26547380010967,71.79547705172507,70.03392272860391,71.89749801712871
71.2719,72.67344959897777,72.50962910943922,72.39643614406233,71.9141102230922,70.17297287426769,72.02151930910613
72.3086,72.79119584084619,72.59413080029128,72.51494887829136,72.01983632960257,70.2957623347446,72.13032942009977
73.3603,72.89761852901304,72.6642823348412,72.62234422075392,72.11889131036254,70.40329194489556,72.22762670843
74.4274,72.99330957430065,72.71905195294644,72.71506226149634,72.20967014659828,70.49409952870968,72.31204580093828
75.5099,73.07759665988866,72.755394094989,72.79021841296641,72.28635746377792,70.56618809242248,72.38074386351934
76.6083,73.17115245411274,72.79732453784223,72.8683473832296,72.36773449474012,70.643921432468,72.45522470771449
77.7226,73.26672488183328,72.84058472588734,72.94503502807525,72.44346949241667,70.72151636732468,72.52910221511945
78.8531,73.35401505202593,72.87887224985526,73.01402540154807,72.50717610560108,70.79210999851512,72.59504029624719
80.0,73.42733888692337,72.90891490459055,73.07218124775673,72.5566856641556,70.85025663356129,72.64913631157224
81.1636,73.49333834859935,72.93638409693136,73.1251896314602,72.60429785198151,70.90307789965516,72.69876877766143
82.3442,73.54069131055928,72.9449408961562,73.16018631556491,72.64079726385916,70.93800682013837,72.73145323640529
83.5419,73.57974839308255,72.94053197320571,73.1857650039675,72.67773804598826,70.96779248297446,72.7567921738796
84.757,73.62082050875495,72.9327097606459,73.21007588406144,72.72311689046938,71.00364770922988,72.78416084463564
85.9899,73.66487115079246,72.92477895882669,73.23537829096858,72.77546556272002,71.04894135687175,72.81517394080022
87.2406,73.71556645037853,72.92671816218227,73.26822612864918,72.83411989544706,71.10705056587955,72.85455285459318
88.5096,73.76858121454376,72.94024698224469,73.30823593560257,72.89198932217703,71.17207105528252,72.89928481340274
89.797,73.82294813682002,72.96514864138864,73.35556259876684,72.94554993901373,71.23779304525499,72.94753966688694
91.1031,73.87566459775444,72.99513273052185,73.40600879387141,72.98856965275112,71.29539934306305,72.99392362182013
92.4282,73.93471572174997,73.02923742483493,73.46440020413179,73.0291180893613,71.35087694753537,73.04367207533403
93.7726,74.00344550411803,73.06477080199565,73.53166202292456,73.07278599703048,71.407455674765,73.0988406069974
95.1366,74.08949860114099,73.10667884050717,73.61240240150218,73.13123093822935,71.47657525422318,73.16720794866393
96.5204,74.18786747817154,73.15397857451129,73.70029794257164,73.20562166730507,71.55698103512967,73.24602935405613
97.9243,74.29153873456268,73.20722173620692,73.78885677993638,73.29497766914665,71.6457689883199,73.3316502661147
99.3486,74.39388186354444,73.26463020536929,73.87195934769049,73.39089520616696,71.73972841270958,73.41860263464801
100.794,74.49287443977735,73.32589185695508,73.9509265929091,73.49041672356663,71.83915944002985,73.50605729171328
102.26,74.58651784337644,73.38478541537931,74.02792607575566,73.58231549984544,71.94018957374197,73.59002790391071
103.747,74.67250678204618,73.43471018354826,74.10496095735311,73.66308795121586,72.03795505472897,73.66775106777436
105.256,74.75918330511998,73.4810863181739,74.19216479597092,73.74155556865131,72.13464753557344,73.74667318240455
106.787,74.83520879333099,73.51284907303057,74.27396380993153,73.80754202889786,72.21202566854657,73.81386842835484
108.34,74.89193731366461,73.52527962051093,74.33303271342076,73.856526703083,72.26090268610403,73.86025078539942
109.916,74.96735987912957,73.56172714432184,74.40214040519407,73.92584238918859,72.32347363444838,73.924071227317
111.515,75.02312888351028,73.581845206481,74.43986906266,73.9737957244774,72.3669654317916,73.96600758000731
113.137,75.10583539935269,73.63006206813179,74.50035303049468,74.04590069710234,72.44299665201322,74.03441271723372
114.783,75.20918297269444,73.69733662162254,74.58605564613305,74.13973672476394,72.54395002164127,74.12503789544203
116.452,75.3071875655842,73.75591906272226,74.67249068675592,74.22873490027264,72.63787239068871,74.21097090682875
118.146,75.41320424608696,73.8233280463549,74.77293595158658,74.33030416346588,72.73883434227398,74.30721956745839
119.865,75.50893334868636,73.88556717863973,74.86409787883376,74.4227844832269,72.83012897804805,74.39468505896131
121.608,75.59703959031526,73.94381417579379,74.94552721700366,74.50665528666146,72.91724202012931,74.47501393479206
123.377,75.68215358891254,73.99427954853446,75.02151078184147,74.5844402524821,73.00354630857822,74.55066826728016
125.171,75.76821895329498,74.0366380516815,75.0976309877438,74.66052401647289,73.08684985385347,74.62445404434641
126.992,75.8661714967702,74.08609523335971,75.18634337492179,74.74730692670065,73.17653476877274,74.70849253129575
128.839,75.96207786155003,74.1416622843742,75.27351758744084,74.83446708091665,73.26312542766638,74.79240534756016
130.713,76.03502951265783,74.18727171322068,75.33913893309645,74.90092926393127,73.3308377621739,74.8569738339591
132.615,76.06173352579728,74.19341774947159,75.36000056310215,74.92399216571022,73.3566797919611,74.87799699982541
134.543,76.06753415207245,74.1738485718422,75.35994461222425,74.92714018508954,73.36129198517732,74.8774602866747
136.5,76.10565039394228,74.17586828028271,75.39046936962305,74.96090347599494,73.3950724364172,74.90626578256106
138.486,76.14870133047201,74.18355330208846,75.42489375747134,74.99672366869838,73.4315381891249,74.93903114806677
140.5,76.10503577920838,74.10668142002638,75.3729173900761,74.94257418430053,73.38155130811155,74.88492120207113
142.544,76.01735787077214,73.988552570467,75.27826837835212,74.84377824480595,73.28770619423634,74.78747796201662
144.617,75.98975315798268,73.93445886546502,75.24561237824585,74.81098284014011,73.25564673587351,74.75266109322237
146.721,75.96619452859353,73.88255330208847,75.21575130569138,74.78792050942432,73.22935446991158,74.72271963577961
148.855,75.96729186300215,73.8541741351501,75.20856471055028,74.78766275815902,73.22786096725709,74.71647230315052
151.02,75.95968087468978,73.819472619769,75.19109397368824,74.77171134786457,73.21588318946758,74.69990384858636
153.217,75.94700309591849,73.78341121578245,75.17094290226746,74.74827452585963,73.19916243704571,74.67897849678721
155.445,75.9323136700337,73.74499517018616,75.14909613083287,74.72685891825815,73.18025109274458,74.65686424124652
157.706,75.92464700034313,73.71354133736148,75.13495808738891,74.71725633517894,73.16862397633771,74.64294173914227
160.0,75.95075049818888,73.71628749623048,75.1533772348088,74.74024550507409,73.18983545212274,74.66222905227716
162.327,75.99355933119124,73.73791559664858,75.18679911292551,74.7739487026227,73.22956963333122,74.69724208903601
164.688,76.04163120283391,73.7669451244819,75.22723724639613,74.81426671488987,73.27715905703323,74.73890904848817
167.084,76.07293251556904,73.77546211396242,75.25410687188152,74.84138137048075,73.30535988968167,74.76428716625374
169.514,76.09482208806077,73.77256659312579,75.27410148726469,74.85969300357385,73.31906783054183,74.77991523718057
171.98,76.08145299337926,73.73643920646805,75.25223853760602,74.8405945991345,73.2985406984357,74.75884955438917
174.481,75.98387305824457,73.62090682908631,75.14324210363647,74.73901635192472,73.20076435655686,74.65503646362248
177.019,75.96234781266362,73.58539127382008,75.1159794374199,74.71378447990584,73.18091671665141,74.62950919628263
179.594,75.99738463337455,73.6111440439164,75.15012924834522,74.74121146224698,73.21471011419786,74.66115928044508
182.206,76.00293053807633,73.6104191059573,75.14911606238748,74.73860002196311,73.2171142750714,74.66214118800849
184.856,76.00319269859646,73.59456437048637,75.1298281898285,74.73354451772845,73.21377527367456,74.65390756580516
187.545,76.04123715418584,73.61039138418842,75.15367510337579,74.7666688783292,73.24762831359982,74.68370513968149
190.273,76.06061899006608,73.61232230522134,75.17267338443868,74.77811257928155,73.26385955702514,74.69820897979979
193.041,75.99328777957643,73.54141518041546,75.1095675537618,74.707767521518,73.19652125164076,74.63064934856789
195.849,75.93968176199958,73.4835267427406,75.04731234663221,74.65302522193342,73.14027322173291,74.57383541295744
198.697,75.94339720810171,73.47344058989793,75.03487345259566,74.64875011678014,73.1382339367083,74.56934988151116
201.587,75.91428580655054,73.43057838098522,74.99868191083041,74.61476499682789,73.10941218649184,74.53557707617502
204.52,75.86086943682523,73.37134858537625,74.94663451565233,74.5625961501974,73.05646998940182,74.48188688514108
207.494,75.86598928246892,73.37453185313413,74.94877645888369,74.56400266006165,73.054695147604,74.48429479510523
210.512,75.85008930367994,73.36095986881027,74.92937581039436,74.53941601378361,73.03768837591038,74.46604904100336
213.574,75.7979892824689,73.31272911986909,74.87666876137132,74.48507291316773,72.99381520708461,74.41514324559273
216.681,75.79194198573212,73.30310794587254,74.863676134262,74.47811155965233,72.98589867190054,74.40654211220667
219.833,75.80907699925628,73.31997134889244,74.87154011081132,74.48859426298561,72.99775105744604,74.41946229817894
223.03,75.80482053595746,73.32750688059824,74.86853730428078,74.4768529625941,72.99453131797003,74.41594725223744
226.274,75.8266191656363,73.35109868446764,74.88996684161575,74.49321072794028,73.01126543384608,74.43611024178453
229.565,75.8217872655203,73.34767227194595,74.87603414485052,74.4828119730613,73.00325182004168,74.42789188446953
232.905,75.8201435971015,73.36708621311894,74.86892297564104,74.47707578630613,73.00327544738346,74.42774015831145
