Freq,Floor Bounce,Ceiling Bounce,Front Wall Bounce,Side Wall Bounce,Rear Wall Bounce,Total Early Reflection
22.4,11.176957756149164,9.969216328102249,16.266467787473545,16.001292222328743,11.258294710699602,13.74950990999335
23.0,12.50921140720402,10.969028486648455,17.1386110861487,16.51447999652717,11.664162518262941,14.519446182530032
23.6,14.229909573851444,12.311025461155879,18.28923713972452,17.411368579940103,12.460410408688261,15.650695587312129
24.0,17.729909573851444,15.44822324734119,21.142923417560468,19.99606406958938,14.940339508182461,18.519397085127338
25.0,20.40473949550548,17.701414285541688,23.185066515228186,21.741497736906155,16.699010605588626,20.59167419342762
25.8,22.74852015458802,19.664925452465752,24.959148281374922,23.30647843552461,18.25223126549983,22.431009410377698
26.5,24.717194744353577,21.37585362867935,26.492673695997865,24.64271217538098,19.63913011132925,24.023561533885328
27.2,26.49664781293231,22.848818864716293,27.799384768097838,25.77595273563898,20.851178348622255,25.41892353866146
28.0,28.028122336748368,24.163421391351648,28.90728157490736,26.722537849161,21.89129245404851,26.624115742055835
29.0,29.380424200542535,25.340957554487346,29.928877070551295,27.599865346594385,22.865864225450935,27.725766474411955
30.0,30.99317164073088,26.831622779889244,31.384852322347626,28.925967125596458,24.275983061318925,29.204598768283404
30.7,33.469660784570436,29.179260688292317,33.71737267630641,31.091783183245468,26.57224471129004,31.550050743968114
31.5,35.590462216100576,31.27567604030068,35.74960721053054,33.022504662771865,28.628555110997866,33.601055200102564
32.5,37.28335937246297,32.98633240679166,37.43990243154687,34.60970974880945,30.312724139756682,35.27631334672205
33.5,38.67783080594569,34.382196718458005,38.8890773130702,35.898426955460394,31.788938634323046,36.676405516140306
34.5,39.873879612228166,35.658587601243255,40.132250670932706,37.03893439544473,33.07549547055484,37.89444256954448
35.5,41.10531806766471,36.977178959898026,41.48685871337133,38.29322096243732,34.485430685880715,39.193481333343584
36.5,43.405318067664695,39.37082970284297,43.862630757735076,40.58332328923481,36.90748342048053,41.53731344702291
37.5,45.37150800786938,41.427587192835915,45.93130179034486,42.56005869898405,39.01609310170625,43.561325340489304
38.7,46.873879612228166,43.091881454045534,47.604918867483036,44.145370352892485,40.75552400295322,45.17319135431612
40.0,48.2054240073266,44.49046221610058,49.02210816557184,45.47874746437503,42.23729680705699,46.554443830113286
41.2,49.44136150423586,45.95953166004179,50.41782156510041,46.83090461648521,43.69510455229994,47.91115904387692
42.5,51.30934661896387,47.89046221610056,52.356208121681675,48.717010209508516,45.697117809277614,49.82541276594051
43.7,53.114835236334784,49.891881454045546,54.27490881461691,50.634004988381236,47.72508229161221,51.73162893660535
45.0,54.58407839372549,51.5012357262664,55.8627879668031,52.214918418206,49.368945512617216,53.29346277939774
46.2,55.8840783937255,52.96235742942079,57.22452059938033,53.58183694479587,50.85538118339505,54.66305430949552
47.5,57.184078393725486,54.39471929119205,58.62511408761608,54.99301490277088,52.30557230397264,56.04738790623742
48.7,59.08407839372549,56.427587192835944,60.53294379245918,56.97838660409147,54.35132459810757,57.99446409792978
50.0,60.753809743594445,58.198974451309255,62.22605573004938,58.733310939560084,56.14379465064465,59.71107248745531
51.5,62.15380974359445,59.79897445130925,63.72054759743342,60.25244723789433,57.70404165233228,61.20665097369326
53.0,63.52402487026022,61.198974451309255,65.06312414442016,61.70257611697366,59.17236521964929,62.593136214365245
54.5,65.12402487026023,62.89897445130926,66.57749740349004,63.322577624103175,60.8394974307418,64.18728246743187
56.0,66.65380974359446,64.53257218046556,68.10508182769254,64.9734529154966,62.48720783115158,65.76286649995947
58.0,68.15380974359448,66.0948570588317,69.59136007300356,66.54977377261713,64.02119096731575,67.28361876423705
60.0,69.58623512455239,67.59485705883172,70.90813926172166,68.0203334740456,65.4885727329994,68.69731427827229
61.5,71.08623512455236,69.0948570588317,72.29516780709301,69.50350051311935,66.94746560563041,70.15320126496019
63.0,72.38623512455237,70.49485705883171,73.53177296770092,70.8330264839359,68.25429137262506,71.45420089371842
65.0,73.61627940083642,71.72349685065979,74.66857503611887,72.05945949119062,69.42129389984693,72.6474800475072
67.0,74.91627940083642,73.12349685065979,75.91610619057604,73.37375820484189,70.70291427665568,73.94797932672007
69.0,76.21627940083641,74.45260953202218,77.13919677256939,74.66300167263628,71.91629555219052,75.21871823147589
71.0,77.34898514879549,75.65260953202218,78.20654457249833,75.79607287073054,73.00465077048898,76.33852496873986
73.0,78.27928732607432,76.65260953202217,79.08446913395753,76.74802197293306,73.87292776434245,77.2629276017719
75.0,79.11227178315619,77.58219967332303,79.89708258179763,77.62088077038315,74.62900250910225,78.10682261534363
77.5,79.84283030471974,78.38219967332304,80.57138781953385,78.36180481116205,75.27943934116651,78.8276235986558
80.0,80.41227178315619,79.01227178315618,81.0680295515409,78.91075561108605,75.7478082712144,79.37395257256108
82.5,80.94283030471973,79.68219967332304,81.60901146190864,79.52155487011275,76.25915213442016,79.94634937390511
85.0,81.54283030471974,80.31227178315618,82.16740376827168,80.11106974021025,76.79030077452407,80.53211607276589
87.5,81.90690501035459,80.81227178315618,82.5347426663089,80.5797718902426,77.14426356248619,80.94152605480292
90.0,82.20690501035459,81.21227178315618,82.82102997367144,80.93421639288465,77.38087036603585,81.26199619652593
92.5,82.40690501035459,81.44283030471973,82.97592915877937,81.17527614080768,77.5423358346317,81.45972188872315
95.0,82.50690501035459,81.64283030471974,83.06033010132779,81.3387929028762,77.64014441511424,81.58718064091687
97.5,82.7069050103546,81.90690501035459,83.27216832382875,81.62997573325991,77.83589729015728,81.82051983709184
100.0,82.93821129888744,82.20690501035459,83.51596542945308,81.94247585675512,78.05170300709511,82.08378070837131
103.0,83.1069050103546,82.40690501035459,83.65655572798036,82.144091397094,78.18684726686894,82.25490355851373
106.0,83.17150800786939,82.57387961222818,83.74193439921136,82.31195550866282,78.28369003397633,82.36933633626356
109.0,83.43821129888744,82.83821129888743,83.99704397710661,82.57114415749683,78.4800682172086,82.62542547426546
112.0,83.63821129888743,83.03821129888742,84.16733848858846,82.80362591133981,78.61907811398147,82.8190773174357
115.0,83.67150800786939,83.13821129888744,84.26733848858845,82.9036259113398,78.65717403777845,82.89836761612855
118.0,83.7069050103546,83.23821129888744,84.27971387558672,82.94959969382165,78.62611207307813,82.938377575185
122.0,83.77150800786937,83.33821129888743,84.36582604618724,83.06080668820978,78.62692488734518,83.0211351261013
125.0,83.8069050103546,83.37150800786938,84.38003683600667,83.08832185881488,78.57499478367993,83.0424207744937
128.0,83.7069050103546,83.33821129888743,84.3064655550663,83.0070239013846,78.40546601695061,82.96294513374698
132.0,83.7069050103546,83.33821129888743,84.3064655550663,83.01834115942394,78.32068988776209,82.95935389793553
136.0,83.7069050103546,83.40306957104252,84.34831996303517,83.05463809249056,78.2737954615564,82.98916562863496
140.0,83.7069050103546,83.40306957104252,84.305545668495,83.04551794814041,78.17144000552858,82.96879592464424
145.0,83.60690501035458,83.40306957104252,84.27555996882539,83.03374062659799,78.08436215275583,82.92894174881695
150.0,83.60690501035458,83.40306957104252,84.24831996303517,83.0155056940042,77.99429681741216,82.91193205913474
155.0,83.50690501035459,83.40306957104252,84.21930726201515,83.0155056940042,77.92001327240345,82.87596663408645
160.0,83.50690501035459,83.40306957104252,84.20421566537271,83.02490269104496,77.84178098876015,82.86884483293443
165.0,83.50690501035459,83.40306957104252,84.20421566537271,83.0550829686917,77.7951744479323,82.87220853534251
170.0,83.4069050103546,83.40306957104252,84.20421566537271,83.04714154608524,77.70050579648202,82.84174560451464
175.0,83.34283030471974,83.40306957104252,84.16100258868943,83.0054672041789,77.59799610693369,82.80039263107648
180.0,83.34283030471974,83.36845083805434,84.1762292462144,83.02925236449916,77.5239655188056,82.79721143660377
185.0,83.31227178315618,83.40306957104252,84.21930726201515,83.03976130189342,77.49125401529551,82.81039332833751
190.0,83.27928732607432,83.36845083805434,84.21930726201515,83.02232685071304,77.38656493021563,82.78529227153007
195.0,83.24898514879551,83.36845083805434,84.24866059688952,83.01819849490529,77.3175757438473,82.78189858534972
200.0,83.24898514879551,83.36845083805434,84.29234112187346,83.0022689265711,77.23286471475262,82.78607875710257
206.0,83.24898514879551,83.40306957104252,84.34866059688952,83.03869844991425,77.21069738363201,82.81641771918787
212.0,83.31916705502752,83.40306957104252,84.39234112187346,83.0381080272713,77.16533185398998,82.8418632547537
218.0,83.31916705502752,83.40306957104252,84.40679400853944,83.01311672861354,77.08075198833052,82.83624963677094
224.0,83.31916705502752,83.40306957104252,84.4512359468045,82.99841724246184,77.01263664494321,82.84242273107326
230.0,83.31916705502752,83.40306957104252,84.4639461441736,82.93372826858806,76.94116558138315,82.82907438523264
236.0,83.31916705502752,83.40306957104252,84.49234112187347,82.90016099494673,76.88768901888373,82.82778555952265
240.0,83.31916705502752,83.37150800786938,84.4784936774715,82.82672346086302,76.85301134559488,82.79989125045356
250.0,83.25667255930051,83.30690501035458,84.3929926436339,82.74098181776833,76.7436337471798,82.72310065986352
258.0,83.18982856673472,83.20690501035459,84.33467294907281,82.63624631374009,76.6806611100072,82.64380816446895
265.0,83.0566725593005,83.1069050103546,84.26491864863073,82.48736410679871,76.57363752653092,82.53520810677051
272.0,82.98982856673472,83.00690501035459,84.16491864863072,82.31659070498729,76.48095349788531,82.42919472334371
280.0,82.88982856673472,82.87609175449221,84.06491864863072,82.11282251931769,76.37885316598778,82.30200573036274
290.0,82.82758719283594,82.74576719438468,83.9516115040177,81.93523099094024,76.26183018652016,82.18417369337227
300.0,82.72758719283593,82.61227178315617,83.88074803729255,81.74162912907781,76.15324990520001,82.06740362452126
307.0,82.62758719283592,82.48219967332305,83.7959212612557,81.53855772079093,75.99907206619038,81.94350022058687
315.0,82.62758719283592,82.31916705502752,83.70879413841813,81.36990064248292,75.84513229166149,81.84182685435019
325.0,82.52758719283592,82.18982856673472,83.66880906606747,81.22681970262366,75.71708019119778,81.74477956528328
335.0,82.53752777300028,82.06096514237183,83.64079992330713,81.08007364815101,75.57352027143321,81.67714501337895
345.0,82.53752777300028,81.99897445130925,83.67137249920609,80.99332920754655,75.45381816905955,81.652509706676
355.0,82.6096325668162,81.89897445130926,83.71549792485818,80.95366139961678,75.38087011884878,81.65278681885114
365.0,82.67662798253905,81.87082970284297,83.83090043163743,80.96260476593918,75.31715308199142,81.69957617300209
375.0,82.74898359150842,81.80963256681619,83.9075115000665,80.95789598929844,75.22818672699398,81.72553610148816
387.0,82.82179738688896,81.74898359150842,84.02294230691989,81.01756983742132,75.14519549031081,81.77659553646106
400.0,82.76194867563767,81.58888547155003,84.02294230691989,80.94616092873964,74.93139704497949,81.70875262556837
412.0,82.73546263134683,81.36194867563766,84.06896449293784,80.94861983106856,74.77091333947286,81.66837767531086
425.0,82.67641629732151,81.10265450340339,84.06896449293784,80.88625189897203,74.539038445484,81.5859744164649
437.0,82.49237898809801,80.7857391564897,83.94255416725099,80.70984891462652,74.17792011246257,81.39351452444726
450.0,82.36726558859611,80.4857391564897,83.89868243354556,80.65399790730356,73.89082012677116,81.27398135202526
462.0,82.16726558859611,80.20263350538771,83.79868243354557,80.49529299510412,73.57794204919733,81.10032054248606
475.0,82.08538710465898,79.92102614963505,83.74080766568801,80.45630853834915,73.26443513256125,80.99510873182302
487.0,81.86136837622763,79.58959528561198,83.640807665688,80.31963938393014,72.9042915505342,80.81273618693984
500.0,81.86136837622763,79.50962074754835,83.67932296839601,80.36034242156089,72.70006856095763,80.8164576124847
515.0,81.86136837622763,79.45477168396808,83.76722858209214,80.41267880015691,72.53885798383382,80.84721220273178
530.0,81.90497668676807,79.43113467688883,83.86722858209214,80.49634376976658,72.3793094814291,80.90477189309375
545.0,81.88161208533421,79.40791075563449,83.87932296839601,80.52769097083595,72.11910936103854,80.89902682255166
560.0,81.8491520399883,79.33920982111142,83.87960428183132,80.55203132437337,71.79423007955737,80.87749532937488
580.0,81.72602452356692,79.23920982111143,83.79166430064716,80.46401892589915,71.40015780497157,80.77174748791015
600.0,81.5260245235669,79.01655819177171,83.64837646835873,80.33475341965153,70.97505906535248,80.59958407694245
615.0,81.42602452356692,78.86268190818896,83.5340615308163,80.1687845925225,70.52657884062793,80.46663276639808
630.0,81.3033038382893,78.69430744544665,83.46052339529751,80.07294938084951,70.18196739858007,80.35830664719012
650.0,81.24852015458806,78.51904449785343,83.46052339529751,80.03350084637982,69.92536489856042,80.30893288764622
670.0,81.24852015458806,78.44520516099381,83.56052339529751,79.97847031416448,69.77226683777882,80.32797722362496
690.0,81.30473949550549,78.25274994214361,83.6761217597335,79.92932941862985,69.59771006262017,80.35477005587838
710.0,81.29780984381856,77.93209919948374,83.74947180163382,79.77584255454111,69.36400984620222,80.31538538209567
730.0,81.27695775614916,77.6791544667119,83.80929861759883,79.59528394443277,69.03254958524613,80.2717623678891
750.0,81.05648313414828,77.13403046914814,83.66860119866446,79.15811278245792,68.46298241306064,80.01181128237403
775.0,80.78444762363009,76.49641043056627,83.46061531058592,78.61478813120212,67.73860677256899,79.6839973352028
800.0,80.71378996755591,76.06597401860918,83.43711447456059,78.23177166627374,67.1764720780262,79.54928643858017
825.0,80.6444965941971,75.71388511176723,83.46261624584557,77.91606758914048,66.63518590921207,79.46176756888426
850.0,80.65872457742296,75.40907886704534,83.52617120987001,77.53744900778473,66.0012739464716,79.41564410944652
875.0,80.4756958151824,74.90874768185137,83.42099790986985,76.99576177831065,65.21899924049849,79.19886397582889
900.0,80.16443680503089,74.36021521031299,83.22494028495969,76.38212130907363,64.45795540646404,78.89353690725204
925.0,79.94850588118669,74.07096325109015,83.12099631968599,75.83762861515049,63.986224118898406,78.6966693510471
950.0,79.88681963215333,74.08164091910501,83.17493678940163,75.49777066007371,63.88127429032376,78.67653358607805
975.0,79.89641043056625,74.23878621388877,83.28559812912853,75.08208338736719,63.97651161792473,78.71566520420095
1000.0,79.90827710656966,74.44036306093899,83.36711684878037,74.59974598889372,64.18659394584836,78.74245554648172
1030.0,79.56506011325959,74.3144234536573,82.97794411044606,73.55184113668425,64.01214784586857,78.33995287417366
1060.0,79.27953643779557,74.24507194826725,82.60607448281135,72.50522309250562,63.92552956917615,77.97667620880542
1090.0,79.83790067592331,75.0612748054792,82.98252711606219,72.11111354597745,64.56869150525516,78.40427924133346
1120.0,80.49751749841198,75.88126242595501,83.39249032829167,71.9437322735216,65.13641324575347,78.90064311874663
1150.0,80.72933043421358,76.19080616590045,83.43981902623904,71.65363559573615,65.04735692956923,79.01465882986011
1180.0,80.67466843276418,76.12239157432461,83.25720040060088,71.29895922668445,64.355362008709,78.87242618256245
1220.0,80.75447715330635,76.119032343648,83.135895005989,71.1481077056832,63.38435359869325,78.81913879607063
1250.0,80.64885135917305,75.97466843276419,82.89451920596102,71.00007526074366,62.06208476681971,78.62881275431806
1280.0,80.39689984743688,75.60935602590692,82.4879381221886,70.69055037543502,60.423226638824275,78.27519463661426
1320.0,80.09472217650472,75.09441444972205,82.10242112660333,70.46804146330723,58.59211849433086,77.90503712310493
1360.0,80.2261160916701,75.0044481370906,82.09470299325518,70.70229046673387,57.01899783275579,77.94127493742177
1400.0,80.17625435142637,74.70204404422746,81.95172855854202,70.74119833083431,55.58635807097929,77.81939459993754
1450.0,80.07625435142637,74.36604114575636,81.8197962947087,70.62957721740064,54.579889119645316,77.67888396822616
1500.0,80.20851320750933,74.08319278136165,81.9434636575882,70.7311829140153,54.15683347357904,77.7678329762599
1550.0,80.49040221489247,73.97060133255751,82.161438543147,70.85729364354572,54.15008701894183,77.97734872941368
1600.0,80.67263021037121,73.795911513691,82.37383072971045,70.97110681315344,54.27562516784511,78.14549784580451
1650.0,80.80529495129532,73.5442167606423,82.51452843052968,71.097944187401,54.55750407436963,78.25523790945616
1700.0,80.83925752533571,73.2830726007704,82.58532629522068,71.16884389248902,54.878451818680645,78.29132237329557
1750.0,80.74302103107543,72.80539742857684,82.53052518088568,71.1317110794179,55.239003736144156,78.19716242144047
1800.0,80.53386746839945,72.26655983656698,82.39175864209848,71.12288693511789,55.64263030698626,78.01678428525663
1850.0,80.21923785438673,71.81906209763625,82.12163271595276,71.02162817783316,55.86811749576353,77.72921518112905
1900.0,79.87334521843886,71.58233207224231,81.88947226758341,70.93670162908032,56.093299094275096,77.46388202096564
1950.0,79.6280237724994,71.50186936896775,81.7465890566399,71.01539909780301,56.37104372807329,77.29968822714376
2000.0,79.44229207642539,71.62380429492318,81.66186289575148,71.12138206594076,56.68449853919995,77.20179662771554
2060.0,79.41172975410157,72.00004050925457,81.73467922649438,71.32621336838669,57.18110810616997,77.26517722348615
2120.0,79.5816538778036,72.549705508476,81.94443203518726,71.6414193354642,57.80371745166627,77.48923338203016
2180.0,79.61145898042548,73.16551908472692,82.01265740459368,71.83406303061503,58.37813246090036,77.5900998502246
2240.0,79.4820681977361,73.61622495047968,81.90502315923648,71.8085029876899,58.73562100007865,77.52395556576357
2300.0,79.36870529959134,74.05294610827886,81.79300192347532,71.81467642089265,58.971882094193944,77.46613122857632
2360.0,79.35632382767523,74.49641043056626,81.82577502760907,71.88059158354378,59.21040893799196,77.5265577069771
2400.0,79.58506975681547,75.04273297424513,82.0104612351191,72.12377812070912,59.4843361110662,77.76541799162887
2500.0,79.95810921016849,75.58838259233903,82.36647331523652,72.50561839536877,59.89816299746013,78.14882873274905
2580.0,80.25810921016848,75.97179133196204,82.60930718259198,72.77128737223727,60.126695919663916,78.4260355028007
2650.0,80.3265071540234,75.89099930883404,82.61074959878303,72.77734949392678,60.04611350136801,78.43879210267798
2720.0,80.01116081759258,75.30489348120858,82.1577517538757,72.35125578146335,59.517077297167816,78.01555745514726
2800.0,79.45436996411115,74.39898600207458,81.52327788377247,71.69610352981204,58.80073949390564,77.37636042008285
2900.0,79.01153589924147,73.62997587926382,81.05471654384,71.23360590916785,58.33919203229425,76.88717516385717
3000.0,78.89868001632912,73.06988350036804,80.9010971077988,71.12061063258302,58.34449458076102,76.71288001182468
3070.0,78.90907886704534,72.5296506062916,80.91589986786846,71.19435267987443,58.56443700500526,76.68486279892683
3150.0,78.652976291648,71.73031973423251,80.79055090477299,71.06380890566922,58.60572290143088,76.46783005504595
3250.0,78.08400567330153,70.7422470214995,80.48729506299888,70.68592357720512,58.35406723987006,76.0306096531725
3350.0,77.10922325566851,69.49509323354769,79.9586312035307,69.97618092770901,57.67056415962065,75.31171632138333
