Freq "Rear Wall Bounce"
22.4 11.258294710699602
23.0 11.664162518262941
23.6 12.460410408688261
24.0 14.940339508182461
25.0 16.699010605588626
25.8 18.25223126549983
26.5 19.63913011132925
27.2 20.851178348622255
28.0 21.89129245404851
29.0 22.865864225450935
30.0 24.275983061318925
30.7 26.57224471129004
31.5 28.628555110997866
32.5 30.312724139756682
33.5 31.788938634323046
34.5 33.07549547055484
35.5 34.485430685880715
36.5 36.90748342048053
37.5 39.01609310170625
38.7 40.75552400295322
40.0 42.23729680705699
41.2 43.69510455229994
42.5 45.697117809277614
43.7 47.72508229161221
45.0 49.368945512617216
46.2 50.85538118339505
47.5 52.30557230397264
48.7 54.35132459810757
50.0 56.14379465064465
51.5 57.70404165233228
53.0 59.17236521964929
54.5 60.8394974307418
56.0 62.48720783115158
58.0 64.02119096731575
60.0 65.4885727329994
61.5 66.94746560563041
63.0 68.25429137262506
65.0 69.42129389984693
67.0 70.70291427665568
69.0 71.91629555219052
71.0 73.00465077048898
73.0 73.87292776434245
75.0 74.62900250910225
77.5 75.27943934116651
80.0 75.7478082712144
82.5 76.25915213442016
85.0 76.79030077452407
87.5 77.14426356248619
90.0 77.38087036603585
92.5 77.5423358346317
95.0 77.64014441511424
97.5 77.83589729015728
100.0 78.05170300709511
103.0 78.18684726686894
106.0 78.28369003397633
109.0 78.4800682172086
112.0 78.61907811398147
115.0 78.65717403777845
118.0 78.62611207307813
122.0 78.62692488734518
125.0 78.57499478367993
128.0 78.40546601695061
132.0 78.32068988776209
136.0 78.2737954615564
140.0 78.17144000552858
145.0 78.08436215275583
150.0 77.99429681741216
155.0 77.92001327240345
160.0 77.84178098876015
165.0 77.7951744479323
170.0 77.70050579648202
175.0 77.59799610693369
180.0 77.5239655188056
185.0 77.49125401529551
190.0 77.38656493021563
195.0 77.3175757438473
200.0 77.23286471475262
206.0 77.21069738363201
212.0 77.16533185398998
218.0 77.08075198833052
224.0 77.01263664494321
230.0 76.94116558138315
236.0 76.88768901888373
240.0 76.85301134559488
250.0 76.7436337471798
258.0 76.6806611100072
265.0 76.57363752653092
272.0 76.48095349788531
280.0 76.37885316598778
290.0 76.26183018652016
300.0 76.15324990520001
307.0 75.99907206619038
315.0 75.84513229166149
325.0 75.71708019119778
335.0 75.57352027143321
345.0 75.45381816905955
355.0 75.38087011884878
365.0 75.31715308199142
375.0 75.22818672699398
387.0 75.14519549031081
400.0 74.93139704497949
412.0 74.77091333947286
425.0 74.539038445484
437.0 74.17792011246257
450.0 73.89082012677116
462.0 73.57794204919733
475.0 73.26443513256125
487.0 72.9042915505342
500.0 72.70006856095763
515.0 72.53885798383382
530.0 72.3793094814291
545.0 72.11910936103854
560.0 71.79423007955737
580.0 71.40015780497157
600.0 70.97505906535248
615.0 70.52657884062793
630.0 70.18196739858007
650.0 69.92536489856042
670.0 69.77226683777882
690.0 69.59771006262017
710.0 69.36400984620222
730.0 69.03254958524613
750.0 68.46298241306064
775.0 67.73860677256899
800.0 67.1764720780262
825.0 66.63518590921207
850.0 66.0012739464716
875.0 65.21899924049849
900.0 64.45795540646404
925.0 63.986224118898406
950.0 63.88127429032376
975.0 63.97651161792473
1000.0 64.18659394584836
1030.0 64.01214784586857
1060.0 63.92552956917615
1090.0 64.56869150525516
1120.0 65.13641324575347
1150.0 65.04735692956923
1180.0 64.355362008709
1220.0 63.38435359869325
1250.0 62.06208476681971
1280.0 60.423226638824275
1320.0 58.59211849433086
1360.0 57.01899783275579
1400.0 55.58635807097929
1450.0 54.579889119645316
1500.0 54.15683347357904
1550.0 54.15008701894183
1600.0 54.27562516784511
1650.0 54.55750407436963
1700.0 54.878451818680645
1750.0 55.239003736144156
1800.0 55.64263030698626
1850.0 55.86811749576353
1900.0 56.093299094275096
1950.0 56.37104372807329
2000.0 56.68449853919995
2060.0 57.18110810616997
2120.0 57.80371745166627
2180.0 58.37813246090036
2240.0 58.73562100007865
2300.0 58.971882094193944
2360.0 59.21040893799196
2400.0 59.4843361110662
2500.0 59.89816299746013
2580.0 60.126695919663916
2650.0 60.04611350136801
2720.0 59.517077297167816
2800.0 58.80073949390564
2900.0 58.33919203229425
3000.0 58.34449458076102
3070.0 58.56443700500526
3150.0 58.60572290143088
3250.0 58.35406723987006
3350.0 57.67056415962065
3450.0 57.315175298780105
3550.0 57.50948933554574
3650.0 57.61695011720411
3750.0 57.42909652578891
3870.0 56.99031377371091
4000.0 56.05227177478295
4120.0 54.88751035475536
4250.0 54.04187646601525
4370.0 53.60734933655067
4500.0 53.30092421840817
4620.0 52.62833735026757
4750.0 52.01552970759292
4870.0 51.79702968649457
5000.0 51.53061667379748
5150.0 50.84768689389196
5300.0 50.07044295263756
5450.0 49.90850865032186
5600.0 50.21469609889121
5800.0 50.546299491941966
6000.0 50.88055528146407
6150.0 51.16805240442454
6300.0 51.21531430811805
6500.0 51.07384930093082
6700.0 51.1079788189663
6900.0 50.94724064929861
7100.0 50.51133071230612
7300.0 50.001319879907754
7500.0 49.81293496017136
7750.0 49.78277553611258
8000.0 50.020116410708425
8250.0 50.2966108630975
8500.0 50.478939515090815
8750.0 50.67888292153643
9000.0 50.4368187127171
9250.0 50.08735824818848
9500.0 49.89574724392122
9750.0 49.80100787240096
10000.0 49.748895640380766
10300.0 49.900284238753414
10600.0 49.82567526138922
10900.0 49.480817069594025
11200.0 49.19896946168299
11500.0 48.712632458905205
11800.0 47.967298961176624
12200.0 47.65676448985937
12500.0 47.70049246510362
12800.0 47.39419449781292
13200.0 46.32930046975676
13600.0 45.3578722959403
14000.0 45.16418208984254
14500.0 46.4699843309231
15000.0 46.73480794080584
15500.0 44.93258608646133
16000.0 42.896321086228426
16500.0 41.37406994098109
17000.0 41.0708932938372
17500.0 39.463962448987104
18000.0 39.65702813577562
18500.0 39.122971779029314
19000.0 32.58019105884378
19500.0 35.00585913661129
