Freq,Floor Bounce,Ceiling Bounce,Front Wall Bounce,Side Wall Bounce,Rear Wall Bounce,Total Early Reflection
20.5078,49.597424879937634,49.14507564549136,47.95743458696457,50.95812109271243,57.19893050564478,52.48032686258283
21.9727,52.39950001609925,54.94292738583276,52.82153357966372,54.38459938394807,60.527225187464424,56.192759351495326
23.4375,52.90358230327435,55.343072720547966,53.214497623535195,54.32493323477577,62.11040984441267,57.23192946792629
25.6348,59.94078995518383,61.02373004046028,59.844013108730664,60.560241423001614,66.43468209449465,62.43278701635758
27.0996,63.46252854151116,64.89151311152149,63.58557172475825,64.44068267426353,69.5552835691219,65.88694180019407
29.2969,68.74047160028518,69.26084110528875,68.64137814567563,69.12427232965798,73.14102108730985,70.17168660206941
31.4941,72.79104223613173,73.54221116929942,72.78093784412725,73.40374349241485,77.05524758340859,74.25694655834856
33.6914,76.73999014066807,77.2353351319769,76.66500909351142,77.2200924372567,80.39785715711987,77.90751861741303
35.8887,80.45487657850542,80.90781589906213,80.38458660366943,80.93203165510609,83.71802594936982,81.4791456423119
38.8184,84.54150837360399,84.88399695872492,84.45369580806612,84.95974029414842,87.36161144112351,85.38900767400038
41.0156,87.54492467453095,87.97403499716691,87.51203402982772,88.01454296969888,90.14403399237654,88.35827676941959
43.9453,90.68160134080976,90.871936646266,90.59225544957127,91.00181000401723,92.751367510597,91.25941394945056
47.6074,93.59750880112328,93.73140231377735,93.50110919296655,93.88221339412864,95.37850144449051,94.07731077981691
50.5371,95.58529773012313,95.66866390088397,95.48227514731612,95.83755119020611,97.14548262118858,95.98973149851966
54.1992,97.63394710223959,97.6606889173997,97.52307740251294,97.8455003916199,98.94156058774054,97.95386038070899
58.5938,99.44742373857667,99.41237046508999,99.32767836162449,99.61503724849395,100.5052278340828,99.68398714553979
62.2559,100.60809987592576,100.53324659062083,100.48252765865004,100.74956154483804,101.50990147914763,100.79369051674071
66.6504,101.39776061353233,101.28079968283754,101.2669456166988,101.50612967426837,102.11522752323089,101.52499869367
71.7773,101.60042140275249,101.45073617445541,101.46564870495322,101.67916493146959,102.14943433880003,101.67671689222941
76.9043,101.5167544224752,101.31935454825988,101.37349700340818,101.55919646810767,101.90360872279099,101.53936667601384
82.7637,101.80874313601842,101.54566699928519,101.65461778055548,101.80305140643507,102.00607704865841,101.7664394884895
88.623,101.80246166169532,101.52733351242982,101.64076810425193,101.80292456072786,102.01631630732716,101.76113673147758
94.4824,101.98006507569298,101.70367160480745,101.827901966135,101.96798329954531,102.10477311700636,101.9190668016481
101.807,102.06764846740522,101.85300191882071,101.93989553662597,102.07230221350389,102.15933131689629,102.0197842675917
109.131,101.95567864169813,101.7613342799876,101.82348591885078,101.96555392328038,102.06078515521307,101.91468861449805
116.455,101.9920063052761,101.72534026693586,101.84117425251057,101.93930041656128,101.93334435147118,101.88724447080051
125.244,102.18768305122015,101.82272471497387,102.01177297899261,102.06219387633732,101.94677966785537,102.00791804653144
134.033,102.35667786912362,101.92279256115908,102.16514800553175,102.18572058880025,102.02176041833798,102.13296380188748
143.555,102.59631453181203,102.08026717251458,102.39087343671724,102.36333704492226,102.1064903624035,102.31173622828928
153.809,102.66597637806773,102.16156132059838,102.45859256736398,102.42821960463347,102.19650103202808,102.38613282314392
164.795,102.79263379137508,102.18872572561179,102.56044355373119,102.47246235610042,102.15663329490589,102.440719042284
176.514,102.89058003309331,102.19466380991658,102.64603496696974,102.50209067730812,102.11864181061334,102.47982264271296
189.697,102.83488849900007,102.14433761388368,102.58864846969882,102.41597668422753,102.01760027744862,102.4103654787593
202.881,102.82621103122455,102.05941161270363,102.55469640197293,102.33025785769065,101.94227454259756,102.35458738037285
217.529,102.82852656661474,101.97970867261242,102.53899619643867,102.25636075084243,101.83293713402973,102.30254244519497
232.91,102.7554532423914,101.8569046455335,102.45359708594394,102.06184788625195,101.54942013768749,102.15650671486257
249.756,102.97990524723436,101.59443974319652,102.53753773774797,101.96425137655021,101.08912896764595,102.08456838288068
268.066,103.01780467913277,101.40253395017079,102.5787134078425,101.90899272683332,100.76833886917957,102.00905794043972
287.109,102.95501897017725,101.708659195735,102.66254560684781,101.99808149934107,100.90759078164321,102.10557962457091
307.617,103.0240702332087,101.60153116342283,102.59730761754791,101.87525813344355,100.86701479039087,102.05845706724477
329.59,103.06471294751981,101.30836770448187,102.60739421892099,101.66206553354326,100.32474150974033,101.89965506698155
353.76,103.27015135357723,100.9885612220472,102.77802222254988,101.56427370235257,99.92049952305197,101.86969525314319
378.662,103.63560190261597,101.56409609784588,103.2537874172594,102.04332827600182,100.11460407644604,102.29739216708526
405.762,103.5935500619305,101.3866918617877,103.15377740036641,101.79993523869075,99.74096262036294,102.14125244839462
435.059,104.04318391790675,101.25753294325766,103.5407796067512,102.10611290389566,99.73117558254674,102.4038637919402
466.553,104.87200973185134,103.04348184709598,104.73255690608875,103.31048462941119,100.41497811996534,103.54208124671158
500.244,105.07010630353062,103.58164200832024,104.74883888981441,103.3853682312381,100.22480372784314,103.69700271808948
536.133,105.12614824161507,103.2151991902815,105.18285052933965,103.57326235606159,99.91329971617458,103.76847018982022
574.219,105.7498691199889,103.82213901920548,105.64876554304381,104.21184995717591,100.17705988304112,104.32013088349012
615.234,105.99677783534383,103.53759572163366,105.77288352363163,104.48043644457195,100.12152061183724,104.42436680665107
659.912,105.7888119485855,103.2312408173954,105.6293601075119,104.40651223307772,100.12339502055998,104.26155977907858
706.787,105.57543507105396,102.70192173083974,105.78682485997204,104.36935983194631,99.95621756344453,104.14586509654742
758.057,105.47236350423593,103.5395592502601,105.83812172495648,104.11330226588174,98.93047563644744,104.14312750989622
812.256,105.6126524605853,104.53562444834628,106.03408871816454,104.90764246245102,100.61746095254166,104.6964327948494
870.85,108.20322832008418,105.43287544629075,108.55554968272668,105.68865294714536,102.51826573561159,106.5834698846471
933.105,108.62098345318832,105.61665694949612,109.12301251889032,105.35726182687056,102.50848707177981,106.86829979910179
999.756,107.6385593110224,104.66815939502263,109.1323519481769,104.53858855249396,101.99829596551969,106.3047382574668
1071.53,105.69648738533515,106.17704469415915,108.32999052982807,104.32307279475096,100.599581436277,105.68686456817552
1148.44,104.65789159728084,105.94121156561097,107.70059133138939,105.0375010801105,100.01716405775083,105.29768477944125
1231.2,105.67655545960574,104.83164293260442,107.06922635425214,104.09999216689327,96.55411235135672,104.72828444620906
1319.82,102.92653109315492,103.06744973713201,105.18620175245263,101.54146218753476,94.51349073375422,102.5517092513127
1414.31,102.48850439477332,102.13390520818463,104.3988580445167,100.17322008948999,93.41356136156118,101.71536675819527
1515.38,102.35998170592883,102.57403254406019,104.34553381343737,100.18291855341045,93.44789526835818,101.76949583128682
1624.51,101.66768060401368,102.02678815577055,103.74197078510453,99.43754170997771,91.84155299597879,101.11341247000492
1740.97,99.84751359871333,100.16443724049778,103.74238414105906,99.34876337614132,90.65140488176415,100.29240632192031
1866.21,98.66202598505484,98.97098514529453,103.43449310906963,99.00299180635601,90.18418865045486,99.66452469934084
2000.24,96.8019097572292,97.59896256681013,103.40896903206588,98.85589743998725,90.09176147766009,99.1560739670025
2143.8,95.68187917386688,94.50616752698375,103.95883660828308,99.62139165920128,90.99043480104827,99.22470872830264
2297.61,97.30332669341178,92.25023954118923,104.69800646399871,100.46047031008361,91.46804786938883,99.9186891259344
2462.4,97.93282107818146,93.94840350784945,104.92817485217626,101.0807713959439,92.57352375171288,100.36894331100254
2638.92,100.06276972930992,97.0140399934031,105.48299122665374,102.1948781874521,93.25246097464654,101.4118208854329
2828.61,100.97487090541883,99.18817768938541,105.83798285352437,102.95280175390917,93.60433094709249,102.1055748067722
3031.49,101.43920915162803,100.60753222297173,105.63151002473246,102.91575294014014,93.58220391458131,102.24551141419524
3249.02,102.39315851919706,101.13900370257262,105.6018660402067,103.03092420365304,92.99246551518503,102.49246235510628
3481.93,102.56957924275721,102.11401506469001,105.08626636129212,102.46298366708703,92.55146978050804,102.3567517543813
3732.42,102.98282971085713,102.88804769257294,104.60609257229736,102.05231183092113,91.70493347264792,102.34118918902008
3999.76,102.75093811908515,102.63342327743014,105.25734437397993,102.24388503920541,91.53104702242355,102.50022034353655
4286.87,102.31882056079671,102.4354644090326,105.79295486159249,102.40465961181417,91.39338179393158,102.61543343888907
4594.48,103.12317247693197,102.4637707746924,106.18015859126425,102.7804753733668,91.80309486944867,103.01647867722546
4924.8,104.36553496213813,102.53206441056516,106.2097531652918,103.17562389063963,92.10207464074227,103.4012043839117
5277.83,105.1522109110379,102.36992874985118,105.70024770206682,102.81674400935256,91.02210060381326,103.3267286375851
5656.49,105.07731284817902,102.35008457523787,104.5302601813978,101.67738759808965,89.68014045663357,102.71350556418302
6062.99,104.46074918516085,102.60720067828869,104.32291757952467,100.71596721005052,88.68579168598347,102.3424566683532
6498.05,103.9321142886668,101.5828547886598,104.7970871257402,100.98687041770789,89.17459634773654,102.18452300778151
6964.6,103.46801592451014,101.37451022033656,104.85336745170788,101.54041910760003,89.88250904511536,102.13516029106923
7464.11,103.06496722285938,101.24688472825262,103.74690646566394,100.88853152780831,88.81163587781211,101.48026723560106
8000.24,102.3834747948266,101.48678579543082,102.4932288879724,99.69815306125834,86.46553385754845,100.71302236534599
8574.46,102.69094641442366,101.16187217234578,104.76349980304128,101.67155690466983,87.23392017233829,101.86502353641679
9189.7,103.376636012817,100.61017102297032,104.72181576788525,102.0639219372101,87.70494932147332,102.01958619311988
9848.88,103.79171787622117,101.00433452249,103.77360232350009,100.53041601074493,85.15528510517032,101.58448110215473
10556.4,103.94874821570075,101.50621125789642,105.39254890211224,100.62508201176864,83.76504060084709,102.3233533766636
11313.7,104.73508101158944,101.64989396744237,105.91899886534138,97.56725124397384,76.9140913018225,102.5143501952695
12126.0,104.04279051895084,100.11542601952432,105.41613910217616,94.2907446569247,75.40178544292162,101.6530483930143
12996.1,102.48188507265483,96.99887318159251,106.07482361908829,94.46450047362468,79.25107133204877,101.21241281515636
13928.5,100.79907278793961,93.6544501781104,105.11552446434538,92.23661529037109,81.15942523172087,99.87838982027061
14928.2,98.4250788011609,90.19167858383983,103.83067205427938,89.77933860274545,82.40608930098408,98.23295914151619
15999.8,97.36592154586263,87.13300786401622,102.83047170902445,87.33356075359276,82.46158213291496,97.13918093658698
17148.2,96.05666830497232,82.84983445178268,101.63617336612293,82.46551892026746,80.23036179890748,95.81682728094886
18379.4,93.99588692572704,79.80515744625588,100.71242732838023,78.32185533015776,78.297776883055,94.63094939638333
19698.5,90.27362333051481,77.48954873196924,98.92761386403059,76.01207431825175,77.05662520308492,92.56420079738551
19999.5,89.69404564618752,77.19275608395766,98.74497292610573,76.76072864539223,77.01208240431002,92.34128690935567
