Freq "Side Wall Bounce"
20.5078 49.436666547257886
21.9727 52.863144838493525
23.4375 52.803478689321224
25.6348 59.03878687754707
27.0996 62.91922812880898
29.2969 67.60281778420344
31.4941 71.8822889469603
33.6914 75.69863789180215
35.8887 79.41057710965154
38.8184 83.43828574869387
41.0156 86.49308842424433
43.9453 89.48035545856268
47.6074 92.3607588486741
50.5371 94.31609664475157
54.1992 96.32404584616535
58.5938 98.0935827030394
62.2559 99.2281069993835
66.6504 99.98467512881382
71.7773 100.15771038601504
76.9043 100.03774192265313
82.7637 100.28159686098053
88.623 100.28147001527331
94.4824 100.44652875409076
101.807 100.55084766804934
109.131 100.44409937782584
116.455 100.41784587110673
125.244 100.54073933088277
134.033 100.6642660433457
143.555 100.84188249946772
153.809 100.90676505917892
164.795 100.95100781064588
176.514 100.98063613185357
189.697 100.89452213877298
202.881 100.80880331223611
217.529 100.73490620538789
232.91 100.54039334079741
249.756 100.44279683109566
268.066 100.38753818137877
287.109 100.47662695388652
307.617 100.353803587989
329.59 100.14061098808871
353.76 100.04281915689802
378.662 100.52187373054727
405.762 100.2784806932362
435.059 100.58465835844112
466.553 101.78903008395665
500.244 101.86391368578356
536.133 102.05180781060704
574.219 102.69039541172137
615.234 102.9589818991174
659.912 102.88505768762317
706.787 102.84790528649177
758.057 102.5918477204272
812.256 103.38618791699648
870.85 104.16719840169081
933.105 103.83580728141601
999.756 103.01713400703942
1071.53 102.80161824929641
1148.44 103.51604653465596
1231.2 102.57853762143873
1319.82 100.02000764208022
1414.31 98.65176554403544
1515.38 98.6614640079559
1624.51 97.91608716452316
1740.97 97.82730883068677
1866.21 97.48153726090146
2000.24 97.3344428945327
2143.8 98.09993711374673
2297.61 98.93901576462906
2462.4 99.55931685048935
2638.92 100.67342364199756
2828.61 101.43134720845462
3031.49 101.39429839468559
3249.02 101.5094696581985
3481.93 100.94152912163248
3732.42 100.53085728546658
3999.76 100.72243049375086
4286.87 100.88320506635962
4594.48 101.25902082791225
4924.8 101.65416934518508
5277.83 101.29528946389802
5656.49 100.1559330526351
6062.99 99.19451266459598
6498.05 99.46541587225335
6964.6 100.01896456214548
7464.11 99.36707698235377
8000.24 98.17669851580379
8574.46 100.15010235921528
9189.7 100.54246739175555
9848.88 99.00896146529038
10556.4 99.1036274663141
11313.7 96.0457966985193
12126.0 92.76929011147016
12996.1 92.94304592817014
13928.5 90.71516074491655
14928.2 88.25788405729091
15999.8 85.81210620813822
17148.2 80.94406437481291
18379.4 76.80040078470321
19698.5 74.4906197727972
19999.5 75.23927409993769
