Freq "Rear Wall Bounce"
22.4 40.70824654036912
23.0 41.52518362721139
23.6 42.424762205359
24.0 43.33699655562495
25.0 44.317491617108374
25.8 45.372745411989
26.5 46.429149888119554
27.2 47.50555062900753
28.0 48.552320950828715
29.0 49.59419965724513
30.0 50.48988054488973
30.7 51.30255747519482
31.5 51.921913553759225
32.5 52.46199628734297
33.5 52.98494168970467
34.5 53.67117070225558
35.5 54.628204884906864
36.5 56.01945827892823
37.5 57.75700735946404
38.7 59.73499882179266
40.0 61.843550817940525
41.2 63.932850586378095
42.5 65.92487185355759
43.7 67.75528947886797
45.0 69.43712919120162
46.2 71.05785197954359
47.5 72.60690845720283
48.7 74.03606046818305
50.0 75.42124512053475
51.5 76.69797589538246
53.0 77.90746547881022
54.5 79.0374291348646
56.0 80.16365061572108
58.0 81.2330030550091
60.0 82.25332246929325
61.5 83.16389621756716
63.0 83.94490811459698
65.0 84.62327124999868
67.0 85.18372092934462
69.0 85.61217343687707
71.0 85.86348826827802
73.0 85.99949680230065
75.0 86.01521003756389
77.5 86.01821651519526
80.0 85.92911443064587
82.5 85.87212203776173
85.0 85.7848842634414
87.5 85.74504724979803
90.0 85.72515299409284
92.5 85.7269380112251
95.0 85.69082574533462
97.5 85.65754656813016
100.0 85.60041756378943
103.0 85.56972182620484
106.0 85.52580282398891
109.0 85.53623467137297
112.0 85.56222715598769
115.0 85.57739086130955
118.0 85.5861957758862
122.0 85.58174972374283
125.0 85.53971235002925
128.0 85.51223282692168
132.0 85.42891552537034
136.0 85.3415025451886
140.0 85.20597157937709
145.0 85.07990723363443
150.0 84.92590781844874
155.0 84.7189492073562
160.0 84.5055886356682
165.0 84.26999911959535
170.0 83.96485407185493
175.0 83.67361959626554
180.0 83.35773839090244
185.0 83.04244854894617
190.0 82.7421642604439
195.0 82.45365228176547
200.0 82.18609755833572
206.0 81.96735620140004
212.0 81.77241176391384
218.0 81.61835140198497
224.0 81.45385979579392
230.0 81.3042423576993
236.0 81.16462737138983
240.0 81.00847988058405
250.0 80.88161005876874
258.0 80.73073249280249
265.0 80.62437453057265
272.0 80.52524931848329
280.0 80.43324081669931
290.0 80.3498264599147
300.0 80.2857331769622
307.0 80.18185236401057
315.0 80.13272893564722
325.0 80.08057203535891
335.0 80.02898996387927
345.0 79.97200811698406
355.0 79.89381490030328
365.0 79.83773969190159
375.0 79.78881391548043
387.0 79.71852062053708
400.0 79.66620311111228
412.0 79.59960050778655
425.0 79.36846257930685
437.0 78.77187144025076
450.0 77.80019648304422
462.0 76.50787899420723
475.0 75.17389022537817
487.0 74.21648570569766
500.0 73.63126578277651
515.0 73.25154480747877
530.0 73.00768983448609
545.0 72.87630677810586
560.0 72.91565274266262
580.0 73.24481156443652
600.0 73.73776693337275
615.0 74.29775848960203
630.0 74.77790463599901
650.0 75.02975707694594
670.0 74.94279374277724
690.0 74.51416058252774
710.0 73.82650120011992
730.0 72.7704049130916
750.0 71.33544877768503
775.0 69.37512472002626
800.0 67.36580963507822
825.0 65.85535146799705
850.0 65.03310185772058
875.0 65.04549546116917
900.0 65.89223783484691
925.0 67.37974928627551
950.0 68.9122652842438
975.0 69.89058933801661
1000.0 70.01588859793165
1030.0 69.53277049816298
1060.0 68.69955991087
1090.0 67.82299702527413
1120.0 67.12900019892164
1150.0 66.72140278827304
1180.0 66.56432220265215
1220.0 66.52435310028238
1250.0 66.42717585251413
1280.0 66.28800629729871
1320.0 66.07149879270506
1360.0 65.8966306667942
1400.0 65.66913522057217
1450.0 65.25620922271784
1500.0 64.68359894675804
1550.0 64.08624096294014
1600.0 63.51518215019661
1650.0 62.895554873047104
1700.0 62.24703100802603
1750.0 61.867760877657076
1800.0 61.637369951227356
1850.0 61.25522358314339
1900.0 60.68767429484362
1950.0 60.41447808481715
2000.0 60.622372972574766
2060.0 61.080237745761906
2120.0 61.502315825431424
2180.0 61.69891716882776
2240.0 61.48248653487232
2300.0 61.00447285604582
2360.0 60.38096559517612
2400.0 59.773905197343026
2500.0 59.22867010162258
2580.0 58.59186940891408
2650.0 58.00607702101772
2720.0 57.87347831516709
2800.0 58.24749989498176
2900.0 58.78322069259684
3000.0 59.09333317011249
3070.0 58.80358239022715
3150.0 58.03889170495967
3250.0 57.17750663316971
3350.0 56.667745445775495
3450.0 56.60404627959997
3550.0 56.808547645269044
3650.0 56.882287679730695
3750.0 56.70655636152253
3870.0 56.38684702598712
4000.0 56.13363451718493
4120.0 56.022961403807614
4250.0 56.12281082938338
4370.0 56.1133332091986
4500.0 55.8178420318518
4620.0 55.435603829859815
4750.0 55.07836049815069
4870.0 54.84949441786753
5000.0 54.62310342347686
5150.0 54.24597760566067
5300.0 53.6370120622303
5450.0 52.97446374480447
5600.0 52.490776003270156
5800.0 52.52421582022333
6000.0 52.94690293641423
6150.0 53.05531215712307
6300.0 52.694389858235496
6500.0 52.17880537577162
6700.0 51.78198575027034
6900.0 51.38861330413587
7100.0 50.937232999399754
7300.0 50.37693855864603
7500.0 49.81690241506723
7750.0 49.15542276816558
8000.0 48.47578920388895
8250.0 48.327824219329386
8500.0 48.55972605034731
8750.0 48.61946807059081
9000.0 48.2803387480823
9250.0 47.546645249701186
9500.0 46.9166208815592
9750.0 46.989767189084944
10000.0 47.639308956218116
10300.0 47.91925025532899
10600.0 47.373299117449335
10900.0 46.40213089105325
11200.0 45.02833968988594
11500.0 43.210308918292554
11800.0 40.721206352003094
12200.0 37.701549395813174
12500.0 34.71603395890921
12800.0 33.0337493770067
13200.0 32.74454413972853
13600.0 32.96051063018609
14000.0 32.963429467890705
14500.0 32.44590188921316
15000.0 31.17232995824972
15500.0 29.18572232035848
16000.0 26.97158215439447
16500.0 25.68514168800175
17000.0 25.486772439092164
17500.0 25.524779254344082
18000.0 25.179275826035962
18500.0 24.263525257051157
19000.0 22.780717987317104
19500.0 21.01455540938025
