Freq "Total Early Reflection"
22.4 40.86783933722401
23.0 41.76161775958357
23.6 42.80101510253502
24.0 43.88305488885595
25.0 45.06765815127133
25.8 46.32095660363504
26.5 47.65593217980222
27.2 49.05179286886781
28.0 50.47795147709763
29.0 51.89942932492872
30.0 53.34543742981191
30.7 54.84308049426079
31.5 56.43295730508686
32.5 58.08854591677101
33.5 59.890093211136644
34.5 61.688380782751295
35.5 63.40312413285281
36.5 64.94270138577912
37.5 66.20848758755955
38.7 67.3232231396646
40.0 68.41828028157667
41.2 69.4833143605903
42.5 70.62727510287269
43.7 71.78698692135939
45.0 72.93129255839351
46.2 74.05309085604988
47.5 75.24028476233055
48.7 76.35154187872448
50.0 77.47118505740643
51.5 78.53895148915207
53.0 79.59335755948045
54.5 80.58959503304634
56.0 81.58669866229727
58.0 82.51906501161157
60.0 83.43402786972683
61.5 84.24954771073931
63.0 84.95639096312897
65.0 85.58362570706825
67.0 86.09636013309857
69.0 86.52285019622174
71.0 86.78996473899187
73.0 86.96448170911002
75.0 87.07700731691537
77.5 87.12121689265734
80.0 87.14425139323403
82.5 87.17951837572869
85.0 87.22246886606563
87.5 87.27534827454184
90.0 87.3304700617846
92.5 87.37576206845587
95.0 87.39728703005514
97.5 87.37266745551975
100.0 87.3521401668376
103.0 87.34131177311832
106.0 87.33246363223974
109.0 87.3301427191131
112.0 87.34193505880845
115.0 87.34398423751094
118.0 87.30879640936362
122.0 87.2973265593783
125.0 87.25990627803336
128.0 87.21415259749902
132.0 87.1588110673906
136.0 87.1055691897823
140.0 87.04655067103523
145.0 86.98784545476892
150.0 86.91299550564857
155.0 86.8500697445079
160.0 86.76936997034818
165.0 86.70844254618505
170.0 86.63918555322186
175.0 86.56698792761118
180.0 86.4919598060469
185.0 86.41708149497332
190.0 86.35406974553054
195.0 86.29079963518336
200.0 86.18766203255765
206.0 86.09465739170331
212.0 86.00476445373634
218.0 85.91290110351741
224.0 85.79542250534615
230.0 85.64375340980376
236.0 85.50177664832877
240.0 85.30962057691545
250.0 85.11413913740643
258.0 84.92478787546193
265.0 84.7162443789049
272.0 84.55209950950326
280.0 84.38057562962055
290.0 84.2492156305903
300.0 84.12730927645819
307.0 84.01424944356972
315.0 83.96135044050318
325.0 83.8938758879341
335.0 83.81842363826706
345.0 83.7423194859742
355.0 83.67490278440383
365.0 83.58907551130744
375.0 83.52361012623632
387.0 83.46928400027713
400.0 83.40396548877527
412.0 83.35873716094244
425.0 83.34808205382107
437.0 83.39190822172094
450.0 83.40919761161703
462.0 83.15295206438958
475.0 82.70704937535903
487.0 82.31279618198963
500.0 82.03134715819833
515.0 81.9567927137219
530.0 82.06339732052375
545.0 82.28562821896077
560.0 82.54008696852543
580.0 82.75749648387497
600.0 82.99284888442632
615.0 83.21652905361285
630.0 83.40889190131638
650.0 83.6078744302481
670.0 83.75552892818123
690.0 83.82836344079298
710.0 83.79725674063327
730.0 83.68151515417848
750.0 83.4493946318525
775.0 83.09009893621435
800.0 82.59190851604271
825.0 82.10223208589557
850.0 81.69318569231767
875.0 81.42206981417543
900.0 81.36514437233069
925.0 81.46399036810169
950.0 81.69978359001283
975.0 81.9035620500827
1000.0 81.97555789736961
1030.0 81.90062747305026
1060.0 81.64551879773558
1090.0 81.31917532531914
1120.0 80.97632725338607
1150.0 80.69392118111233
1180.0 80.49770957022739
1220.0 80.35063887748429
1250.0 80.25296171163185
1280.0 80.21224474625635
1320.0 80.24988759687183
1360.0 80.29075224892182
1400.0 80.28186550519173
1450.0 80.1209678792791
1500.0 79.9093746481123
1550.0 79.72183155569238
1600.0 79.65182903750932
1650.0 79.56463614108557
1700.0 79.45081192278685
1750.0 79.29751689965805
1800.0 79.10825916635497
1850.0 78.96234746428838
1900.0 78.88098067136814
1950.0 78.7879755983189
2000.0 78.71371840204606
2060.0 78.66110972229924
2120.0 78.66094946271522
2180.0 78.63714858755088
2240.0 78.53986564188583
2300.0 78.36590876176807
2360.0 78.22484063826101
2400.0 78.12508858237241
2500.0 78.1196448536219
2580.0 78.13460806368775
2650.0 78.11530712610582
2720.0 78.06609463222551
2800.0 78.03172562264426
2900.0 77.95802796980276
3000.0 77.81989309230354
3070.0 77.75215063207007
3150.0 77.82956871983698
3250.0 77.8243073769736
3350.0 77.82758402072473
3450.0 77.82159039777693
3550.0 77.81596194230391
3650.0 77.66228442701339
3750.0 77.40639929487948
3870.0 77.32185697745925
4000.0 77.36329659959493
4120.0 77.42007886801892
4250.0 77.39269861246518
4370.0 77.37176455900513
4500.0 77.29829913586164
4620.0 77.28980731802416
4750.0 77.25319641931945
4870.0 77.22104414297881
5000.0 77.19320605400591
5150.0 77.17484694810298
5300.0 77.1930026803026
5450.0 77.15772264967009
5600.0 77.10377472705144
5800.0 77.07724021369037
6000.0 77.13621451078374
6150.0 77.11980251235727
6300.0 77.03413209442039
6500.0 76.99488723221499
6700.0 77.08371448093908
6900.0 77.15788730350233
7100.0 77.07984120663012
7300.0 76.99622184128367
7500.0 76.83311847971565
7750.0 76.41515873912326
8000.0 75.79404989010611
8250.0 75.38300708150408
8500.0 75.29337906619358
8750.0 75.24169462578432
9000.0 75.09441197420571
9250.0 74.89151159322896
9500.0 74.61794998502137
9750.0 74.33842540478729
10000.0 74.16430775414248
10300.0 74.03243259481931
10600.0 73.85345436541297
10900.0 73.5444852085502
11200.0 73.17455885193931
11500.0 72.78302257780263
11800.0 72.39244141758655
12200.0 71.97482274527749
12500.0 71.49997856964346
12800.0 70.80237800198104
13200.0 70.04147639789151
13600.0 69.3673401801365
14000.0 68.88243774586591
14500.0 68.36602509622665
15000.0 67.795783594697
15500.0 67.0240606287297
16000.0 66.12966867822962
16500.0 65.32039713682235
17000.0 64.62153247703141
17500.0 63.850242415645994
18000.0 62.895089936102295
18500.0 61.71349780524645
19000.0 60.25747783082738
19500.0 58.5652742378592
