Freq "Estimated In-Room Response"
22.4 15.023087777433872
23.0 16.683136747537716
23.6 17.891835509193143
24.0 18.055860326440083
25.0 19.194717660411058
25.8 20.735489895307737
26.5 22.651132336877325
27.2 25.438987603619054
28.0 28.108091706346713
29.0 30.7788058279249
30.0 32.615083495744685
30.7 33.21061862116811
31.5 34.451288194759385
32.5 35.895766386003245
33.5 38.462679433232736
34.5 42.19536738903976
35.5 45.40566030840658
36.5 44.368054095025244
37.5 45.85798244355401
38.7 47.90409460878111
40.0 50.86834665062382
41.2 54.17543797815013
42.5 57.70949740908887
43.7 60.76254198003278
45.0 63.512769705440476
46.2 65.65355550142114
47.5 67.73336123524531
48.7 70.45333622471149
50.0 73.51394838568164
51.5 72.03315081867945
53.0 73.12618004082697
54.5 74.55786368053047
56.0 75.71243678911098
58.0 76.53278230967443
60.0 77.20057081325875
61.5 77.74726870703866
63.0 78.05598939392286
65.0 78.27624886578771
67.0 78.47903463218354
69.0 78.74790611883763
71.0 79.10252518225771
73.0 79.57752173440942
75.0 79.91858779450504
77.5 80.17670138976239
80.0 80.59059769925814
82.5 80.7851917022385
85.0 80.7225801629596
87.5 80.5713878374823
90.0 80.5270004483051
92.5 80.34341467740738
95.0 80.32546551234145
97.5 80.2002655496535
100.0 80.005689896001
103.0 79.73436189565393
106.0 79.4366209736621
109.0 79.14368695871413
112.0 78.75513565707705
115.0 78.52459537977127
118.0 78.37672521099476
122.0 78.31632700589049
125.0 78.34842581476481
128.0 78.3955867794814
132.0 78.45934114358771
136.0 78.30086804016861
140.0 78.25639860649285
145.0 78.25561856138192
150.0 78.2330840636408
155.0 78.24331708478385
160.0 78.23332274394811
165.0 78.35803837886931
170.0 78.46152724812318
175.0 78.66486434361987
180.0 78.81515138791764
185.0 78.99999679336088
190.0 78.88369204088958
195.0 78.80397448403176
200.0 78.7102197511243
206.0 78.61054765967862
212.0 78.62336547357428
218.0 78.68329914115832
224.0 78.86042239399427
230.0 79.18359168916547
236.0 79.61355468034708
240.0 79.7323394797633
250.0 79.6169082482397
258.0 79.57719622950998
265.0 79.28007214712079
272.0 78.50985581902773
280.0 77.68134928231775
290.0 76.97875625834905
300.0 76.77743651651978
307.0 77.02049655625918
315.0 76.58947740451542
325.0 76.315718576679
335.0 76.1477858091988
345.0 76.14593980414399
355.0 76.20530358006488
365.0 76.06398645287796
375.0 76.49211155819836
387.0 77.39320381417787
400.0 77.90197491210596
412.0 77.83639277026029
425.0 77.32675118629243
437.0 76.92260063601341
450.0 76.97962026259003
462.0 77.56515850968637
475.0 78.29592083649162
487.0 78.59515335050348
500.0 78.32490918170534
515.0 78.07168705892458
530.0 78.07492686897473
545.0 78.4998376256681
560.0 78.50750312854355
580.0 77.90588238638101
600.0 77.53157222912914
615.0 77.42615471872422
630.0 77.30237032652663
650.0 77.08424127552375
670.0 77.20071547205704
690.0 77.34023250968941
710.0 76.93995991718343
730.0 76.38294326045978
750.0 75.67852621817268
775.0 74.6774066642049
800.0 74.45407198684423
825.0 75.50836600583787
850.0 76.03285685968125
875.0 75.79970999187789
900.0 75.64160223753957
925.0 75.67225752315805
950.0 75.70787666808094
975.0 75.13343652213354
1000.0 75.1623152312373
1030.0 75.13112522878656
1060.0 75.37740972437892
1090.0 75.53344395314552
1120.0 75.57061495666795
1150.0 75.36573806987772
1180.0 74.97979310552122
1220.0 74.63192159511156
1250.0 74.42352830860871
1280.0 74.14338098652098
1320.0 73.94548534925076
1360.0 73.70607348022548
1400.0 73.22225156249624
1450.0 73.29214446067418
1500.0 73.19223006080125
1550.0 72.89081239703808
1600.0 72.51582055517416
1650.0 72.23883378012816
1700.0 72.36669861493617
1750.0 72.99054321475649
1800.0 73.67650111654332
1850.0 74.23040203575478
1900.0 74.04974561938367
1950.0 72.7785043023756
2000.0 70.85260302844976
2060.0 71.67129984238042
2120.0 72.30814159740464
2180.0 72.0673028977887
2240.0 72.01022243956456
2300.0 72.40651979427925
2360.0 73.04997704556781
2400.0 73.55762109077996
2500.0 73.75179972806217
2580.0 74.06204859475308
2650.0 74.65622662615873
2720.0 75.08647277799547
2800.0 74.65942295001031
2900.0 73.66804369369962
3000.0 72.8033652438461
3070.0 72.4810324635254
3150.0 73.17381159062447
3250.0 73.89186456604232
3350.0 75.08153111380487
3450.0 74.75287706601013
3550.0 74.7660107722303
3650.0 74.68561761767833
3750.0 74.469441214742
3870.0 74.1978076572256
4000.0 74.80037452735115
4120.0 75.77066842581878
4250.0 76.4736363085652
4370.0 75.43358977489294
4500.0 74.79087332787556
4620.0 74.35843731880115
4750.0 74.00643610138187
4870.0 74.85320250491337
5000.0 75.6504791726156
5150.0 74.9543940685579
5300.0 73.97142199085793
5450.0 74.03282969269897
5600.0 74.47015427656287
5800.0 75.53983346249208
6000.0 75.66931641003217
6150.0 74.36071778729037
6300.0 74.57687337819299
6500.0 75.54559451596772
6700.0 75.8006248843456
6900.0 75.30710424958497
7100.0 75.44952617130403
7300.0 75.72354363633364
7500.0 75.69740424088042
7750.0 75.30059081004363
8000.0 76.16434980481519
8250.0 76.90749144340192
8500.0 76.57671247631708
8750.0 76.46506930104555
9000.0 77.0343860539918
9250.0 76.95245129867685
9500.0 76.79973388524783
9750.0 77.927596013774
10000.0 77.81255943825703
10300.0 76.85314593334874
10600.0 76.3921307869565
10900.0 74.81753585326722
11200.0 73.48885586025912
11500.0 72.94563828823108
11800.0 73.59165037493285
12200.0 73.5119059725199
12500.0 72.60974831534452
12800.0 73.53971967889419
13200.0 73.25634166930958
13600.0 74.76979347922237
14000.0 76.17688233065492
14500.0 74.28598649297155
15000.0 72.97014412654325
15500.0 72.08405215418034
16000.0 69.15687386552376
16500.0 67.03359962074283
17000.0 65.99337741501579
17500.0 64.15972334673806
18000.0 61.7257328145172
18500.0 60.37034750794034
19000.0 51.80937092756146
19500.0 46.75163195118493
