Freq "Listening Window"
22.4 78.54811617040767
23.0 79.72658444060518
23.6 80.84811617040768
24.0 81.94811617040767
25.0 83.0250649205604
25.8 84.10344130645446
26.5 85.15858718521348
27.2 86.20344130645445
28.0 87.20344130645447
29.0 88.21402045830749
30.0 89.13686791718877
30.7 90.06901563387481
31.5 91.015795203805
32.5 91.87080886241088
33.5 92.73686791718877
34.5 93.54761028518747
35.5 94.29361922237842
36.5 95.04761028518746
37.5 95.74761028518746
38.7 96.3708088624109
40.0 96.97080886241088
41.2 97.50446896720571
42.5 98.0044689672057
43.7 98.42658975739629
45.0 98.77080886241089
46.2 99.1044689672057
47.5 99.34761028518747
48.7 99.515795203805
50.0 99.62658975739627
51.5 99.69361922237843
53.0 99.715795203805
54.5 99.69361922237843
56.0 99.6708088624109
58.0 99.64990058997796
60.0 99.64990058997796
61.5 99.69361922237843
63.0 99.74990058997798
65.0 99.84990058997798
67.0 99.9044689672057
69.0 99.94990058997797
71.0 99.92658975739629
73.0 99.83839499344685
75.0 99.69361922237843
77.5 99.48171567136042
80.0 99.30446896720571
82.5 99.20446896720571
85.0 99.20446896720571
87.5 99.33760804337179
90.0 99.4608599679042
92.5 99.51833130503636
95.0 99.41833130503636
97.5 99.14519848319068
100.0 98.72848570881443
103.0 98.31551979168228
106.0 97.99436525452772
109.0 97.87667223864713
112.0 97.92851735785955
115.0 98.07179197259893
118.0 98.24519848319068
122.0 98.42658975739629
125.0 98.47966718317527
128.0 98.49055179596517
132.0 98.46875522199862
136.0 98.43839499344686
140.0 98.4341994621379
145.0 98.27919882020029
150.0 98.07042386367299
155.0 97.90740398840494
160.0 97.78516582348206
165.0 97.69036013317128
170.0 97.46639659200986
175.0 96.93568408729334
180.0 95.88454367031594
185.0 94.08323656986528
190.0 91.90255283664608
195.0 90.69395553951833
200.0 91.3778206877013
206.0 92.34168366617449
212.0 92.97924886047295
218.0 93.45619383813411
224.0 94.09965786824978
230.0 95.33584030024323
236.0 96.64152431803413
240.0 97.53173529623992
250.0 98.70149376543897
258.0 100.2624081919265
265.0 101.15694332272136
272.0 101.22755857907033
280.0 100.76173845841231
290.0 99.95469197340341
300.0 99.55512638508554
307.0 99.58080413022164
315.0 99.37751176411166
325.0 98.18831304742523
335.0 96.58622241056179
345.0 95.8726504161528
355.0 95.65406341136139
365.0 97.05174742211166
375.0 100.15064983166195
387.0 102.35495711178724
400.0 103.3693818154755
412.0 104.6945636623862
425.0 104.71613613415128
437.0 103.42381507917807
450.0 102.00116178182557
462.0 100.75271018823005
475.0 99.14284653485254
487.0 98.30080821477897
500.0 97.95637654909541
515.0 95.53767402715354
530.0 94.13724417762717
545.0 92.24673907768928
560.0 88.58234030364049
580.0 88.94592400722632
600.0 92.52829957706741
615.0 96.48559679593083
630.0 96.47832444941879
650.0 94.21858307067082
670.0 90.91244222296784
690.0 87.4364468593455
710.0 87.43638336800598
730.0 95.27114965303174
750.0 98.16713527705883
775.0 97.46805798094495
800.0 95.99439506308939
825.0 95.84776973696265
850.0 94.9743565391523
875.0 97.29976587293383
900.0 98.88572862280873
925.0 97.95657246533648
950.0 96.1879615296973
975.0 94.41272249674336
1000.0 93.57901205991172
1030.0 91.49285130967175
1060.0 89.40558553523677
1090.0 91.55660368128741
1120.0 88.9624282569025
1150.0 93.63083941747377
1180.0 96.70715906937951
1220.0 95.03925259965206
1250.0 92.33313933227036
1280.0 94.05213918774163
1320.0 93.21994385398168
1360.0 88.71781686056383
1400.0 87.41805824783702
1450.0 91.06943631076314
1500.0 90.51658768314293
1550.0 91.42999974875772
1600.0 91.16371117266132
1650.0 90.90183094744073
1700.0 92.73780613503878
1750.0 93.99199455729713
1800.0 93.5800976414329
1850.0 93.69932709695343
1900.0 95.52146264428907
1950.0 95.60274650205128
2000.0 96.12377889305874
2060.0 95.80809556759787
2120.0 97.75489015577878
2180.0 96.74541780993545
2240.0 98.60107382476136
2300.0 97.58800008537068
2360.0 99.43845906734373
2400.0 95.97646552375443
2500.0 95.41692586911002
2580.0 95.64532165831884
2650.0 94.78295957359369
2720.0 94.93616967078628
2800.0 94.6237146886375
2900.0 93.07824326529284
3000.0 93.04446908994638
3070.0 93.33842274252137
3150.0 92.80845552911637
3250.0 93.08768352389264
3350.0 94.03273560927141
3450.0 95.37152702139021
3550.0 96.61941553096602
3650.0 98.21481316875304
3750.0 98.61908550891665
3870.0 98.96990408502856
4000.0 97.86207204272584
4120.0 100.36232424950074
4250.0 99.93730928082418
4370.0 102.81933375416975
4500.0 102.1259890068097
4620.0 101.02300442298696
4750.0 99.4676631853879
4870.0 99.4396173128288
5000.0 98.9976551889483
5150.0 99.97675785594126
5300.0 101.88787631760994
5450.0 101.94271490618054
5600.0 97.2030337864777
5800.0 97.54363642829966
6000.0 96.92824128206425
6150.0 97.46569951223535
6300.0 98.27937810383517
6500.0 96.47555677314833
6700.0 97.69092868248539
6900.0 99.28560608563753
7100.0 96.31908519945426
7300.0 94.99802696682276
7500.0 92.42989617104782
7750.0 92.40657644577166
8000.0 93.2583669213831
8250.0 86.17691070301474
8500.0 90.97629865441718
8750.0 92.95511750251217
9000.0 92.51275063985909
9250.0 93.25863715482532
9500.0 93.4854868573045
9750.0 95.25801903568576
10000.0 91.354252916785
10300.0 90.25050879119354
10600.0 88.87223948567788
10900.0 91.74171292841501
11200.0 95.13387514968753
11500.0 90.241485136826
11800.0 87.28910518180751
12200.0 84.9961715798045
12500.0 86.18873437252654
12800.0 86.84958900027851
13200.0 86.02335855976453
13600.0 81.53456673467892
14000.0 83.34529941103065
14500.0 85.15369444597111
15000.0 83.01671604504136
15500.0 88.86539087272912
16000.0 88.4137981109065
16500.0 87.2680263506531
17000.0 82.67301832966855
17500.0 81.43134454010904
18000.0 80.94190389321099
18500.0 82.4604943019769
19000.0 81.58108982821415
19500.0 79.85048098298
