Freq "Listening Window"
22.4 76.40254655015453
23.0 77.58101482035204
23.6 78.70254655015454
24.0 79.80254655015453
25.0 80.87949530030724
25.8 81.95787168620129
26.5 83.01301756496034
27.2 84.05787168620131
28.0 85.0578716862013
29.0 86.06845083805433
30.0 86.99129829693561
30.7 87.92344601362166
31.5 88.87022558355184
32.5 89.72523924215774
33.5 90.5912982969356
34.5 91.4020406649343
35.5 92.14804960212527
36.5 92.9020406649343
37.5 93.60204066493432
38.7 94.22523924215773
40.0 94.82523924215774
41.2 95.35889934695254
42.5 95.85889934695255
43.7 96.28102013714312
45.0 96.62523924215773
46.2 96.95889934695255
47.5 97.20204066493432
48.7 97.37022558355184
50.0 97.48102013714313
51.5 97.54804960212527
53.0 97.57022558355185
54.5 97.54804960212527
56.0 97.52523924215774
58.0 97.50433096972482
60.0 97.50433096972482
61.5 97.54804960212527
63.0 97.60433096972481
65.0 97.70433096972481
67.0 97.75889934695255
69.0 97.80433096972482
71.0 97.78102013714313
73.0 97.6928253731937
75.0 97.54804960212527
77.5 97.33614605110728
80.0 97.15889934695255
82.5 97.05889934695254
85.0 97.05889934695254
87.5 97.19203842311862
90.0 97.31529034765103
92.5 97.3727616847832
95.0 97.2727616847832
97.5 96.99962886293751
100.0 96.58291608856129
103.0 96.16995017142912
106.0 95.84879563427455
109.0 95.73110261839398
112.0 95.78294773760638
115.0 95.92622235234577
118.0 96.09962886293752
122.0 96.28102013714312
125.0 96.33409756292212
128.0 96.34498217571203
132.0 96.32318560174545
136.0 96.2928253731937
140.0 96.28862984188473
145.0 96.13362919994714
150.0 95.92485424341983
155.0 95.7618343681518
160.0 95.6395962032289
165.0 95.54479051291811
170.0 95.3208269717567
175.0 94.79011446704018
180.0 93.73897405006278
185.0 91.93766694961211
190.0 89.75698321639294
195.0 88.54838591926517
200.0 89.23225106744813
206.0 90.19611404592135
212.0 90.8336792402198
218.0 91.31062421788096
224.0 91.95408824799662
230.0 93.19027067999006
236.0 94.49595469778099
240.0 95.38616567598677
250.0 96.55592414518583
258.0 98.11683857167336
265.0 99.0113737024682
272.0 99.08198895881716
280.0 98.61616883815915
290.0 97.80912235315026
300.0 97.40955676483237
307.0 97.43523450996847
315.0 97.23194214385852
325.0 96.04274342717207
335.0 94.44065279030865
345.0 93.72708079589964
355.0 93.50849379110825
365.0 94.90617780185849
375.0 98.0050802114088
387.0 100.20938749153407
400.0 101.22381219522237
412.0 102.54899404213303
425.0 102.57056651389813
437.0 101.27824545892493
450.0 99.8555921615724
462.0 98.60714056797688
475.0 96.99727691459938
487.0 96.1552385945258
500.0 95.81080692884225
515.0 93.39210440690037
530.0 91.99167455737401
545.0 90.10116945743613
560.0 86.43677068338732
580.0 86.80035438697315
600.0 90.38272995681425
615.0 94.34002717567768
630.0 94.33275482916565
650.0 92.07301345041766
670.0 88.7668726027147
690.0 85.29087723909232
710.0 85.29081374775284
730.0 93.1255800327786
750.0 96.02156565680568
775.0 95.32248836069178
800.0 93.84882544283623
825.0 93.7022001167095
850.0 92.82878691889916
875.0 95.15419625268066
900.0 96.74015900255557
925.0 95.81100284508332
950.0 94.04239190944415
975.0 92.26715287649019
1000.0 91.43344243965855
1030.0 89.3472816894186
1060.0 87.26001591498363
1090.0 89.41103406103427
1120.0 86.81685863664934
1150.0 91.48526979722061
1180.0 94.56158944912636
1220.0 92.89368297939892
1250.0 90.18756971201722
1280.0 91.90656956748848
1320.0 91.07437423372853
1360.0 86.57224724031066
1400.0 85.27248862758387
1450.0 88.92386669050997
1500.0 88.37101806288976
1550.0 89.28443012850455
1600.0 89.01814155240818
1650.0 88.75626132718759
1700.0 90.59223651478561
1750.0 91.84642493704399
1800.0 91.43452802117976
1850.0 91.55375747670027
1900.0 93.37589302403592
1950.0 93.45717688179813
2000.0 93.97820927280559
2060.0 93.66252594734473
2120.0 95.60932053552561
2180.0 94.59984818968228
2240.0 96.4555042045082
2300.0 95.44243046511752
2360.0 97.29288944709059
2400.0 93.83089590350127
2500.0 93.27135624885688
2580.0 93.4997520380657
2650.0 92.63738995334052
2720.0 92.79060005053313
2800.0 92.47814506838436
2900.0 90.93267364503969
3000.0 90.8988994696932
3070.0 91.19285312226822
3150.0 90.6628859088632
3250.0 90.9421139036395
3350.0 91.88716598901824
3450.0 93.22595740113707
3550.0 94.47384591071287
3650.0 96.06924354849988
3750.0 96.47351588866351
3870.0 96.82433446477542
4000.0 95.71650242247269
4120.0 98.21675462924757
4250.0 97.79173966057104
4370.0 100.6737641339166
4500.0 99.98041938655655
4620.0 98.8774348027338
4750.0 97.32209356513475
4870.0 97.29404769257566
5000.0 96.85208556869516
5150.0 97.83118823568812
5300.0 99.74230669735678
5450.0 99.79714528592737
5600.0 95.05746416622455
5800.0 95.39806680804651
6000.0 94.7826716618111
6150.0 95.32012989198219
6300.0 96.13380848358202
6500.0 94.32998715289517
6700.0 95.54535906223222
6900.0 97.14003646538436
7100.0 94.17351557920111
7300.0 92.8524573465696
7500.0 90.28432655079466
7750.0 90.2610068255185
8000.0 91.11279730112996
8250.0 84.0313410827616
8500.0 88.83072903416404
8750.0 90.80954788225901
9000.0 90.36718101960592
9250.0 91.11306753457217
9500.0 91.33991723705135
9750.0 93.11244941543262
10000.0 89.20868329653185
10300.0 88.10493917094038
10600.0 86.72666986542471
10900.0 89.59614330816186
11200.0 92.98830552943437
11500.0 88.09591551657283
11800.0 85.14353556155436
12200.0 82.85060195955134
12500.0 84.04316475227337
12800.0 84.70401938002536
13200.0 83.87778893951136
13600.0 79.38899711442578
14000.0 81.19972979077748
14500.0 83.00812482571796
15000.0 80.87114642478822
15500.0 86.71982125247595
16000.0 86.26822849065333
16500.0 85.12245673039995
17000.0 80.52744870941538
17500.0 79.28577491985588
18000.0 78.79633427295784
18500.0 80.31492468172374
19000.0 79.43552020796099
19500.0 77.70491136272685
