Freq "Listening Window"
22.4 48.77258324985223
23.0 49.193522432729736
23.6 49.61584768887772
24.0 50.13755444245882
25.0 50.64940904860464
25.8 51.137554442458836
26.5 51.637554442458836
27.2 52.06016851579176
28.0 52.46016851579175
29.0 52.88215464686853
30.0 53.28215464686852
30.7 53.78215464686852
31.5 54.28215464686852
32.5 54.739766190139875
33.5 55.15134542145603
34.5 55.539766190139886
35.5 55.93976619013989
36.5 56.43976619013989
37.5 56.92732446055268
38.7 57.417185116462804
40.0 57.827324460552674
41.2 58.227324460552666
42.5 58.72732446055268
43.7 59.21513140638753
45.0 59.70372122147141
46.2 60.15051830713797
47.5 60.571085963863254
48.7 61.10372122147142
50.0 61.60372122147142
51.5 62.06929122893706
53.0 62.49174107337896
54.5 63.024511169348216
56.0 63.52297452478399
58.0 63.99174107337896
60.0 64.44619769073371
61.5 64.96929122893707
63.0 65.46929122893705
65.0 65.93433430355903
67.0 66.43433430355901
69.0 66.94490912785565
71.0 67.40068596875831
73.0 67.92297452478398
75.0 68.38897069411674
77.5 68.84490912785566
80.0 69.34490912785564
82.5 69.78897069411674
85.0 70.26598184123942
87.5 70.69965641863841
90.0 71.16598184123941
92.5 71.56598184123942
95.0 71.96598184123943
97.5 72.3767242092381
100.0 72.76598184123942
103.0 73.08820545014304
106.0 73.44391347403692
109.0 73.76598184123941
112.0 74.07672420923812
115.0 74.28820545014304
118.0 74.54391347403691
122.0 74.72121437876108
125.0 74.8767242092381
128.0 74.97672420923811
132.0 75.05471049957309
136.0 75.05471049957309
140.0 74.99914168850498
145.0 74.8767242092381
150.0 74.69992278646154
155.0 74.4547104995731
160.0 74.13206791376919
165.0 73.7320679137692
170.0 73.31082959541108
175.0 72.8547104995731
180.0 72.45471049957308
185.0 72.16573130239811
190.0 72.06573130239809
195.0 72.26573130239811
200.0 72.69914168850497
206.0 73.31030422838951
212.0 74.01030422838951
218.0 74.71030422838952
224.0 75.32196217302773
230.0 75.85596064853624
236.0 76.17796803832934
240.0 76.35596064853624
250.0 76.32396386986775
258.0 76.12396386986777
265.0 75.74744522908699
272.0 75.21283642873742
280.0 74.51283642873742
290.0 73.83585558044902
300.0 73.40142020471713
307.0 73.31257689725018
315.0 73.69023477766302
325.0 74.35544669915227
335.0 75.0333245966441
345.0 75.64288252196522
355.0 76.04288252196523
365.0 76.20878110722592
375.0 76.13154510983422
387.0 75.79786914604927
400.0 75.22069026656405
412.0 74.54313438235815
425.0 73.94313438235814
437.0 73.82195024553499
450.0 74.22195024553498
462.0 74.75821553888315
475.0 75.02776019802877
487.0 74.82776019802878
500.0 74.1659764823224
515.0 73.45495630244667
530.0 73.37015783313683
545.0 73.91814315476017
560.0 74.52925702473661
580.0 74.9292570247366
600.0 75.14060040377308
615.0 75.36507277999542
630.0 75.36717225706265
650.0 74.69219760411337
670.0 72.51075686157905
690.0 67.40244471720175
710.0 64.31048725134835
730.0 71.35054970934075
750.0 74.53549777050088
775.0 75.47493940094215
800.0 75.2338790763998
825.0 74.80841339944712
850.0 74.55315314474646
875.0 74.06208120472078
900.0 73.17980308917642
925.0 72.14397164309604
950.0 71.51679709283704
975.0 71.3792959775863
1000.0 71.28671500044406
1030.0 71.17837901766265
1060.0 71.3735830323777
1090.0 71.70057250083846
1120.0 71.89156797800881
1150.0 71.50825457931712
1180.0 70.40477787184444
1220.0 70.73655004709451
1250.0 72.30914539518238
1280.0 72.70274339075567
1320.0 73.63422017578931
1360.0 74.54818941348849
1400.0 74.15189516878888
1450.0 73.95210754767587
1500.0 74.06646688288203
1550.0 74.27282194004373
1600.0 74.97397495408227
1650.0 74.89563991704908
1700.0 74.45771423539011
1750.0 74.08055656735013
1800.0 74.1455449005989
1850.0 75.27887016737961
1900.0 76.28883203272342
1950.0 75.2820984686485
2000.0 73.98537237390096
2060.0 75.24219190561242
2120.0 77.65298000787492
2180.0 77.0933418757374
2240.0 76.53928007905536
2300.0 76.94537635821112
2360.0 76.61701327333108
2400.0 74.51660617059405
2500.0 72.52070360726117
2580.0 72.3307963652063
2650.0 72.9375822201269
2720.0 72.78136887946731
2800.0 74.49917573936193
2900.0 74.86408673142942
3000.0 74.42068039615353
3070.0 73.26083744413023
3150.0 72.46027665270665
3250.0 72.9913825462044
3350.0 73.62829716919077
3450.0 73.68962654775393
3550.0 74.08245306051644
3650.0 74.05015559587511
3750.0 73.74788097825056
3870.0 73.5498963804976
4000.0 73.54173119846112
4120.0 74.16659537681454
4250.0 73.16440801082959
4370.0 72.56196879833564
4500.0 72.45160206823695
4620.0 73.31054063340724
4750.0 71.80298474447203
4870.0 71.48135489313036
5000.0 72.07533107384398
5150.0 73.49365355414565
5300.0 73.01753243594835
5450.0 72.00829608153246
5600.0 76.09342703655008
5800.0 76.9769134568649
6000.0 76.71865835927012
6150.0 78.24963888789786
6300.0 80.06769344364875
6500.0 79.03534442132869
6700.0 77.3441945771848
6900.0 77.07657317239295
7100.0 77.41656606869066
7300.0 76.75241105863464
7500.0 76.46158204529209
7750.0 76.07337107927937
8000.0 76.65594273163649
8250.0 75.76797679448546
8500.0 76.98040772525869
8750.0 76.0325005636933
9000.0 78.84718906262373
9250.0 80.88378511630485
9500.0 77.99763431617963
9750.0 75.65578661552048
10000.0 76.94404768293936
10300.0 78.28267488938272
10600.0 79.0767640442944
10900.0 74.96110039152023
11200.0 76.45564707656837
11500.0 74.73802285306807
11800.0 73.85333885087012
12200.0 71.98603563378765
12500.0 71.10853819684625
12800.0 64.40719064824387
13200.0 59.007060966653825
13600.0 60.81958699438695
14000.0 64.08278658306426
14500.0 66.2965612821561
15000.0 67.49416756341412
15500.0 69.25268755460843
16000.0 65.05964315419627
16500.0 63.83032730805027
17000.0 61.487064587165705
17500.0 57.16854975581934
18000.0 52.672265982679164
18500.0 46.80414298035194
19000.0 49.380695694088075
19500.0 52.140703835300386
