Freq,Floor Bounce,Ceiling Bounce,Front Wall Bounce,Side Wall Bounce,Rear Wall Bounce,Total Early Reflection
20.5078,64.14364835372956,60.057112422383284,62.88428267068534,61.609712125119984,64.08151682475713,62.815130218040935
21.9727,63.98290808531698,59.37234345394887,62.38231043093819,60.30593115068061,66.33978456684457,63.212349392432486
23.4375,64.618478281586,62.83647694617858,63.224635451622845,62.54198148291428,69.43703713736036,65.44038889953757
24.9023,67.2705475951,64.2855836844823,66.01700175527526,64.68122533037138,70.39419033156011,67.14362061392862
26.3672,68.36338137271784,66.87403215410873,67.27635681317958,66.69632419819504,72.76231338688947,69.09912518788579
27.832,69.95711649962453,68.40900067407765,68.90383068504013,68.33437102322878,74.2741553362415,70.65758378314152
29.2969,71.89708604220485,70.62126384331413,70.97526921256639,70.55063023280496,75.92596465539052,72.55383460342182
30.7617,73.19834034280723,72.15543111072193,72.34046589071428,72.0010650639089,77.37877334532484,73.97911465393398
32.2266,75.15049009188374,74.22095177346796,74.38274113095207,74.13537671870856,78.96850225540423,75.82912242629484
33.6914,76.92224676379507,76.33851943629509,76.31307815245492,76.23995713577062,80.64625961189235,77.68151191950139
35.1563,78.4530379264053,77.95628557902458,77.89437533121145,77.89129476089248,82.0226585202897,79.19005970606403
36.6211,80.13702380640946,79.55348701527464,79.60326103476402,79.55407705418007,83.21880536390509,80.68024410055413
38.0859,81.43889171629196,81.02649012966775,80.97640824570679,80.99324368694694,84.46971825987588,82.02341302663581
39.5508,82.87379965091685,82.65142735666228,82.49040669116397,82.62050150141386,85.82491823227973,83.504779581726
41.0156,84.35711703974552,84.0389995326306,83.98796500242649,84.06505753541067,86.90265567421149,84.8336556240942
42.4805,85.68784883983028,85.37656406908026,85.35227798547197,85.42008350694027,87.98037649558194,86.09545832147589
43.9453,86.61323645541111,86.37581034136862,86.30898079525134,86.41749221798183,88.89438330352772,87.0476095600709
45.4102,87.77171041639807,87.54761004941548,87.49170297086462,87.61279271364904,89.86089365716406,88.16117943231632
46.875,88.80510840402746,88.62632661890369,88.55162230748022,88.69397065661961,90.77536844348359,89.18079518508367
48.3398,89.68654653303274,89.5015666894065,89.44249082605405,89.58644193582083,91.55299345728022,90.03504853842924
51.2695,91.31575799613378,91.21828659754749,91.11340452185571,91.30539183531026,93.04456648898966,91.66512928230864
52.7344,92.06533546503275,91.99231246025138,91.88321737419605,92.07946624453132,93.69819111333724,92.40112870904477
54.1992,92.73046952444463,92.67384189478155,92.56142009992435,92.76656255139446,94.2809753514059,93.0536540423354
55.6641,93.32989645655073,93.29175655328902,93.17406505610568,93.38882178044199,94.82885596656385,93.6495290127711
58.5938,94.50372983632835,94.48531423248875,94.36803303838619,94.59199251529685,95.8485761413618,94.796351664747
60.0586,94.98515920245764,94.97508818311556,94.8577827446213,95.08426228576778,96.27148187013509,95.26809192351473
62.9883,95.9079853031854,95.92702603846499,95.7993966065698,96.03600374935633,97.10065919755617,96.18201260255049
64.4531,96.33088066032427,96.36203391424492,96.23061621581462,96.47028933640155,97.4759076261712,96.59921352156614
67.3828,97.10710442681004,97.15765979633498,97.02154147090036,97.26534544951443,98.15848064536058,97.36279673840583
68.8477,97.47530244228187,97.52777033177242,97.39450478391998,97.63891577229825,98.48132682360385,97.72244661163792
71.7773,98.15531576476897,98.22595745619705,98.0890189347778,98.3321147501336,99.08106852259283,98.39227121179405
74.707,98.78496260066296,98.84918455165698,98.72114892392166,98.96986480206431,99.64269237728152,99.00690180826746
77.6367,99.28158113087878,99.33683176377372,99.21641247579021,99.46457269762698,100.06475723486881,99.48400139030336
79.1016,99.51416706226223,99.57881604849669,99.45511291883116,99.70141666907263,100.26122403394794,99.71217980559456
82.0313,100.0538417995276,100.126152063534,100.01388117945632,100.23435564618792,100.65727606156732,100.2234510568007
84.9609,100.54345784944208,100.59171657953598,100.51305572882848,100.68448256026822,100.92781828347835,100.65471124340603
87.8906,100.81925161042686,100.82507859454893,100.75526501946355,100.97324209596788,101.31594415433435,100.94254021442721
90.8203,100.57726031635316,100.65581315788089,100.48633646658398,100.88950155916328,101.68957124616018,100.88243501690816
95.2148,101.7203829702279,101.78133489403378,101.72603568306432,101.83951850899612,101.7538314818951,101.76443882441217
98.1445,101.63020184153254,101.63302793162528,101.58182505068532,101.79145097819499,101.94108051590726,101.7175719583812
101.074,101.72383175652531,101.7506831130354,101.69270333392627,101.8968318652546,102.03126186121636,101.82093450230823
105.469,101.83417903069396,101.84534670996042,101.79366288254343,101.9858831463741,102.10060053468267,101.91345157491443
108.398,101.9158417995276,101.9003386533955,101.87309832355845,102.07188988638603,102.15925318793981,101.98552733896723
112.793,102.13913370147576,102.11233427998759,102.0998382217924,102.25149243912406,102.22647853680503,102.16629235479898
117.188,101.9981401523236,101.94367006839653,101.95360844983568,102.1038281127314,102.09701696148755,102.01979832351199
120.117,102.12771092902298,102.15235184727766,102.13158495327494,102.22862342171297,102.11672648820225,102.15158721030822
124.512,101.91803693818295,101.89609410235519,101.92434147776228,102.01449978934977,101.72572568643767,101.89675452088343
128.906,101.54138994696436,101.44877115498866,101.51790689049864,101.60656743582236,101.25722257562127,101.4760084845003
133.301,101.30848774100788,101.27633949672769,101.26806019473264,101.4220196807473,101.34642692771291,101.32463065912765
139.16,101.05980723884662,100.9980119684858,101.01415655738683,101.158421980878,101.16000862073034,101.07863433863396
143.555,100.86639678745112,100.75177906671183,100.82995159316508,100.89818679230785,100.7280979808299,100.81537333295499
147.949,100.6553858775285,100.49983061212842,100.61230650607617,100.65319351293876,100.44957643429578,100.5748701902677
153.809,100.56201726937103,100.30507210468654,100.50744858522026,100.45533883205746,100.01127081605792,100.37267852980943
159.668,100.3536915620423,100.0977788651171,100.30060302193758,100.2593719768399,99.76817728282103,100.16101034187399
165.527,100.08467529017783,99.91839302875533,100.06287116729641,100.03390736311654,99.60315143246987,99.94419758077532
171.387,99.74207511311027,99.58395785877624,99.72310807183679,99.7182659604896,99.36693280148981,99.62915170326423
177.246,99.55250166107969,99.36385555976847,99.52650595835999,99.45492005070162,99.03937304180037,99.39134968157116
183.105,99.21596670069277,98.94280372447525,99.18187027344435,99.07186941207672,98.62792423588881,99.01322424845199
188.965,99.06114587032586,98.76502797535414,99.03971022159462,98.86952334218591,98.35047976248896,98.82469343554143
196.289,98.99010607531001,98.74881708128255,98.99433519655032,98.82191616256532,98.18370616536615,98.75771548528631
203.613,98.71773745496806,98.42752746969583,98.73400035342205,98.47581582855284,97.80064096936738,98.44399349218979
210.938,98.61094616851315,98.25804621257183,98.60276502284981,98.32938711146828,97.54005149242536,98.2852706719189
218.262,98.47176934501893,98.14435853662104,98.48334625059597,98.19940764600115,97.4376791419689,98.16348765193011
225.586,98.28502042191805,98.01067709261261,98.31426306700163,97.99487790751542,97.29432813459108,97.9949453176057
232.91,98.19027722819324,97.91201552570935,98.23048351538522,97.81762142638453,96.93029578766746,97.84058313024975
241.699,98.0517115359508,97.72565484547498,98.05487876938167,97.67289728978253,96.76487261741751,97.67865461498256
250.488,97.98489644933169,97.4696119755169,97.93532049363588,97.48876892714453,96.52163193099125,97.51066569254557
259.277,97.70501184818855,97.45979058258881,97.7245665057035,97.33552370610487,96.82960148379655,97.42287090206615
268.066,97.5177260953449,96.6839639879628,97.36348182337827,96.56350329206954,95.95479367398336,96.85354667180192
276.855,97.77669774483111,96.82931301571631,97.67196968076615,97.0010590066992,95.74737569527377,97.06407427647292
287.109,98.09423874576669,97.20939994589547,98.01814553505815,97.19357758869256,95.82804657235987,97.34163760471976
297.363,97.93434367703644,97.20749190111006,97.95172459232205,96.91954588558531,95.6168595201959,97.20599964343923
307.617,98.14869617738347,97.16471997202977,98.01708406438286,97.29386088774612,95.80140176739219,97.36161446206413
319.336,97.8983091173947,96.95273633962407,97.76709525751829,96.9174276323754,95.5363124877623,97.09213909693712
329.59,98.14386231842042,97.02601298354833,97.97393576248756,97.0782058574577,95.30750049611139,97.21532374853325
341.309,97.95404403023014,96.64597379048848,97.63052552374016,96.76917789839499,95.42220997906827,96.97146864243643
353.027,98.11491591118838,96.32627734545255,97.90007602949998,96.62353570457103,95.12213304145614,96.95213444572917
366.211,98.684555061221,96.81985523370469,98.57308764940876,97.1585495370402,95.04771866342156,97.44919547849722
379.395,98.90740867924525,97.6078704580272,98.88050619083245,97.72732100436043,95.70135714083187,97.91134319801097
392.578,98.75396235584124,97.09872123753688,98.56488392444007,97.3518818551795,95.34757374464499,97.58602052007517
405.762,98.54225858788608,96.77378779826512,98.40883425859914,96.98183948370286,95.06710565116256,97.33053622981532
420.41,98.88762134164797,97.27545052412913,98.88542382928117,97.48429868880349,94.60967966877573,97.68052804166231
435.059,98.58032036694325,97.34876286034671,98.64454850031468,97.44097663442366,94.78939025538952,97.56205442786377
451.172,99.13046976711284,97.47330799582156,99.10686379347018,97.74810352401391,94.40817256197187,97.87164085154969
465.82,98.81626235301776,97.42469969133256,98.87719307473984,97.61756172763126,94.34333191244397,97.68771839693406
483.398,98.88766180470222,97.41521836063797,98.87100075475156,97.65698668188091,94.08665320072299,97.6876937402351
499.512,98.68646357313506,97.46407605140948,98.6239528680815,97.65879069102934,94.07675479082498,97.5801890976946
517.09,98.67687273582764,97.62231422443043,98.60493738531375,97.55741656917348,94.14577725489468,97.59006570314759
536.133,98.27499253975948,96.68561332215124,98.06625902061018,96.80185844766783,93.82003416008871,96.9877440393131
555.176,99.13417318762394,96.63897645563054,98.87646070341538,97.54375227293683,93.39136759335369,97.5417833944988
574.219,99.86408370069779,97.08683646968018,99.5005316130195,98.24411785797048,94.06969919709317,98.18826074690816
594.727,99.28523510693903,96.6902526460515,99.01768757100953,97.67273153502356,94.38335832802332,97.7408365840849
615.234,100.35960741447471,96.48630315916665,100.02815813710738,98.00091369507547,93.98945768790128,98.35028027192972
637.207,100.56116914260383,96.2794436696483,100.39944478879504,98.86819936195494,95.20819388487124,98.76353785168239
659.18,100.47909985928582,96.67969530383576,100.62710829257084,98.84110436157394,95.70911664582164,98.89372888555968
682.617,100.33548530898355,96.32904216285212,100.60447871372857,98.85564693801167,95.7984109465649,98.81669968668433
707.52,100.71688949370247,96.79344956303598,101.14310744439291,99.01738456907073,95.53863278493708,99.15292432822709
732.422,100.70843952191082,98.53654486327385,101.36556614058159,98.7193017363507,95.0993299513803,99.37392491964431
757.324,100.54109743706087,99.27359009120792,100.92524100975434,98.66417796358738,93.2720590630185,99.20514667265104
785.156,99.80714787747519,98.41679975977539,99.86839150425325,98.85630052198364,92.91898164190138,98.55584893518116
811.523,98.59546238994673,97.25682178504569,98.91891850247607,98.09170813166891,94.86750705210885,97.76146434836491
840.82,99.30032679310335,96.70149363941783,100.3496340180711,98.0322774436343,94.78868482786541,98.24751399532175
870.117,100.16962745515684,97.88758223858433,100.40844718424202,98.13299350710875,94.8519569430398,98.70343753328437
900.879,100.9842112609542,98.84248668276624,101.241394690142,98.30541290433754,95.35616621232889,99.41655978364827
933.105,100.356856043774,98.08920414525501,100.62808241745527,97.51332023119562,94.96277537273875,98.76551534017275
965.332,100.17592745054155,97.50112717055313,100.4269538033805,96.31335352237667,94.80327890772577,98.37240948025926
1000.49,99.98155890542452,96.05967870397578,100.78890187797127,95.50715674120373,95.11240179171261,98.16704119565844
1035.64,99.20542942653913,95.53503029679446,101.73853882208857,96.84324115553967,94.2977745476291,98.36984355137307
1072.27,98.03237789334314,96.1254303745846,101.24254047916763,97.45030918515074,92.31641547204053,97.92825184763014
1108.89,97.75875331630414,96.53229701609887,100.29282048692133,97.1263569435184,91.0188239581078,97.41790177010878
1148.44,97.78862597502201,96.0764973969384,99.39227053815685,97.00327099563707,90.61403896263475,96.97635891272239
1189.45,98.65227046721476,96.24054602834566,99.21780490273977,96.89020663545192,89.83168752690271,97.116456695193
1230.47,99.57420626743632,96.92979526013414,100.13377742076833,97.28702428303805,90.12062570622447,97.88067868795454
1274.41,100.01963753169444,97.70949465173923,100.44938957380609,97.34016474643542,90.03536884650073,98.25623739045702
1319.82,99.55525621128184,95.75223668319751,100.07813260650082,96.80060393941251,89.23218347530707,97.57295671260391
1366.7,99.5265394684756,96.24758002972249,99.83711509907987,96.06426971270035,89.20216549959267,97.43294110423106
1413.57,99.14979117971039,96.28098872658332,99.8136156144293,95.54547947869874,88.30115932860434,97.21164962018341
1463.38,98.78868930216618,95.415357783035,99.94949582370529,95.64672934086929,88.64685377818961,97.04706884424769
1516.11,98.5884243640264,94.46633677645127,100.1115996194731,95.94388484794743,88.47218509135386,96.97497593618051
1568.85,98.15709171065282,94.51960326578742,100.44566498565615,95.8719297291253,87.9970403224012,96.98095486221175
1624.51,98.34594574606842,92.78801492186315,100.16842465792362,95.63303734116778,87.95942177038319,96.70467951098115
1681.64,97.56561036602147,91.83188583599181,99.26854372797148,95.0203172989867,87.48265356918144,95.89299083820539
1741.7,96.99044962570926,91.19482198447142,99.61812101656992,95.27219542867309,87.28964435685346,95.88347032063619
1803.22,96.06415356183922,90.68633090769295,100.38126235168666,95.89867021778943,87.93231686616528,96.15730403101412
1866.21,95.89062407010454,90.31521086562088,100.6773814621816,96.04041502204377,88.04605773504765,96.29435317098203
1932.13,96.0024575828661,90.51630262011476,100.20873301691334,95.74876353108763,87.71625544899783,96.0097903877531
1999.51,95.44232396389802,89.93193477642687,100.71242181655573,96.06534575604623,87.54972002222434,96.20732295460132
2069.82,94.96506672445561,89.6675100688231,101.51551838385056,97.11627070212121,87.38608446904365,96.8006030553602
2143.07,95.35882243036485,88.57493136319154,101.25586719173417,96.81482252702412,87.88489990968206,96.61344565201713
2219.24,94.30610857622801,87.38147004480285,100.25807904339213,96.31747523486969,87.90382637677136,95.74145165840373
2296.88,94.20157141871012,85.01234618394264,100.76732406097659,96.46730792989817,88.41686313849317,96.02249613682741
2378.91,93.36136480471265,89.24568223349343,101.33241841527624,97.1567527846804,87.63450057406612,96.50807554784085
2462.4,94.43632929838037,87.98064257072572,100.56493992962031,96.86573598147163,87.92682572901212,96.07979088534742
2548.83,93.84411293678585,88.10712901390775,100.02492077346272,96.40977406025337,87.24386107390917,95.57091067141978
2639.65,93.01730856837085,88.24570651919092,100.42078755382893,96.63761214032893,87.43812744989722,95.76418091466115
2731.93,92.86726905031068,89.78921601244632,100.6214195831428,96.6917737685311,87.46874223074389,95.94457545669114
2828.61,92.97012796763318,92.12140716577565,100.44557606077939,96.72434854254551,86.89573110186633,95.99551459016945
2928.22,92.82715042149893,94.16555924960318,100.58491543961844,96.9473650496248,86.61219378301237,96.31007188857993
3030.76,93.31970096313255,94.85278821725092,99.8726214300488,96.2285047547422,86.08921729026008,95.9146620156921
3137.7,93.51283621535075,95.85954951966252,99.31011403012684,95.63347910473198,85.19115605562357,95.71016483518652
3249.02,93.3818927774957,95.59229143901482,97.91275485605652,94.94089149849326,84.76434651331863,94.88723901225028
3363.28,93.71423079282488,94.93170677410836,97.37364672968823,94.65374639721162,84.67126456582946,94.51483860178028
3481.93,94.05766496633376,94.29172649229945,97.6310881126346,94.6219668771532,84.47492369589365,94.53516604275515
3604.98,93.76935341586034,94.59073627713363,98.46234946070444,95.2106521408034,84.97977571743263,95.02765721736557
3732.42,93.74141478872892,95.21500548083125,98.6062163196603,95.40352934501198,85.13791641270114,95.24806659060525
3864.26,94.5008387333623,95.55394546725537,99.2610308315869,95.74750676227201,85.56825789458358,95.78946417352809
4000.49,94.53484087164225,96.21945345157113,99.48544383037981,95.62751878727147,85.21301240608997,95.99821191877777
4141.11,95.17702849860788,96.17753565026003,99.9023795261733,96.37939290770723,85.07302716076103,96.41173414995004
4287.6,95.47846401538712,96.01552850522206,100.33264066312672,96.66190900483498,85.58542101615667,96.68764356737222
4438.48,95.75351227796232,95.75904777325736,100.83672012749355,96.51725239637226,85.51986632081426,96.90079266969175
4595.21,95.80079745898067,95.78987506324523,99.56120019493822,96.25592938239676,85.22045993230137,96.27161902673606
4756.35,96.80341051127252,96.11596573440693,99.29942711754005,96.1986229008981,84.76585263064237,96.40603213311726
4924.8,97.84744665588252,96.20025163747071,98.80598736347137,95.25606707760596,84.4774373395775,96.33300316275684
5097.66,97.37400303876261,96.3143910689077,98.05960700566638,94.84873438134721,83.67165144991208,95.89419272091702
5277.83,97.77794747378292,96.26082410324724,97.88949792293306,94.46839746543174,83.17878329422503,95.88372175724348
5463.87,98.26573240572915,96.21938680535425,97.47293915863413,93.87255429521223,82.8474914771763,95.8241355286091
5657.23,96.89401847246127,95.98768596725697,97.34706177169,93.61379912978245,81.3995713330664,95.24418426731881
5856.45,95.81799307092248,95.75000105159074,97.51037379477822,93.17315872539183,81.48832801557649,94.89401905254627
6062.99,96.87848655546104,95.15575899951193,97.87041705358631,93.42447010084575,81.61822709086894,95.21679408933466
6276.86,97.3431772014082,94.81632430839653,97.7959207387693,93.48706394628141,81.18981384719892,95.27341607871183
6498.05,96.94871274066682,94.39174529224351,98.12128642312597,93.57452751646827,81.43080491347688,95.21315681332983
6726.56,97.06905660286137,93.98243911865151,98.15097477871353,93.3874018269456,80.68696021086626,95.16542938747932
6963.87,97.27908418085012,93.63475728620183,98.04182858589422,93.18855320601446,80.56956627122412,95.11140791219515
7209.96,97.16741213073959,93.26623011731664,97.99221680586395,92.69211299711216,80.10871959407808,94.93869534898548
7464.84,97.19113674774832,93.12546043285317,97.78877532463974,92.1438003842489,79.38656112424792,94.77880226965186
7727.05,97.07854851322301,92.95317687625592,97.85252146237897,91.88171376054635,79.01524907313006,94.71237134593741
7999.51,96.9779388706504,93.0327397683613,98.190068383539,92.29671690101415,79.19514835986983,94.87667835663376
8282.23,96.65018069505291,92.61341447014604,98.77435313317073,92.60306851112941,79.55970412396181,95.02475990356226
8573.73,96.77300218005144,91.85569782614147,98.98706667798504,92.79942544397026,79.53986534654736,95.10667099641105
8876.95,96.45724777383154,91.39053965758333,98.77365101081301,92.34422129435927,79.21116588133242,94.81137700850843
9188.96,96.1481395447387,90.97173090031964,98.50372096707171,92.06606589194418,78.36601512100988,94.5127433360248
