Freq "Ceiling Bounce"
20.5078 60.05711242238327
21.9727 59.372343453948886
23.4375 62.836476946178564
24.9023 64.28558368448232
26.3672 66.87403215410875
27.832 68.40900067407766
29.2969 70.62126384331414
30.7617 72.15543111072195
32.2266 74.22095177346795
33.6914 76.33851943629507
35.1563 77.95628557902458
36.6211 79.55348701527465
38.0859 81.02649012966776
39.5508 82.6514273566623
41.0156 84.0389995326306
42.4805 85.37656406908026
43.9453 86.37581034136863
45.4102 87.54761004941548
46.875 88.62632661890369
48.3398 89.50156668940652
51.2695 91.21828659754748
52.7344 91.99231246025137
54.1992 92.67384189478156
55.6641 93.29175655328903
58.5938 94.48531423248876
60.0586 94.97508818311556
62.9883 95.92702603846497
64.4531 96.36203391424492
67.3828 97.15765979633498
68.8477 97.5277703317724
71.7773 98.22595745619704
74.707 98.84918455165696
77.6367 99.33683176377372
79.1016 99.5788160484967
82.0313 100.126152063534
84.9609 100.59171657953598
87.8906 100.82507859454893
90.8203 100.6558131578809
95.2148 101.78133489403378
98.1445 101.63302793162528
101.074 101.7506831130354
105.469 101.84534670996042
108.398 101.9003386533955
112.793 102.11233427998759
117.188 101.94367006839653
120.117 102.15235184727766
124.512 101.89609410235519
128.906 101.44877115498865
133.301 101.27633949672769
139.16 100.9980119684858
143.555 100.75177906671183
147.949 100.49983061212842
153.809 100.30507210468656
159.668 100.0977788651171
165.527 99.91839302875533
171.387 99.58395785877626
177.246 99.36385555976848
183.105 98.94280372447525
188.965 98.76502797535414
196.289 98.74881708128255
203.613 98.42752746969582
210.938 98.25804621257183
218.262 98.14435853662104
225.586 98.01067709261261
232.91 97.91201552570935
241.699 97.72565484547498
250.488 97.46961197551691
259.277 97.45979058258882
268.066 96.68396398796281
276.855 96.8293130157163
287.109 97.20939994589547
297.363 97.20749190111007
307.617 97.16471997202979
319.336 96.95273633962408
329.59 97.02601298354833
341.309 96.6459737904885
353.027 96.32627734545257
366.211 96.81985523370469
379.395 97.6078704580272
392.578 97.09872123753689
405.762 96.77378779826512
420.41 97.27545052412913
435.059 97.34876286034672
451.172 97.47330799582156
465.82 97.42469969133255
483.398 97.41521836063797
499.512 97.46407605140946
517.09 97.62231422443043
536.133 96.68561332215124
555.176 96.63897645563054
574.219 97.08683646968018
594.727 96.6902526460515
615.234 96.48630315916664
637.207 96.2794436696483
659.18 96.67969530383574
682.617 96.32904216285212
707.52 96.79344956303599
732.422 98.53654486327385
757.324 99.27359009120794
785.156 98.41679975977539
811.523 97.25682178504569
840.82 96.70149363941782
870.117 97.88758223858433
900.879 98.84248668276624
933.105 98.08920414525502
965.332 97.50112717055313
1000.49 96.05967870397578
1035.64 95.53503029679446
1072.27 96.12543037458461
1108.89 96.53229701609887
1148.44 96.0764973969384
1189.45 96.24054602834566
1230.47 96.92979526013414
1274.41 97.70949465173923
1319.82 95.75223668319752
1366.7 96.24758002972249
1413.57 96.28098872658332
1463.38 95.41535778303499
1516.11 94.46633677645126
1568.85 94.51960326578744
1624.51 92.78801492186315
1681.64 91.83188583599181
1741.7 91.19482198447143
1803.22 90.68633090769296
1866.21 90.3152108656209
1932.13 90.51630262011476
1999.51 89.93193477642687
2069.82 89.6675100688231
2143.07 88.57493136319154
2219.24 87.38147004480287
2296.88 85.01234618394265
2378.91 89.24568223349341
2462.4 87.98064257072572
2548.83 88.10712901390777
2639.65 88.24570651919093
2731.93 89.78921601244632
2828.61 92.12140716577565
2928.22 94.16555924960319
3030.76 94.8527882172509
3137.7 95.85954951966251
3249.02 95.59229143901483
3363.28 94.93170677410836
3481.93 94.29172649229945
3604.98 94.59073627713364
3732.42 95.21500548083127
3864.26 95.55394546725537
4000.49 96.21945345157113
4141.11 96.17753565026003
4287.6 96.01552850522206
4438.48 95.75904777325738
4595.21 95.78987506324525
4756.35 96.11596573440693
4924.8 96.20025163747071
5097.66 96.31439106890771
5277.83 96.26082410324724
5463.87 96.21938680535426
5657.23 95.98768596725697
5856.45 95.75000105159076
6062.99 95.15575899951193
6276.86 94.81632430839655
6498.05 94.39174529224351
6726.56 93.98243911865151
6963.87 93.63475728620183
7209.96 93.26623011731662
7464.84 93.12546043285319
7727.05 92.95317687625591
7999.51 93.0327397683613
8282.23 92.61341447014603
8573.73 91.85569782614148
8876.95 91.39053965758333
9188.96 90.97173090031964
9514.16 90.89683967831006
9849.61 90.30753186839497
10196.8 89.45496896758179
10555.7 88.80157884636843
10927.7 88.23941908910552
11313.0 87.96754595457911
11712.9 87.73725510185041
12126.0 87.37238704179744
12553.7 87.92450736995183
12996.1 88.44851930514061
13454.6 88.47973022942308
13929.2 88.68460587860986
14419.9 89.29302298513345
14928.2 89.86322001340007
15455.6 89.77756920326513
16000.5 89.15249048829855
16564.5 87.91598314987836
17148.9 86.54504984932478
17752.4 84.78245816249556
18379.4 82.72792665014957
19026.9 80.87432298634695
19697.8 78.77434034151038
19999.5 77.48896956025028
