Freq "Front Wall Bounce"
20.5078 62.34120691310959
21.9727 61.83923467336244
23.4375 62.681559694047095
24.9023 65.47392599769951
26.3672 66.73328105560383
27.832 68.36075492746438
29.2969 70.43219345499064
30.7617 71.79739013313853
32.2266 73.83966537337632
33.6914 75.77000239487917
35.1563 77.3512995736357
36.6211 79.06018527718827
38.0859 80.43333248813104
39.5508 81.94733093358822
41.0156 83.44488924485074
42.4805 84.80920222789622
43.9453 85.7659050376756
45.4102 86.94862721328887
46.875 88.00854654990447
48.3398 88.8994150684783
51.2695 90.57032876427996
52.7344 91.3401416166203
54.1992 92.0183443423486
55.6641 92.63098929852993
58.5938 93.82495728081044
60.0586 94.31470698704555
62.9883 95.25632084899405
64.4531 95.68754045823887
67.3828 96.47846571332461
68.8477 96.85142902634423
71.7773 97.54594317720205
74.707 98.17807316634591
77.6367 98.67333671821446
79.1016 98.91203716125541
82.0313 99.47080542188057
84.9609 99.96997997125273
87.8906 100.2121892618878
90.8203 99.94326070900823
95.2148 101.18295992548857
98.1445 101.03874929310957
101.074 101.14962757635053
105.469 101.25058712496768
108.398 101.3300225659827
112.793 101.55676246421665
117.188 101.41053269225993
120.117 101.58850919569919
124.512 101.38126572018653
128.906 100.97483113292289
133.301 100.72498443715689
139.16 100.47108079981108
143.555 100.28687583558933
147.949 100.06923074850042
153.809 99.96437282764451
159.668 99.75752726436183
165.527 99.51979540972066
171.387 99.18003231426104
177.246 98.98343020078424
183.105 98.6387945158686
188.965 98.49663446401887
196.289 98.45125943897457
203.613 98.1909245958463
210.938 98.05968926527406
218.262 97.94027049302022
225.586 97.77118730942588
232.91 97.68740775780947
241.699 97.51180301180592
250.488 97.39224473606014
259.277 97.18149074812776
268.066 96.82040606580252
276.855 97.1288939231904
287.109 97.4750697774824
297.363 97.4086488347463
307.617 97.47400830680711
319.336 97.22401949994254
329.59 97.4308600049118
341.309 97.08744976616441
353.027 97.35700027192424
366.211 98.03001189183301
379.395 98.3374304332567
392.578 98.02180816686432
405.762 97.8657585010234
420.41 98.34234807170542
435.059 98.10147274273893
451.172 98.56378803589443
465.82 98.33411731716409
483.398 98.32792499717581
499.512 98.08087711050575
517.09 98.061861627738
536.133 97.52318326303443
555.176 98.33338494583963
574.219 98.95745585544375
594.727 98.47461181343378
615.234 99.48508237953163
637.207 99.85636903121929
659.18 100.08403253499509
682.617 100.06140295615282
707.52 100.60003168681716
732.422 100.82249038300584
757.324 100.3821652521786
785.156 99.3253157466775
811.523 98.37584274490032
840.82 99.80655826049535
870.117 99.86537142666627
900.879 100.69831893256625
933.105 100.08500665987953
965.332 99.88387804580475
1000.49 100.24582612039552
1035.64 101.19546306451282
1072.27 100.69946472159188
1108.89 99.74974472934558
1148.44 98.8491947805811
1189.45 98.67472914516402
1230.47 99.59070166319258
1274.41 99.90631381623034
1319.82 99.53505684892507
1366.7 99.29403934150412
1413.57 99.27053985685355
1463.38 99.40642006612954
1516.11 99.56852386189735
1568.85 99.9025892280804
1624.51 99.62534890034787
1681.64 98.72546797039573
1741.7 99.07504525899417
1803.22 99.83818659411091
1866.21 100.13430570460585
1932.13 99.66565725933759
1999.51 100.16934605897998
2069.82 100.97244262627481
2143.07 100.71279143415842
2219.24 99.71500328581638
2296.88 100.22424830340084
2378.91 100.78934265770049
2462.4 100.02186417204456
2548.83 99.48184501588698
2639.65 99.87771179625318
2731.93 100.07834382556705
2828.61 99.90250030320364
2928.22 100.04183968204269
3030.76 99.32954567247305
3137.7 98.76703827255109
3249.02 97.36967909848077
3363.28 96.83057097211248
3481.93 97.08801235505885
3604.98 97.9192737031287
3732.42 98.06314056208456
3864.26 98.71795507401114
4000.49 98.94236807280406
4141.11 99.35930376859756
4287.6 99.78956490555098
4438.48 100.2936443699178
4595.21 99.01812443736247
4756.35 98.7563513599643
4924.8 98.26291160589562
5097.66 97.51653124809063
5277.83 97.34642216535731
5463.87 96.92986340105838
5657.23 96.80398601411424
5856.45 96.96729803720247
6062.99 97.32734129601056
6276.86 97.25284498119355
6498.05 97.57821066555022
6726.56 97.60789902113778
6963.87 97.49875282831847
7209.96 97.4491410482882
7464.84 97.245699567064
7727.05 97.30944570480322
7999.51 97.64699262596325
8282.23 98.23127737559498
8573.73 98.44399092040929
8876.95 98.23057525323726
9188.96 97.96064520949596
9514.16 97.89217731059273
9849.61 98.0085764807318
10196.8 98.30465127316633
10555.7 98.4953945078693
10927.7 98.48119033919842
11313.0 98.2898284336643
11712.9 98.05724192565081
12126.0 98.0351151984339
12553.7 98.09173318252682
12996.1 97.8443134304971
13454.6 97.5143377888186
13929.2 97.1764151862673
14419.9 96.73991997085157
14928.2 96.53014445812421
15455.6 96.57634928983849
16000.5 96.63763280862267
16564.5 96.75631019942605
17148.9 97.12875756841912
17752.4 97.42329595257232
18379.4 97.08608144067958
19026.9 96.25862188504591
19697.8 95.635627315838
19999.5 95.34517068360363
