Freq "Rear Wall Bounce"
20.5078 64.08151682475712
21.9727 66.33978456684456
23.4375 69.43703713736038
24.9023 70.3941903315601
26.3672 72.76231338688946
27.832 74.27415533624152
29.2969 75.9259646553905
30.7617 77.37877334532484
32.2266 78.96850225540423
33.6914 80.64625961189235
35.1563 82.0226585202897
36.6211 83.21880536390509
38.0859 84.46971825987588
39.5508 85.82491823227973
41.0156 86.90265567421149
42.4805 87.98037649558194
43.9453 88.89438330352772
45.4102 89.86089365716406
46.875 90.77536844348359
48.3398 91.55299345728022
51.2695 93.04456648898964
52.7344 93.69819111333724
54.1992 94.2809753514059
55.6641 94.82885596656385
58.5938 95.8485761413618
60.0586 96.27148187013509
62.9883 97.10065919755618
64.4531 97.47590762617122
67.3828 98.1584806453606
68.8477 98.48132682360385
71.7773 99.08106852259282
74.707 99.64269237728152
77.6367 100.0647572348688
79.1016 100.26122403394794
82.0313 100.65727606156732
84.9609 100.92781828347835
87.8906 101.31594415433433
90.8203 101.68957124616018
95.2148 101.7538314818951
98.1445 101.94108051590727
101.074 102.03126186121638
105.469 102.10060053468268
108.398 102.1592531879398
112.793 102.22647853680503
117.188 102.09701696148755
120.117 102.11672648820225
124.512 101.72572568643768
128.906 101.25722257562128
133.301 101.34642692771291
139.16 101.16000862073034
143.555 100.72809798082992
147.949 100.44957643429576
153.809 100.01127081605793
159.668 99.76817728282104
165.527 99.60315143246989
171.387 99.3669328014898
177.246 99.03937304180037
183.105 98.62792423588881
188.965 98.35047976248894
196.289 98.18370616536613
203.613 97.80064096936738
210.938 97.54005149242536
218.262 97.4376791419689
225.586 97.29432813459108
232.91 96.93029578766746
241.699 96.76487261741751
250.488 96.52163193099126
259.277 96.82960148379655
268.066 95.95479367398336
276.855 95.74737569527379
287.109 95.82804657235987
297.363 95.61685952019592
307.617 95.80140176739219
319.336 95.53631248776229
329.59 95.30750049611139
341.309 95.42220997906826
353.027 95.12213304145615
366.211 95.04771866342155
379.395 95.70135714083186
392.578 95.34757374464498
405.762 95.06710565116256
420.41 94.60967966877573
435.059 94.7893902553895
451.172 94.40817256197185
465.82 94.34333191244399
483.398 94.08665320072299
499.512 94.07675479082498
517.09 94.14577725489467
536.133 93.82003416008871
555.176 93.39136759335368
574.219 94.06969919709317
594.727 94.3833583280233
615.234 93.98945768790128
637.207 95.20819388487124
659.18 95.70911664582162
682.617 95.79841094656491
707.52 95.53863278493708
732.422 95.0993299513803
757.324 93.27205906301852
785.156 92.91898164190137
811.523 94.86750705210886
840.82 94.7886848278654
870.117 94.85195694303981
900.879 95.35616621232889
933.105 94.96277537273876
965.332 94.80327890772578
1000.49 95.11240179171263
1035.64 94.2977745476291
1072.27 92.31641547204053
1108.89 91.0188239581078
1148.44 90.61403896263475
1189.45 89.83168752690271
1230.47 90.12062570622447
1274.41 90.03536884650073
1319.82 89.23218347530707
1366.7 89.20216549959265
1413.57 88.30115932860436
1463.38 88.6468537781896
1516.11 88.47218509135386
1568.85 87.99704032240122
1624.51 87.9594217703832
1681.64 87.48265356918144
1741.7 87.28964435685346
1803.22 87.93231686616528
1866.21 88.04605773504767
1932.13 87.71625544899783
1999.51 87.54972002222432
2069.82 87.38608446904367
2143.07 87.88489990968206
2219.24 87.90382637677136
2296.88 88.41686313849318
2378.91 87.63450057406612
2462.4 87.92682572901212
2548.83 87.24386107390917
2639.65 87.43812744989722
2731.93 87.46874223074387
2828.61 86.89573110186633
2928.22 86.61219378301237
3030.76 86.08921729026008
3137.7 85.19115605562355
3249.02 84.76434651331863
3363.28 84.67126456582946
3481.93 84.47492369589365
3604.98 84.97977571743264
3732.42 85.13791641270114
3864.26 85.56825789458358
4000.49 85.21301240608999
4141.11 85.07302716076103
4287.6 85.58542101615669
4438.48 85.51986632081424
4595.21 85.22045993230138
4756.35 84.76585263064239
4924.8 84.4774373395775
5097.66 83.67165144991206
5277.83 83.17878329422503
5463.87 82.8474914771763
5657.23 81.39957133306639
5856.45 81.48832801557647
6062.99 81.61822709086893
6276.86 81.18981384719893
6498.05 81.43080491347689
6726.56 80.68696021086625
6963.87 80.5695662712241
7209.96 80.10871959407808
7464.84 79.38656112424792
7727.05 79.01524907313005
7999.51 79.19514835986983
8282.23 79.55970412396181
8573.73 79.53986534654736
8876.95 79.21116588133243
9188.96 78.36601512100988
9514.16 77.92933505804176
9849.61 77.49797781026915
10196.8 76.98500594291407
10555.7 76.45116784924006
10927.7 76.01556443023854
11313.0 75.2309490171068
11712.9 74.48730389516236
12126.0 74.03068300493611
12553.7 74.31185145939652
12996.1 73.72486982429972
13454.6 72.71587565012173
13929.2 71.66621407298358
14419.9 70.31248757296338
14928.2 67.87368152721722
15455.6 67.08427141334211
16000.5 66.32620639738563
16564.5 66.11342457167545
17148.9 66.64891695932515
17752.4 66.88104553470349
18379.4 66.99657464373762
19026.9 66.48654483903361
19697.8 66.05494379086905
19999.5 66.85251003449123
