Freq,On Axis,Listening Window,Sound Power,Early Reflections,Early Reflections DI,Sound Power DI,DI offset
20.5078,48.67999999999999,48.36451006418035,49.71781176531901,48.83704166843758,39.52746839574277,38.64669829886134,40
21.9727,52.0236,51.70514946069544,51.07563310256258,51.111975622745106,40.59317383795033,40.62951635813286,40
23.4375,51.89899999999999,51.582644540127134,52.86957214296494,52.008494778665366,39.57414976146177,38.71307239716219,40
24.9023,54.056500000000014,53.80997893918767,55.26428302442757,54.38508704524229,39.424891893945386,38.5456959147601,40
26.3672,56.232600000000005,56.002205997913634,56.72205944759877,56.17736765108258,39.82483834683106,39.28014655031487,40
27.832,57.89790000000001,57.69418596507272,58.32203961349599,57.83895674075036,39.85522922432236,39.37214635157673,40
29.2969,59.280199999999994,59.113553599674404,60.0989614721404,59.47753803457941,39.63601556509499,39.014592127534,40
30.7617,59.7565,59.593400401616904,60.96351011931522,60.17964537608752,39.41375502552938,38.62989028230169,40
32.2266,61.65650000000001,61.55089253674073,62.595180639739354,61.991197119212714,39.55969541752802,38.95571189700138,40
33.6914,63.32260000000001,63.2310897809552,63.982795334124674,63.524051936068204,39.707037844887,39.24829444683053,40
35.1562,64.8969,64.79434666550253,65.33183191815526,64.96678108977817,39.827565575724364,39.46251474734727,40
36.6211,65.8754,65.79230944847075,66.59072385881777,66.11479137297063,39.67751807550012,39.20158558965298,40
38.0859,66.83969999999998,66.77970736819508,67.8159580230215,67.24575796058853,39.53394940760654,38.96374934517358,40
39.5508,67.9632,67.93196927331698,68.98766061370891,68.42878879755587,39.50318047576111,38.94430865960807,40
41.0156,69.5759,69.53804298825891,70.07126599597963,69.75157832562807,39.786464662630834,39.46677699227928,40
42.4805,70.6091,70.56878772502249,71.06015634847496,70.76347176250897,39.80531596251352,39.50863137654753,40
43.9453,71.45450000000001,71.42385872131341,71.99344918988145,71.66462961801804,39.75922910329537,39.43040953143196,40
45.4102,72.3795,72.35691375189097,72.91400130466475,72.5968426961667,39.76007105572427,39.44291244722622,40
46.875,73.3307,73.31112719833287,73.78995032591452,73.51310112165446,39.79802607667841,39.52117687241835,40
48.3398,74.1711,74.15532774628046,74.58609104971201,74.33575990170534,39.81956784457512,39.56923669656845,40
51.2695,75.7145,75.70070884567183,76.02166898191912,75.82784105399732,39.87286779167451,39.679039863752706,40
52.7344,76.387,76.37970189410632,76.73830442159138,76.52920508382208,39.85049681028424,39.64139747251494,40
54.1992,77.08239999999999,77.07647776333228,77.37444844119645,77.19718071425902,39.87929704907326,39.70202932213583,40
55.6641,77.6041,77.59833799599484,77.86165904473638,77.70259219736066,39.89574579863418,39.736678951258455,40
58.5938,78.3826,78.3831486667375,78.66984931534542,78.50350765202649,39.87964101471101,39.71329935139208,40
60.0586,78.8104,78.81272666845156,79.08162535944604,78.92501992651118,39.88770674194038,39.731101309005524,40
62.9883,79.5485,79.5547473670215,79.80305005592085,79.66001041995276,39.89473694706875,39.751697311100656,40
64.4531,79.8681,79.87612685901539,80.12364223193941,79.98224254361483,39.893884315400555,39.75248462707597,40
67.3828,80.3745,80.38752510998837,80.6471425348741,80.50321423896072,39.88431087102765,39.74038257511427,40
68.8477,80.63719999999999,80.65024602925148,80.87760419782208,80.7502008207026,39.900045208548875,39.7726418314294,40
71.7773,81.2238,81.23718044241528,81.42579848223228,81.3187396726435,39.91844076977178,39.811381960183,40
74.707,81.6998,81.71352378434577,81.87717841513255,81.78354141577644,39.92998236856933,39.83634536921322,40
77.6367,82.01119999999999,82.02649597861935,82.18233196933888,82.09344324251045,39.933052736108905,39.844164009280476,40
79.1016,82.15309999999998,82.16891034328178,82.31971215232231,82.23354377566521,39.93536656761657,39.84919819095947,40
82.0312,82.5337,82.55032428433738,82.69858416504637,82.61398769597075,39.93633658836663,39.85174011929101,40
84.9609,82.7897,82.80880482348445,82.9782397870604,82.88452796520454,39.92427685827991,39.83056503642405,40
87.8906,83.0537,83.07229672712394,83.20929642244205,83.13275209160813,39.939544635515816,39.86300030468189,40
90.8203,83.4203,83.43571557600764,83.50476828343588,83.46090590834963,39.97480966765801,39.93094729257176,40
95.2148,83.7885,83.80314262960957,83.84270821007414,83.8125164960771,39.99062613353247,39.96043441953543,40
98.1445,83.9607,83.97550861323766,84.01410080240518,83.98466224628585,39.990846366951814,39.96140781083248,40
101.074,84.1152,84.13076065567664,84.17640512169498,84.14402961842563,39.986731037251005,39.954355533981655,40
105.469,84.3441,84.36117482426711,84.39966475144509,84.37293501052912,39.98823981373799,39.96151007282202,40
108.398,84.5375,84.55156277350929,84.52714195520358,84.5325765126001,40.01898626090919,40.024420818305714,40
112.793,84.8108,84.82313322805197,84.76197417354173,84.78374595613765,40.03938727191432,40.06115905451024,40
117.188,84.9105,84.92289656923197,84.86192018709275,84.88424600135643,40.038650567875536,40.060976382139216,40
120.117,85.0006,85.01113857264257,84.93883451006687,84.96615096141194,40.044987611230624,40.0723040625757,40
124.512,85.1794,85.18945273641931,85.12093979042524,85.14418490087091,40.0452678355484,40.06851294599407,40
128.906,85.2034,85.21313350982653,85.14780605358588,85.1683148887944,40.044818621032135,40.06532745624065,40
133.301,85.3055,85.31304965768774,85.22413731047884,85.25423047645457,40.058819181233176,40.088912347208904,40
139.16,85.3647,85.37101868299365,85.25829690311691,85.29863803252417,40.07238065046948,40.112721779876736,40
143.555,85.39390000000002,85.39814439757369,85.26471387172465,85.31301918792208,40.08512520965161,40.133430525849036,40
147.949,85.4716,85.47160556278315,85.27233637088999,85.35261284421239,40.118992718570766,40.199269191893165,40
153.809,85.4165,85.41106541612128,85.1699193193037,85.26935350110331,40.141711915017964,40.24114609681757,40
159.668,85.4791,85.47353240457751,85.23716309403257,85.33214729725465,40.14138510732286,40.236369310544944,40
165.527,85.56180000000002,85.55415992705576,85.28708025944754,85.40108800849949,40.15307191855628,40.26707966760823,40
171.387,85.5867,85.56929106035155,85.16176583214623,85.3426952575734,40.22659580277815,40.407525228205316,40
177.246,85.41109999999999,85.40033870557677,85.0679354941844,85.20671762717474,40.19362107840203,40.332403211392375,40
183.105,85.30300000000001,85.28374241079945,84.98444615914435,85.09778393012483,40.185958480674614,40.29929625165509,40
188.965,85.3347,85.30328126344166,84.79508800763226,85.01415804260469,40.28912322083697,40.5081932558094,40
196.289,85.3461,85.31505331651681,84.75272155684338,85.0093645163328,40.305688800184015,40.56233175967343,40
203.613,85.2104,85.17459578123102,84.60348514870377,84.85764617486798,40.31694960636304,40.57111063252725,40
210.938,85.1842,85.13738611499814,84.41560870924006,84.74556810582438,40.39181800917376,40.721777405758075,40
218.262,84.9454,84.90349504199658,84.26148922701454,84.55070542625157,40.35278961574501,40.64200581498204,40
225.586,84.8756,84.82706877724547,84.13557849499773,84.44128702669154,40.38578175055393,40.69149028224774,40
232.91,84.9124,84.85606379773232,84.07150007892488,84.42488131008011,40.43118248765221,40.78456371880743,40
241.699,84.8174,84.77303956444239,83.94814489844634,84.33309396327805,40.43994560116434,40.82489466599604,40
250.488,85.0974,85.00926285750757,83.75489942396788,84.35302253093822,40.656240326569346,41.25436343353968,40
259.277,84.7632,84.68192387819487,83.59864394766156,84.10964390569261,40.57227997250226,41.08327993053331,40
268.066,84.3808,84.29978338282844,83.23093150958827,83.66211826368192,40.63766511914652,41.06885187324016,40
276.855,83.9986,83.95934995877198,83.08942284103856,83.4476948029004,40.51165515587158,40.869927117733425,40
287.109,83.20910000000002,83.11513904931543,83.13917099638276,82.96873031541395,40.14640873390148,39.97596805293267,40
297.363,84.9318,84.74229095869353,83.1099363023621,83.82960070324624,40.91269025544729,41.63235465633143,40
307.617,85.26869999999998,85.09706949506524,83.14886879226104,84.0868234416411,41.01024605342414,41.9482007028042,40
319.336,84.6744,84.55884561537113,82.73650119879726,83.65758007184796,40.90126554352317,41.82234441657387,40
329.59,84.3739,84.25162333746633,82.4464124285314,83.33900831571647,40.91261502174986,41.805210908934924,40
341.309,84.7065,84.53172716031688,82.4355426936498,83.46614819439351,41.065578965923365,42.09618446666708,40
353.027,84.6588,84.51237984936144,82.30416040699772,83.42101583072326,41.091364018638174,42.20821944236371,40
366.211,84.8453,84.70009174161845,82.23304490919377,83.47309401078327,41.22699773083518,42.467046832424685,40
379.395,85.087,84.93246597361642,82.49137135219954,83.78560860992694,41.14685736368948,42.44109462141688,40
392.578,84.42209999999999,84.30889061316684,82.0046187188649,83.21709785999403,41.09179275317281,42.304271894301934,40
405.762,84.5886,84.42970591886642,81.94409571971964,83.21052768034347,41.21917823852294,42.48561019914678,40
420.41,84.8359,84.67190193907224,81.9558984774556,83.3954840428991,41.27641789617314,42.71600346161664,40
435.059,84.48969999999998,84.35155435786669,81.81393379667747,83.1226666701967,41.228887687669996,42.537620561189215,40
451.172,85.1421,84.95104738932156,81.74301830659644,83.47522419507357,41.475823194247994,43.20802908272512,40
465.82,84.7632,84.67149794817274,81.79904795179674,83.34779382597887,41.323704122193874,42.872449996376005,40
483.398,84.872,84.70036651713414,81.81131867696958,83.34602525525641,41.354341261877735,42.889047840164565,40
499.512,84.9165,84.76280747942879,81.69901763617297,83.3542181089691,41.40858937045968,43.06378984325582,40
517.09,84.5827,84.47786696048517,81.72925251421113,83.21136131646217,41.266505644023,42.74861444627405,40
536.133,84.5439,84.32957371567107,81.20020331190825,82.75040052138822,41.57917319428286,43.12937040376282,40
555.176,85.1694,85.03527463353954,81.47312863700117,83.33580032048808,41.69947431305147,43.562145996538376,40
574.219,84.7965,84.6286739026725,81.32546991043762,83.09267255918509,41.53600134348741,43.303203992234884,40
594.727,84.4406,84.32511864651863,81.08817538600543,82.74994934803833,41.575169298480304,43.2369432605132,40
615.234,84.64890000000001,84.42003672427654,80.83951967335817,82.66189264334656,41.75814408092998,43.580517050918374,40
637.207,84.1827,83.97119948792674,80.70970614727408,82.49500953688786,41.476189951038876,43.26149334065266,40
659.18,84.4027,84.14724421005845,80.76439489301357,82.49797093204448,41.649273278013965,43.38284931704487,40
682.617,85.7571,85.44904748253755,81.66650972737138,83.53338992346774,41.915657559069814,43.782537755166175,40
707.52,85.438,85.1790866897405,81.59023736849628,83.47052048585202,41.70856620388848,43.588849321244226,40
732.422,85.2888,84.9763296316535,81.19588354201943,83.09708857039753,41.87924106125597,43.78044608963407,40
757.324,85.70969999999998,85.33196730606312,81.34060895229695,83.4176089148081,41.91435839125502,43.991358353766174,40
785.156,85.1915,84.8117578992855,80.85942032048077,82.9743746030774,41.8373832962081,43.95233757880473,40
811.523,85.735,85.27271371776807,80.88035336835826,83.15128481977573,42.121428897992345,44.39236034940981,40
840.82,86.30829999999999,85.86563835822416,81.013501773138,83.50831818705733,42.35732017116683,44.85213658508616,40
870.117,87.1268,86.63206137788252,81.44169207030082,83.93748590080365,42.69457547707887,45.190369307581705,40
900.879,88.1903,87.77374351685658,82.26764268633255,85.04734827619168,42.7263952406649,45.50610083052403,40
933.105,88.3159,87.88691682272024,82.39744508897356,85.10662747878048,42.78028934393976,45.48947173374668,40
965.332,88.1042,87.65694335070535,82.17610970190496,84.90678441209688,42.750158938608465,45.480833648800385,40
1000.49,87.8033,87.38082798970719,81.73085186521745,84.5368379534373,42.843990036269886,45.64997612448974,40
1035.64,87.3898,87.00714634336204,81.32835487986532,84.23276482828535,42.77438151507668,45.67879146349672,40
1072.27,86.6263,86.38491318645079,80.92360664086225,83.66242439859978,42.722488787851006,45.46130654558854,40
1108.89,86.53,86.1082458839535,80.742059223624,83.54789720335383,42.560348680599674,45.366186660329504,40
1148.44,86.342,85.91258521320462,80.51464694696355,83.27501182351814,42.63757338968648,45.39793826624107,40
1189.45,86.01980000000002,85.65285409035629,79.91063533486331,82.86922377541941,42.78363031493687,45.74221875549297,40
1230.47,86.5773,86.12716676166546,80.08787078574652,83.05113300040763,43.07603376125783,46.03929597591895,40
1274.41,86.7673,86.21432392032864,79.79716507006111,82.86569643862995,43.348627481698685,46.417158850267526,40
1319.82,86.7845,86.30641025838996,79.56186182782375,82.91742944473337,43.38898081365659,46.74454843056621,40
1366.7,86.83640000000001,86.1674606907268,79.17132879715473,82.6568088376392,43.510651853087595,46.99613189357207,40
1413.57,86.4794,85.86325845125343,78.79272461340534,82.16867939082377,43.69457906042966,47.07053383784809,40
1463.38,85.22020000000002,84.71355281813327,78.09301052547922,81.34691207923373,43.366640738899534,46.62054229265405,40
1516.11,84.6031,84.01898608086262,77.58374166545421,80.86489188930906,43.154094191553554,46.435244415408405,40
1568.85,84.81410000000001,84.21739744487182,77.47140187381679,80.73267902646572,43.4847184184061,46.74599557105503,40
1624.51,85.2871,84.50099399926818,77.36813078600592,80.73143876281206,43.769555236456114,47.132863213262254,40
1681.64,85.8853,85.14696587791116,77.76645594651013,80.91127873529118,44.23568714261998,47.38050993140102,40
1741.7,86.53420000000001,85.65476978377869,78.16455667650534,81.29467453356649,44.3600952502122,47.49021310727335,40
1803.22,85.9651,85.2787692197395,77.77232337902689,80.88873053059744,44.39003868914206,47.506445840712615,40
1866.21,85.38000000000001,84.67388437353573,77.28906564125033,80.49250487096003,44.181379502575695,47.384818732285396,40
1932.13,84.5544,83.95379557869616,76.72038910358445,79.99726867930443,43.95652689939173,47.23340647511171,40
1999.51,85.1143,84.32696013665766,76.77390907249323,80.07876986025836,44.2481902763993,47.553051064164436,40
2069.82,85.41869999999999,84.62596338216647,77.08021454267396,80.2540412304978,44.37192215166867,47.54574883949252,40
2143.07,85.3553,84.58482251458443,77.08217490355379,80.10827509624164,44.47654741834279,47.50264761103064,40
2219.24,84.2093,83.58433776872586,76.42386597987502,79.27477089181322,44.30956687691264,47.16047178885084,40
2296.88,83.6996,83.00531724070582,75.89948517863854,78.74009373918531,44.26522350152051,47.10583206206728,40
2378.91,84.2144,83.5698298436594,76.61154139203195,79.14352887235505,44.42630097130436,46.95828845162745,40
2462.4,85.46479999999998,84.72750695750194,77.44829034049305,80.09609044763508,44.63141650986687,47.2792166170089,40
2548.83,84.5163,84.13155280804607,77.20983912475943,79.7086316715558,44.42292113649026,46.92171368328664,40
2639.65,82.8194,82.6437247238512,76.60590379641695,78.59333050634497,44.05039421750622,46.03782092743424,40
2731.93,82.0836,82.01174595020647,76.35303877247168,78.03576779081975,43.97597815938673,45.6587071777348,40
2828.61,82.8328,82.69327694876243,76.92745197492926,78.59825835654583,44.095018592216604,45.765824973833176,40
2928.22,83.468,83.37191202968961,77.3228810886189,79.16462463873115,44.207287390958456,46.04903094107071,40
3030.76,83.5759,83.50179484533413,77.36268049734649,79.51171809963446,43.99007674569967,46.13911434798764,40
3137.7,83.3831,83.35708372288408,77.23463775676406,79.64276741956057,43.714316303323514,46.122445966120026,40
3249.02,82.81929999999998,82.93364743621176,77.09521461008477,79.30030864902199,43.63333878718977,45.83843282612699,40
3363.28,82.6704,83.00305514062183,77.11813080532593,79.21917761050214,43.78387753011968,45.88492433529589,40
3481.93,83.4063,83.56797489614887,77.66132704828074,79.87133282937806,43.696642066770806,45.90664784786813,40
3604.98,84.40850000000002,84.4379614253201,78.26089405722827,80.5274820147381,43.910479410582,46.177067368091826,40
3732.42,85.5631,85.38670822041693,78.65582280430614,81.20551427772119,44.18119394269574,46.730885416110794,40
3864.26,85.17379999999999,84.89839660590174,78.24926299066261,81.09272311871855,43.805673487183185,46.64913361523912,40
4000.49,85.5308,84.89922038945114,78.30266382366445,81.27888151520153,43.62033887424961,46.5965565657867,40
4141.11,85.651,85.21561917204414,78.57876548342972,81.69455854695875,43.5210606250854,46.63685368861442,40
4287.6,84.2128,84.65644525814515,78.7177467364161,81.63272302844491,43.02372222970024,45.93869852172905,40
4438.48,84.1835,84.90842515701455,79.04056232814584,81.8746950968557,43.033730060158845,45.86786282886871,40
4595.21,84.4361,84.9849304992991,79.16798830774354,81.90601102002996,43.07891947926913,45.816942191555555,40
4756.35,85.8797,85.60103351753304,79.76424960726311,82.62787925223883,42.97315426529421,45.83678391026993,40
4924.8,86.03699999999999,85.8218855324491,80.06508342800112,83.01178038686704,42.81010514558206,45.756802104447985,40
5097.66,86.882,85.89611974218333,79.67271551238568,83.06467094498453,42.8314487971988,46.22340422979765,40
5277.83,87.7614,86.24033626067968,79.84153363925056,83.17828031608464,43.062055944595045,46.39880262142913,40
5463.87,87.80409999999999,86.12774451894428,79.9773584993115,83.48628202247781,42.641462496466474,46.150386019632776,40
5657.23,87.79720000000002,86.25814298290771,80.01962899312097,83.82825069428861,42.4298922886191,46.23851398978674,40
5856.45,87.4906,85.78878113118292,79.84747136816765,83.752711209815,42.03606992136791,45.94130976301527,40
6062.99,87.165,85.73088045505946,79.86121541980916,83.60943144935754,42.12144900570192,45.86966503525031,40
6276.86,85.91950000000001,85.15578635009683,79.19117619370573,82.63527810246292,42.52050824763391,45.9646101563911,40
6498.05,86.3084,85.54036080184908,79.49609542372313,82.54615392889477,42.99420687295431,46.04426537812594,40
6726.56,85.88029999999999,85.83730710178371,79.62982292574445,82.82909661313289,43.00821048865082,46.20748417603926,40
6963.87,86.33720000000001,85.6479433586039,79.412769926777,82.92064559418291,42.72729776442098,46.235173431826894,40
7209.96,86.9149,85.65389097913923,79.6465305078675,83.05347065153929,42.60042032759995,46.00736047127174,40
7464.84,85.2318,85.2367055517273,79.47620719259623,83.14574114350614,42.090964408221154,45.76049835913106,40
7727.05,85.0028,85.38471558918526,79.61149535068809,83.45758120706695,41.92713438211831,45.773220238497174,40
7999.51,83.96480000000001,84.33634185165361,78.69809153609035,82.60286004273205,41.73348180892157,45.63825031556327,40
8282.23,85.113,84.16644719548022,77.92399259532904,81.52206843091761,42.6443787645626,46.24245460015118,40
8573.73,84.0458,83.97195032800674,77.76700538202756,81.13330134644694,42.8386489815598,46.20494494597918,40
8876.95,85.0215,84.7318784066057,77.91078160885625,81.612661056471,43.119217350134704,46.82109679774945,40
9188.96,84.9201,84.75052815415032,77.72667687641807,81.42977688473528,43.32075126941504,47.02385127773225,40
9514.16,86.87850000000002,86.2989699021225,78.3206692198459,82.37183790678178,43.927131995340716,47.9783006822766,40
9849.61,87.8123,87.16770235966304,78.49296412798955,82.81189004032133,44.35581231934171,48.67473823167349,40
10196.8,88.5817,87.75356210571637,78.60525345416897,83.07093764268822,44.68262446302815,49.148308651547396,40
10555.7,88.813,87.86837128627427,78.44098496177345,83.05762199097153,44.81074929530274,49.427386324500816,40
10927.7,89.1774,87.92485276151375,78.34959994900048,83.11378226540862,44.81107049610513,49.57525281251327,40
11313.0,89.3058,87.8332076147016,78.11926907887322,82.99397033204077,44.83923728266083,49.71393853582839,40
11712.9,89.1382,87.63912555822884,77.79641632836629,82.69940562066017,44.93971993756867,49.84270922986255,40
