Freq "On Axis"
20.5078 48.49524848484849
21.9727 51.83884848484847
23.4375 51.71424848484848
24.9023 53.87174848484848
26.3672 56.04784848484847
27.832 57.713148484848475
29.2969 59.09544848484849
30.7617 59.5717484848485
32.2266 61.471748484848476
33.6914 63.137848484848476
35.1562 64.71214848484848
36.6211 65.69064848484848
38.0859 66.65494848484848
39.5508 67.77844848484848
41.0156 69.39114848484849
42.4805 70.4243484848485
43.9453 71.26974848484848
45.4102 72.19474848484846
46.875 73.14594848484849
48.3398 73.98634848484848
51.2695 75.52974848484847
52.7344 76.20224848484848
54.1992 76.89764848484849
55.6641 77.4193484848485
58.5938 78.19784848484848
60.0586 78.62564848484847
62.9883 79.3637484848485
64.4531 79.68334848484848
67.3828 80.1897484848485
68.8477 80.45244848484849
71.7773 81.0390484848485
74.707 81.51504848484848
77.6367 81.82644848484848
79.1016 81.96834848484848
82.0312 82.34894848484848
84.9609 82.60494848484848
87.8906 82.86894848484849
90.8203 83.23554848484848
95.2148 83.60374848484848
98.1445 83.77594848484848
101.074 83.93044848484848
105.469 84.15934848484848
108.398 84.35274848484848
112.793 84.62604848484848
117.188 84.72574848484848
120.117 84.81584848484849
124.512 84.99464848484848
128.906 85.01864848484848
133.301 85.12074848484848
139.16 85.17994848484848
143.555 85.20914848484848
147.949 85.28684848484848
153.809 85.23174848484848
159.668 85.29434848484848
165.527 85.37704848484849
171.387 85.40194848484849
177.246 85.22634848484849
183.105 85.11824848484848
188.965 85.14994848484848
196.289 85.16134848484849
203.613 85.02564848484847
210.938 84.99944848484849
218.262 84.76064848484849
225.586 84.69084848484849
232.91 84.72764848484849
241.699 84.63264848484849
250.488 84.91264848484848
259.277 84.57844848484848
268.066 84.19604848484848
276.855 83.81384848484848
287.109 83.02434848484849
297.363 84.74704848484848
307.617 85.08394848484848
319.336 84.48964848484849
329.59 84.1891484848485
341.309 84.52174848484849
353.027 84.47404848484847
366.211 84.66054848484849
379.395 84.90224848484849
392.578 84.23734848484848
405.762 84.40384848484848
420.41 84.65114848484849
435.059 84.30494848484848
451.172 84.95734848484848
465.82 84.57844848484848
483.398 84.68724848484848
499.512 84.7317484848485
517.09 84.39794848484847
536.133 84.35914848484848
555.176 84.98464848484848
574.219 84.61174848484849
594.727 84.2558484848485
615.234 84.46414848484848
637.207 83.9979484848485
659.18 84.21794848484846
682.617 85.57234848484848
707.52 85.25324848484848
732.422 85.10404848484848
757.324 85.52494848484848
785.156 85.00674848484849
811.523 85.55024848484848
840.82 86.12354848484848
870.117 86.94204848484848
900.879 88.00554848484846
933.105 88.13114848484848
965.332 87.9194484848485
1000.49 87.61854848484849
1035.64 87.20504848484846
1072.27 86.4415484848485
1108.89 86.34524848484848
1148.44 86.1572484848485
1189.45 85.83504848484849
1230.47 86.39254848484848
1274.41 86.58254848484849
1319.82 86.59974848484846
1366.7 86.65164848484848
1413.57 86.29464848484848
1463.38 85.03544848484849
1516.11 84.4183484848485
1568.85 84.62934848484848
1624.51 85.10234848484848
1681.64 85.70054848484848
1741.7 86.34944848484848
1803.22 85.78034848484849
1866.21 85.19524848484848
1932.13 84.36964848484848
1999.51 84.92954848484848
2069.82 85.23394848484848
2143.07 85.17054848484848
2219.24 84.02454848484847
2296.88 83.51484848484849
2378.91 84.02964848484848
2462.4 85.28004848484848
2548.83 84.33154848484848
2639.65 82.63464848484848
2731.93 81.89884848484847
2828.61 82.64804848484849
2928.22 83.28324848484849
3030.76 83.39114848484849
3137.7 83.1983484848485
3249.02 82.63454848484848
3363.28 82.48564848484848
3481.93 83.22154848484848
3604.98 84.22374848484849
3732.42 85.37834848484849
3864.26 84.98904848484848
4000.49 85.34604848484848
4141.11 85.46624848484848
4287.6 84.02804848484848
4438.48 83.99874848484848
4595.21 84.25134848484849
4756.35 85.69494848484847
4924.8 85.85224848484849
5097.66 86.69724848484849
5277.83 87.57664848484846
5463.87 87.61934848484849
5657.23 87.61244848484849
5856.45 87.30584848484848
6062.99 86.98024848484849
6276.86 85.73474848484848
6498.05 86.12364848484849
6726.56 85.69554848484849
6963.87 86.15244848484848
7209.96 86.73014848484848
7464.84 85.04704848484849
7727.05 84.81804848484848
7999.51 83.78004848484848
8282.23 84.92824848484848
8573.73 83.86104848484848
8876.95 84.83674848484848
9188.96 84.7353484848485
9514.16 86.69374848484848
9849.61 87.62754848484848
10196.8 88.39694848484848
10555.7 88.62824848484848
10927.7 88.99264848484849
11313.0 89.12104848484849
11712.9 88.95344848484848
12126.0 88.77104848484848
12553.7 88.76114848484848
12996.1 88.61694848484849
13454.6 88.33014848484846
13929.2 88.27514848484849
14419.9 88.41604848484849
14928.2 88.67154848484849
15455.6 88.79524848484849
16000.5 88.91364848484848
16564.5 88.5444484848485
17148.9 87.8903484848485
17752.4 86.88314848484846
18379.4 85.86334848484849
19026.9 85.31604848484848
19697.8 84.9408484848485
19999.5 84.64274848484848
