Freq,Floor Bounce,Ceiling Bounce,Front Wall Bounce,Side Wall Bounce,Rear Wall Bounce,Total Early Reflection
20.5078,61.769750288963394,59.729853794281894,62.462033784131336,59.08034350860274,61.5596409823105,61.103727101506564
21.9727,60.33396884428004,58.1248172575817,61.286916246133075,57.10444049714326,63.31474434927085,60.5939765030252
23.4375,59.051064024688344,55.184328435733136,60.0161595877631,54.743426450948846,64.87385970463347,60.41962947694964
24.9023,60.330768616127585,57.06710614696672,61.153223698888496,56.98803930938092,66.97977931053131,62.2430842251901
26.3672,62.654765606248475,60.00394335357913,63.40401632674167,59.8899686504671,68.10190096578364,63.96821175720251
27.832,64.06552163302803,62.50981316937322,64.60900692325583,62.70902190734287,70.27709492316619,65.96535075151748
29.2969,66.02238293853759,64.91334567713753,66.42914107650823,65.14841253119141,71.7698451150021,67.75232999330326
30.7617,68.402449527059,67.52179542789145,68.66801963043413,67.78425586205579,73.11982512562564,69.67989725479387
32.2266,71.03641225497974,70.57749559322485,71.34555843362527,70.59568143064467,74.71506608569652,71.97744118696171
33.6914,71.7905630303887,71.36402881392391,72.17440767922591,71.33703961241483,75.6107069345199,72.8009417936437
35.1562,72.78703277620352,72.46549617813267,73.05279256223422,72.62546674184779,77.1421511069756,74.04583576676538
36.6211,74.28810456876212,73.99586985438646,74.36414130973668,74.37376650390426,78.77259936757531,75.61124309079533
38.0859,76.29013178905113,76.20971376592806,76.33594191803047,76.51883034972496,80.22394254573832,77.44305581566975
39.5508,77.24970833411663,77.21227016879665,77.29865192539089,77.48555960885727,80.79174985395636,78.26653072979938
41.0156,78.1326676724974,78.12096422040028,78.14209984399432,78.42933000811496,81.6644650103059,79.15381424798049
42.4805,78.99270392093813,79.08355232389823,79.01354315898837,79.33709596578986,82.38088808042409,79.98971368529791
43.9453,79.74433800350616,79.8613404729827,79.74667706549475,80.12101024438567,82.98288696021456,80.69698987550527
45.4102,80.42798878464716,80.57879168952849,80.40879065125483,80.83635204337385,83.56332165018829,81.35374347908781
46.875,80.99603171611845,81.17548667481402,80.97214463785981,81.41550853310746,83.95454139010593,81.8698697683833
48.3398,81.59561897659765,81.78823994997822,81.5645131800212,82.01769260183528,84.39123356634282,82.41903206255998
51.2695,82.49808860303973,82.69556897641793,82.44534349322834,82.92412051124855,85.03430222614287,83.23944045820448
52.7344,82.92387861849014,83.11458404575632,82.86105907666146,83.34042179875146,85.31188494286341,83.61626663629978
54.1992,83.30843650585055,83.48929258236844,83.23529088829702,83.71464965636929,85.55604743411125,83.95432678052447
55.6641,83.68839154967029,83.8599703035799,83.61020565313412,84.07656390592764,85.78582796572577,84.28539278350146
58.5938,84.34582245067874,84.44758746235604,84.23325298548716,84.6876762761081,86.20807036366105,84.84995188518376
60.0586,84.66622203832878,84.68858168874512,84.51929294735761,84.96904374883943,86.407423975384,85.10951768378851
62.9883,85.21364969660434,84.98823033065996,84.95907265384832,85.42041016688046,86.71778904254082,85.51164992217885
64.4531,85.56173183391795,85.23028582387433,85.26537525487397,85.71078942242379,86.89727862790764,85.77819351429993
67.3828,86.30801303278676,85.72137923385598,85.9324744650718,86.3281475611374,87.24581894418365,86.33958631905871
68.8477,86.46144310139306,86.0580250627035,86.13915162799836,86.55415908652435,87.48955739912748,86.57160383517812
71.7773,86.84484005583683,86.91788114112283,86.69741926773553,87.07574130475761,87.87051157171804,87.10165014493828
74.707,87.2633905521894,87.48541544511869,87.17258711852823,87.52607035236757,88.22795894609658,87.55138657501263
77.6367,87.60772809105374,87.86038468239376,87.52280406785766,87.85496878051265,88.48077894786223,87.87859439222856
79.1016,87.77505279855399,88.03010155658002,87.68938759580963,88.00660800746056,88.58867613709435,88.02955359145997
82.0312,88.08839217438444,88.33438732148252,87.9955448013007,88.28591458785868,88.79323841661264,88.30843900138231
84.9609,88.32179320962604,88.55875739351009,88.22067520837065,88.47801378704519,88.92667133939723,88.50807814384248
87.8906,88.68722665629988,88.87623814284066,88.57241687477688,88.75079591004841,89.10216155995542,88.80157197402502
90.8203,89.09204928281946,89.28860462089033,88.97830196423624,89.1110544649017,89.40163625424012,89.17696089865007
95.2148,89.33103888469617,89.55624115280655,89.22088711218163,89.31303061303527,89.55612112366921,89.39761060544933
98.1445,89.38635783668042,89.59803408907051,89.27149348166503,89.33032648990209,89.52814887130268,89.4245931558683
101.074,89.4005734186152,89.59518145929131,89.27942547059243,89.29650105408753,89.43101650463512,89.40202818188324
105.469,89.49503756948643,89.63129150535934,89.3583092803317,89.28936984886406,89.31016971031718,89.41876230326635
108.398,89.51977375594043,89.64222679445633,89.37213082987526,89.25942034157708,89.25245292337351,89.41185826619524
112.793,89.25421158907041,89.41813402182504,89.11448033725277,88.9537039070302,88.9966262789421,89.1508116080548
117.188,88.95038872999538,89.01974571902053,88.79654270156391,88.50661654514593,88.42793707413412,88.74661376144272
120.117,89.06149413494416,88.9897756227186,88.881713858875,88.47427914554083,88.1725640092782,88.72901766673891
124.512,89.77804566134529,89.74686834836872,89.59029563200471,89.17947244074378,88.91296433800208,89.45462881747017
128.906,89.56788794904574,89.622025760221,89.4127006125926,88.9548972672224,88.74493695906011,89.27431617812191
133.301,89.34008226325894,89.43908879447099,89.21659686594813,88.66304923228535,88.27489783494738,89.0091663055111
139.16,89.03131720605472,89.18379249629069,88.90647343164406,88.34004586517024,87.78925531836919,88.68005038097874
143.555,88.83615713137162,88.90878093416501,88.66779435960242,88.0149506973347,87.52943787420037,88.4234335584612
147.949,88.76443381329071,88.74904644357885,88.58408193861762,87.65345065195122,87.16708341479624,88.2312410900697
153.809,89.04867047116608,89.05970269518038,88.86173396753227,87.90859765940687,87.13791659502331,88.46734912553855
159.668,88.4641640197445,88.39986939039825,88.14066794469178,87.17489965372599,86.58350056408801,87.81440121312585
165.527,88.45680327849158,88.09560493292126,88.0605992051874,86.7908933682906,86.33149639245852,87.62389747609339
171.387,88.56473597504036,87.9953531474689,88.15808817180177,86.66070057943298,85.77553486034046,87.55079216751567
177.246,88.93397858463825,88.51669450645956,88.49969731419662,87.22936330606105,86.47205262435718,88.02513641796244
183.105,88.66829008424719,88.2658292480146,88.25525100522364,86.77239480107144,86.24190222488394,87.74131769038917
188.965,88.41220044282758,88.12874137804624,88.06229566911135,86.39788812084481,85.91385869303758,87.49795635801377
196.289,88.34144712833918,87.69392027654092,87.85894791371413,86.03272087095814,85.69325302513343,87.24841961890904
203.613,87.8246943588352,87.63765263371057,87.53228342722073,85.43509912116474,85.08966538464409,86.85805894689766
210.938,87.734955623198,87.77526876436127,87.5524445070382,85.19025322799799,84.27771444402813,86.73956386501777
218.262,88.03090059043753,87.85963248714455,87.66119647860216,85.37050540672068,84.36801489962953,86.89797191188998
225.586,87.55520600979017,87.21434076218642,87.13894944882065,84.59796151843886,84.33063468979353,86.38067086575725
232.91,87.37157740307325,86.75167881620455,86.96498993080625,83.9966917606268,83.71113795432089,86.0259726519275
241.699,87.78959087154847,87.21894939789068,87.31543376080913,84.24308414944669,82.7360643785721,86.27483367632556
250.488,87.80081770153777,86.5106443781919,87.21352041334457,83.84666910211003,81.46762112309895,85.93192137795376
259.277,88.68062046393788,87.92495412604046,88.05578150850785,84.41990812965834,81.86079825650972,86.86180236469338
268.066,88.75563065000148,88.04218437390603,87.95489669931415,84.62541347208256,82.70876283091313,86.970726922838
276.855,87.7632660400023,87.48491522876785,87.24254179224152,83.33297913316298,82.73289660628089,86.21363238039555
287.109,87.6844474762337,86.814576030173,86.67040998025698,82.328196855293,82.00863639579171,85.708399320312
297.363,87.455307154936,86.74161088634179,86.58827843274668,82.86467997497817,81.28018250973534,85.592758102821
307.617,87.63604273772955,86.62495813929154,86.7569955473219,82.42457088104045,81.02865334971787,85.59993711525202
319.336,87.13755654290493,86.13926918671947,86.51509138682925,81.66127638945059,79.90769241835741,85.1084771721583
329.59,87.26897267077172,87.24318774254485,87.12832029018767,82.41626412847823,79.61347029782317,85.67119166910129
341.309,86.8949383226092,88.03978894856478,86.82924687954964,81.45481102700712,80.37636209953124,85.69767377156687
353.027,85.70278581891347,87.44272478429296,86.11165905211163,80.43116840132028,80.12481918844551,84.90962565587242
366.211,86.19402643307588,88.0975944701202,86.13081035026083,80.3928493711309,78.71051656255128,85.19999035031802
379.395,86.79030310123434,86.77339188162335,85.90622156867548,79.31953963062992,77.62338895485955,84.73114392667898
392.578,87.63852506567,85.40923216617665,86.02649972388548,77.98641606640004,77.44717862570225,84.61510145608321
405.762,87.8309331990563,85.06185469722452,85.97643633348461,78.88021424541905,79.17813068913476,84.72350935950656
420.41,85.14933992020745,86.31373574768998,84.61212840902374,76.70238747281269,78.00242605501583,83.63371901331755
435.059,87.19991323692433,86.03577013607136,86.11878484785356,77.67021064398826,77.37747603677094,84.61946838033998
451.172,88.07649077790148,86.73521773972352,87.2584850607523,78.84589085184865,80.84250505089358,85.6672196614422
465.82,89.92725411941694,88.36432576456203,88.96305487597135,80.27813548767122,80.86781816864155,87.30118626124145
483.398,89.90550170803297,88.24169497270233,88.06689599253083,79.51244633201499,78.54063897575364,86.89688017633502
499.512,88.62910802611465,89.14747788370136,87.53095057252668,78.57433623594716,78.30948384548668,86.54601786461087
517.09,87.47840841895547,87.59396357191305,86.8219540582082,76.74755155790676,79.71040424932454,85.45575936220749
536.133,88.04175471328746,86.85406863773918,86.55909031117515,77.42279597401811,79.71804676208782,85.37425937123993
555.176,88.18030235120695,86.21463216090126,86.97042215085591,77.48395735258548,79.93504036351226,85.38651015967619
574.219,88.80564314407245,86.01330661499135,87.65226416099365,77.80786117182438,78.93133959998401,85.7515354271402
594.727,89.05521216746433,87.38364489622477,87.3998126342222,77.07129585996064,79.0113007595505,86.08968988146357
615.234,88.82575053383493,87.71501849285292,87.65913364179029,78.94875158770074,78.22053945717059,86.19549206808531
637.207,89.50540671906478,85.54012236575888,87.52474518359165,76.35016385081128,78.04291706113631,85.84986279525438
659.18,87.55500563749585,87.69819155501033,85.96937673674836,77.71117509702495,77.19455416932871,85.22409909223491
682.617,87.42782499466598,86.01367848012174,85.66193014080193,77.03881614627399,78.03177001120682,84.57838423747134
707.52,88.85617074068186,86.99093274767475,85.71526994377274,77.92840112912059,78.72111524235576,85.50960471288158
732.422,87.39373111112096,85.55953287974495,85.58413420737894,77.41632873325901,78.15512593602898,84.44283497088342
757.324,88.39573587984185,86.70098655681201,85.50960207906728,78.18627416029082,79.37171607406655,85.22961429922688
785.156,87.73599060539368,87.81471654423649,85.5084165903819,79.6612053391219,79.79161591443714,85.41993595861416
811.523,88.30534367946831,89.668731308158,85.56518265997816,80.21655852603556,78.32699976069493,86.30793088314908
840.82,87.67661123361435,88.59391019982681,86.51959429627769,79.45863380221704,78.30256360784833,85.8291150834643
870.117,87.34347043249278,86.4756290669453,86.97742928888758,80.41434774550255,77.81821269544714,85.20018800771368
900.879,88.1599478123605,85.80557052592589,86.90325090335158,80.95789305594978,77.68274492004619,85.33716141687934
933.105,88.04386430560967,86.86602607392697,85.24821224890253,81.33606394628784,76.84654748594902,85.16549174949937
965.332,87.1471013504921,87.09266435520712,84.97606657739158,82.97920530180362,79.18029757788658,85.12234033242883
1000.49,86.92916766898564,86.28128859516387,84.87229680050288,83.28366956435026,81.45002400770477,84.99005095927876
1035.64,87.38531952626516,84.3297791693184,87.23298827312848,84.22729110008119,81.32141423643529,85.43508985721986
1072.27,88.62659357659257,86.47473921891084,85.9520491436979,85.33847561968606,80.12748507708798,86.04561426133134
1108.89,87.94844684356502,84.22362460617964,85.9502950600765,85.79189578419503,80.61403169984712,85.50526176461439
1148.44,87.39926340798209,83.04252361831138,84.18677524140277,85.62089343911849,81.85662226505679,84.86100375358106
1189.45,86.89393196967217,84.34362539407915,83.87913624862921,86.48785431567507,81.59958548966952,85.0385235690471
1230.47,86.23813269154887,86.07861151271543,84.18530685026631,86.50083279361729,81.26403344006684,85.23386426411165
1274.41,85.31747140701785,85.45321092656991,84.54561535943824,87.04941919735029,78.59135417778441,84.92832414908543
1319.82,88.54516039034567,86.38778249663994,84.71621801710553,86.48023686048758,77.69105697493642,85.91126781880897
1366.7,87.51830715241196,85.5267069481112,85.2818831434995,85.92884124414242,76.84492979009627,85.3126185663057
1413.57,85.69331658317995,86.5592199105818,85.69000841639482,84.37197623306793,75.27986704752999,84.77653851135001
1463.38,87.38763269535399,84.74028207586159,85.17578592252157,82.53435636270568,73.03349079721565,84.3917050110541
1516.11,87.13269415992065,84.55425321864234,84.57143743868389,81.68742003532105,70.97338619553172,83.97462360004396
1568.85,86.77756560494603,84.25899848237093,85.07602409603308,78.82427140697587,71.63948759054422,83.6378860157123
1624.51,86.75376425354024,83.73662653899666,84.95954876288201,77.14385674931773,70.32294658543229,83.36797612380849
1681.64,86.86786237872921,83.53425427002328,84.2437675961678,74.90175127575918,69.35876733170444,83.08370765283938
1741.7,87.31167357384528,84.28502682078387,84.4321912878026,74.28778310691658,68.57034715023218,83.49553812881375
1803.22,88.35045358195205,84.9380512938518,85.47307439152611,74.64525232650617,69.79364551953825,84.43116127135049
1866.21,88.26159231269445,85.7284717234687,85.68763624260657,75.54185612344989,71.18731415086559,84.66439731437298
1932.13,88.50956357914994,86.1669932257463,85.24451439970548,77.27694709617506,70.7732523161362,84.8376694519746
1999.51,88.37689928560738,85.90734560495099,85.43658828217495,79.21684124037859,72.05450980212518,84.84892794733717
2069.82,88.25327427826531,85.07594130506114,86.34881643839108,81.12347334275512,72.58051501792715,84.96845038327373
2143.07,88.91396586778845,85.0284155322185,85.93276252783534,81.74951898803023,72.4250265479333,85.20123773969352
2219.24,88.16839329360297,84.51786550581063,85.8104864047774,81.90013643889878,71.76044800258013,84.74185969678366
2296.88,87.68083985160791,84.89980559566047,87.50492551700829,83.48763820561025,71.65914399720398,85.30490430986501
2378.91,87.3998196826503,83.80210925147867,87.73290130185808,83.65156172412647,71.81006701875714,85.13173101083984
2462.4,87.3093683572944,82.93239547782895,87.6518505693489,83.19768065664972,70.6981242440235,84.87858997764037
2548.83,87.47260066007101,82.74410368097077,88.96987815555804,83.97989004476139,71.01039161414869,85.5591620959843
2639.65,87.6769934123326,82.8454459352878,89.21880521981448,83.94324947343225,71.26640453148536,85.74024200853773
2731.93,87.36294800185237,82.97805159698022,88.95986257461752,83.05313572975831,71.24483932616135,85.43003458694307
2828.61,87.48667639232708,83.59092161766681,89.66048378975435,83.50392176256805,71.25713349894069,85.9138961711092
2928.22,87.29763483102585,82.30304774408279,89.57516350200473,83.48912266967255,70.93442582626847,85.68015242275636
3030.76,87.02448019673751,81.85710459328384,89.38901128773837,83.15918529801277,70.76784147678934,85.42838265884572
3137.7,86.50610654564827,82.66535371683278,89.70447533445692,83.20879500489232,70.53322421060957,85.53134432885437
3249.02,86.871067166935,82.71456705364423,89.6298173468764,83.19172321376449,70.33294173648207,85.589445252089
3363.28,86.98689146007156,83.66602326993103,89.59923755579953,82.8261360272356,69.74406453630809,85.6708462133823
3481.93,86.98786239392989,82.94889232338029,89.54549614795965,82.60382678049888,69.35300071187969,85.53485789714972
3604.98,87.21750541256773,83.14106853072647,89.61982421805752,82.78960537642023,70.17639005591725,85.68138166776026
3732.42,87.83208694326797,83.26167010865674,88.99197653714066,82.50860512903934,69.3066100738504,85.55943486754514
3864.26,87.55850428703536,82.5596698760038,89.27910039562434,83.0155176461269,69.586352573061,85.5790158558028
4000.49,87.61727375076242,83.28390560671424,88.8962731789926,82.80820661896463,69.48417724441244,85.48046882985305
4141.11,87.35309069414471,82.59192409339208,89.36486968945935,83.07641035054219,68.7605063507713,85.56254418267255
4287.6,87.07891101529499,82.872095179387,89.18126641497237,82.81336523313544,68.3736540873103,85.39152938473524
4438.48,86.73921822924662,82.28896938988102,89.22877276233913,83.06434903124236,68.18596633763863,85.2833927525432
4595.21,86.60916461433457,82.96784924912139,89.33895565344142,83.69859835463167,68.75701926901624,85.45745805207943
4756.35,86.67161154197748,82.51214336424718,89.32503325804643,83.65174216828274,67.84887737323801,85.40829325536677
4924.8,87.02227433977312,82.83841838884598,89.02342304494455,83.53981216796264,67.3540397671495,85.38070477967113
5097.66,86.85402945169011,83.14177400031315,89.35163593758104,83.18111671973017,66.34253640298267,85.47631488181649
5277.83,87.22275279283295,82.6727127248027,89.54326946880767,82.43940501122106,66.24594604644442,85.54454903419017
5463.87,87.4629959658421,82.4886374082751,89.75042447898886,82.25081306833377,66.39597525184976,85.68520789539429
5657.23,87.89061929443953,82.42277337072038,89.41368547660302,81.63965342365799,65.42497128960645,85.59434503197872
5856.45,88.0842402509881,81.68807002362331,89.48455530819851,81.40401303944307,65.56560339691353,85.61262619080927
6062.99,88.17472880052492,81.57835539588392,89.54943952393846,80.95271203592407,65.42939497406908,85.63519147814378
6276.86,88.00105495203869,81.56707143844892,89.35712360530792,80.62415460918452,65.93139354182568,85.45639670784597
6498.05,87.97081103208393,81.31435555897909,89.63358019405341,80.60382020385009,64.79747522490777,85.56084906105784
6726.56,87.69084346095647,80.8232829281701,89.76835771800579,80.38179087581523,65.04078187832397,85.48737508177054
6963.87,87.26922481663932,80.73540768705185,89.44470502322397,79.7593043290689,64.24735578445038,85.12933555855567
7209.96,86.55543504081373,80.52761706297446,89.31000291389567,79.41255622615182,64.6726377325607,84.79639015148742
7464.84,86.08234504897013,80.25915758056854,89.34130682424644,78.96159794422888,62.13110316967294,84.62851695363562
7727.05,86.30164054479732,79.62532372087082,89.59879907878505,78.67816439685362,62.9323236909062,84.78842698546514
7999.51,86.68117607653129,79.40665110154185,89.68880526487871,78.56616203928795,63.39758684881593,84.93558895055702
8282.23,86.7373842952481,79.27756738448677,89.66413040169522,77.95757703538776,63.262558263443196,84.90417591779575
8573.73,86.8176942391542,78.57830769757831,89.58767012970159,77.96566620390891,64.02038660165763,84.84930073256851
8876.95,86.6276850558435,78.50676353674261,89.3685731640135,77.8907010032813,62.351322543859965,84.65039462527054
9188.96,86.53601646206646,77.9461581805212,89.30852116876791,78.08186692951018,62.40896048515236,84.56842336775458
9514.16,86.55203702579615,77.54616583517344,89.68376253295804,78.05002991802783,61.02165273317479,84.78210425660338
