Freq,On Axis,Listening Window,Sound Power,Early Reflections,Early Reflections DI,Sound Power DI,DI offset
22.4,-12.499999999999986,-10.546401253229519,-11.125874461245118,-10.939704302032723,40.393303048803205,40.5794732080156,40
23.0,-11.600000000000009,-9.480591024645193,-9.967500622840632,-9.813211647837804,40.33262062319261,40.48690959819544,40
23.6,-10.90000000000002,-8.56434526884452,-8.924599577920489,-8.831226186218501,40.26688091737398,40.36025430907597,40
24.0,-10.299999999999997,-7.764483144953871,-8.021445927302025,-7.9616501853871995,40.19716704043333,40.256962782348154,40
25.0,-9.700000000000003,-6.949448602115936,-7.0924348379859765,-7.112656408720014,40.16320780660408,40.14298623587004,40
25.8,-8.100000000000009,-5.282901866485858,-4.585932602261764,-5.27746819251,39.99456632602414,39.303030735775906,40
26.5,-6.40000000000002,-3.625654764622496,-2.066361257626383,-3.4532090491799323,39.827554284557436,38.44070649300389,40
27.2,-4.999999999999986,-2.2779857400860095,-0.0699830414007323,-1.9635296857543239,39.685543945668314,37.79199730131472,40
28.0,-3.90000000000002,-1.1214360261712528,1.5995726192210924,-0.6743131536372999,39.55287712746605,37.278991354607655,40
29.0,-2.799999999999997,-0.08755204801498451,3.0696310668252096,0.46162121097908937,39.450826741005926,36.842816885159806,40
30.0,-1.90000000000002,0.8256796493771361,4.323422659348481,1.501764493893674,39.32391515548346,36.502256990028656,40
30.7,-0.29999999999999716,2.543287309467516,6.3511741613546775,3.317663337210192,39.225623972257324,36.19211314811284,40
31.5,1.8999999999999915,4.967767356140328,8.960759260577092,5.860181624310471,39.10758573182986,36.007008095563236,40
32.5,3.59999999999998,6.8477668044073,11.013310427191684,7.836629290334528,39.01113751407277,35.834456377215616,40
33.5,5.09999999999998,8.463077848255566,12.727970723877306,9.500464680804882,38.962613167450684,35.73510712437826,40
34.5,6.3999999999999915,9.85119384481932,14.19905294630614,10.956597720913791,38.89459612390553,35.65214089851318,40
35.5,8.09999999999998,11.445640607317117,15.766314822431056,12.564503877798316,38.8811367295188,35.67932578488606,40
36.5,11.59999999999998,14.199812434941421,18.026027716444574,15.088207702696835,39.11160473224459,36.17378471849685,40
37.5,14.300000000000026,16.38402171715198,19.83543957607712,17.142086429793878,39.2419352873581,36.54858214107486,40
38.7,16.39999999999999,18.162804199484142,21.332465060503196,18.818676436846502,39.34412776263764,36.830339138980946,40
40.0,18.200000000000003,19.67315482080427,22.607403389306043,20.263559281705923,39.40959553909835,37.06575143149823,40
41.2,21.200000000000003,22.24858030737299,24.683994751205617,22.634487947557304,39.614092359815686,37.56458555616737,40
42.5,24.79999999999997,25.221485153091763,27.063787579926,25.39629776346341,39.825187389628354,38.15769757316576,40
43.7,27.299999999999997,27.47378981623173,28.926841160447722,27.502573003109134,39.971216813122595,38.54694865578401,40
45.0,29.299999999999997,29.31401900345334,30.46066223996148,29.245980282340227,40.06803872111311,38.85335676349186,40
46.2,31.60000000000001,31.391819227788787,32.17245933905103,31.213690705261897,40.17812852252689,39.219359888737756,40
47.5,34.2,33.73345049266736,34.184158849401896,33.48869199234316,40.244758500324195,39.54929164326546,40
48.7,36.3,35.687132644626544,35.89591234351268,35.38610438660619,40.30102825802035,39.79122030111387,40
50.0,38.000000000000014,37.350419093756145,37.39982864092322,37.00338316213667,40.34703593161947,39.95059045283293,40
51.5,40.2,39.507945702672814,39.326941842035566,39.1102080635,40.39773763917282,40.18100386063725,40
53.0,42.2,41.51161041513673,41.19118336828866,41.09394499992315,40.41766541521358,40.32042704684807,40
54.5,43.89999999999999,43.19956366541602,42.784654542623954,42.76256005556151,40.437003609854514,40.41490912279207,40
56.0,46.2,45.45522150757249,44.96383913834741,45.02723864319766,40.427982864374826,40.49138236922508,40
58.0,48.8,48.12178920238598,47.56996697998203,47.69320758469537,40.42858161769061,40.551822222403956,40
60.0,50.8,50.19772989118543,49.59926961896083,49.764042937620715,40.43368695356472,40.5984602722246,40
61.5,52.7,52.123743744672495,51.502599906911385,51.69150784958926,40.43223589508324,40.62114383776111,40
63.0,54.500000000000014,53.936417206324094,53.330829202041926,53.528054654132674,40.40836255219142,40.60558800428217,40
65.0,56.10000000000001,55.5229958545694,54.92211693460858,55.13713958341445,40.38585627115495,40.60087891996082,40
67.0,57.8,57.366257743724944,56.78228496949016,57.00821652060115,40.35804122312379,40.58397277423478,40
69.0,59.60000000000001,59.1718045440993,58.62170280092779,58.855512342914196,40.31629220118511,40.55010174317151,40
71.0,61.10000000000001,60.776794853414486,60.247524734338924,60.47987831556199,40.296916537852496,40.52927011907556,40
73.0,62.8,62.55088780501434,62.0553892079394,62.28682109698714,40.2640667080272,40.49549859707494,40
75.0,64.3,64.10543208980646,63.62312887875072,63.858657918264115,40.24677417154234,40.482303211055736,40
77.5,65.60000000000001,65.38172252375175,64.93841741352534,65.16118873233656,40.22053379141519,40.443305110226405,40
80.0,66.6,66.49150849926947,66.06509705476581,66.28920142970041,40.20230706956906,40.42641144450366,40
82.5,67.8,67.65810703740077,67.24993564666663,67.47069405951098,40.18741297788979,40.40817139073414,40
85.0,69.0,68.87949530030724,68.4697650229429,68.66787756410545,40.21161773620179,40.409730277364346,40
87.5,69.89999999999999,69.87975834508555,69.48551105709477,69.68515401415094,40.19460433093461,40.39424728799078,40
90.0,70.8,70.72395507181002,70.31491886665022,70.52581606284832,40.198139008961704,40.40903620515981,40
92.5,71.5,71.43511890314063,71.01310908175577,71.23206246630825,40.203056436832384,40.42200982138486,40
95.0,72.00000000000001,72.00101747322108,71.55089004642441,71.76662346327248,40.2343940099486,40.45012742679667,40
97.5,72.7,72.66819897766142,72.20485422528554,72.4206817134911,40.24751726417031,40.463344752375875,40
100.0,73.40000000000002,73.44575355685862,72.93589629803823,73.17967882754952,40.266074729309096,40.50985725882039,40
103.0,74.1,74.06819897766142,73.52110673998716,73.76532704597099,40.30287193169043,40.54709223767426,40
106.0,74.7,74.67950687011968,74.09303548934061,74.36567853500094,40.31382833511874,40.586471380779074,40
109.0,75.5,75.44676626413407,74.81491159622284,75.11021919919152,40.33654706494255,40.63185466791123,40
112.0,76.1,76.11275652700279,75.40908561555257,75.7292266047554,40.38352992224739,40.70367091145022,40
115.0,76.6,76.61301756496032,75.85932627893578,76.20773533095597,40.405282234004346,40.753691286024534,40
118.0,77.09999999999998,77.05839436855935,76.2544019616501,76.63162139457685,40.426772973982494,40.803992406909245,40
122.0,77.5,77.50254655015453,76.64190494495178,77.05398670422116,40.448559845933374,40.86064160520276,40
125.0,78.0,77.9137654781959,77.00645271165705,77.43063846030019,40.48312701789571,40.90731276653885,40
128.0,78.2,78.19180543494959,77.2506029468456,77.70776656234747,40.48403887260211,40.94120248810398,40
132.0,78.6,78.53589808623543,77.55630307427072,78.03100681114516,40.50489127509027,40.97959501196472,40
136.0,78.9,78.88026656291738,77.87866012539702,78.3737996009348,40.50646696198258,41.001606437520365,40
140.0,79.2,79.18026656291738,78.13297837638068,78.64779700491619,40.532469558001196,41.047288186536704,40
145.0,79.59999999999998,79.5467781930013,78.49759135365026,79.0288377864154,40.51794040658591,41.04918683935104,40
150.0,79.89999999999999,79.82420951107844,78.72123843692508,79.27398374060944,40.550225770469,41.10297107415336,40
155.0,80.1,80.03511890314063,78.91658706659076,79.49705829080646,40.538060612334164,41.11853183654986,40
160.0,80.3,80.26872041865981,79.12223262539412,79.7037118470232,40.56500857163661,41.14648779326569,40
165.0,80.5,80.43511890314065,79.28539683929536,79.87940812306688,40.55571078007377,41.14972206384529,40
170.0,80.7,80.60179074505825,79.39629606827948,80.02305145460004,40.578739290458216,41.20549467677877,40
175.0,80.8,80.72420951107844,79.47295569387525,80.11227225610823,40.611937254970215,41.25125381720319,40
180.0,80.90000000000002,80.83589808623545,79.56946178734218,80.22441752887711,40.611480557358334,41.26643629889327,40
185.0,80.99999999999999,80.93589808623544,79.63299261037776,80.30296960264637,40.63292848358907,41.302905475857685,40
190.0,81.2,81.0581419242689,79.70233136540011,80.39070736218981,40.66743456207908,41.35581055886878,40
195.0,81.2,81.13589808623544,79.75604828406277,80.46715362288914,40.6687444633463,41.37984980217267,40
200.0,81.3,81.19233015867609,79.78477747080815,80.50028854066677,40.69204161800931,41.407552687867934,40
206.0,81.4,81.27000942813527,79.82659842664096,80.56211305662453,40.70789637151074,41.44341100149431,40
212.0,81.4,81.33638835793222,79.86571621509898,80.63336267865056,40.703025679281666,41.47067214283324,40
218.0,81.5,81.37000942813528,79.88203266401867,80.65200683131751,40.71800259681777,41.48797676411661,40
224.0,81.5,81.45867674743526,79.90393932651257,80.69591531788275,40.76276142955251,41.55473742092269,40
230.0,81.6,81.47000942813527,79.91844782985616,80.72868250062608,40.74132692750919,41.55156159827911,40
236.0,81.6,81.50437861774282,79.92714722654604,80.74245201790063,40.761926599842184,41.577231391196776,40
240.0,81.6,81.52678406324476,79.92652178469434,80.76721086200294,40.75957320124182,41.60026227855042,40
250.0,81.7,81.57231191436917,79.9256635161622,80.77238303357049,40.799928880798674,41.64664839820696,40
258.0,81.6,81.55014071965618,79.88042915081145,80.74384276243644,40.80629795721974,41.66971156884473,40
265.0,81.6,81.49388672815249,79.79534689148868,80.66629270070236,40.82759402745013,41.69853983666381,40
272.0,81.6,81.4614956674433,79.71820895486802,80.6237243541937,40.837771313249604,41.743286712575284,40
280.0,81.6,81.43010355858134,79.63596612944812,80.57937007903192,40.85073347954942,41.794137429133215,40
290.0,81.5,81.39596256941535,79.55154414350808,80.50372228109967,40.892240288315676,41.844418425907264,40
300.0,81.5,81.35398455710065,79.45440476980728,80.45247668808375,40.901507869016896,41.89957978729336,40
307.0,81.5,81.35398455710065,79.36482491079758,80.4142107351683,40.93977382193235,41.989159646303065,40
315.0,81.5,81.35398455710065,79.29911377769942,80.39050959167959,40.96347496542106,42.05487077940123,40
325.0,81.5,81.34384835314694,79.22547154392248,80.37535784745738,40.96849050568956,42.11837680922446,40
335.0,81.6,81.43391996896571,79.1722641728235,80.3958363643465,41.03808360461922,42.26165579614221,40
345.0,81.6,81.45521974317664,79.12043698815935,80.40100734830492,41.054212394871726,42.33478275501729,40
355.0,81.7,81.52396883553878,79.08626527373272,80.42780749598514,41.096161339553646,42.43770356180606,40
365.0,81.8,81.57839985809566,79.04637282832017,80.4472978803414,41.13110197775427,42.53202702977549,40
375.0,81.8,81.62396883553878,78.97074997187654,80.45608059509362,41.16788824044515,42.65321886366223,40
387.0,81.7,81.54531735068953,78.79302865039259,80.35167054257901,41.193646808110515,42.752288700296944,40
400.0,81.7,81.5353923280479,78.67948019085911,80.31372686600372,41.221665462044186,42.855912137188795,40
412.0,81.7,81.48840445628824,78.50622858856836,80.20495314847375,41.28345130781449,42.982175867719874,40
425.0,81.5,81.35617391497358,78.26052816569087,80.03819791967112,41.31797599530246,43.09564574928271,40
437.0,81.5,81.26777689153992,78.0638962593576,79.91122365692632,41.3565532346136,43.20388063218232,40
450.0,81.4,81.21251521591104,77.89029592661923,79.7936653479975,41.418849867913536,43.32221928929181,40
462.0,81.3,81.13487883143121,77.7137868369824,79.67114007783745,41.46373875359376,43.421091994448815,40
475.0,81.3,81.08046377343517,77.55022129650322,79.56479809938797,41.5156656740472,43.530242476931946,40
487.0,81.3,81.06097639184385,77.4164714722145,79.48165979321887,41.579316598624985,43.644504919629355,40
500.0,81.3,81.06097639184385,77.33305428496601,79.42667573392676,41.634300657917095,43.72792210687784,40
515.0,81.3,81.0725665618969,77.25190570223441,79.37369449761542,41.69887206428149,43.820660859662496,40
530.0,81.4,81.08439476801423,77.18132864517925,79.32500994351332,41.75938482450091,43.903066122834986,40
545.0,81.4,81.13198339440292,77.09950938658996,79.25227565963338,41.87970773476954,44.032474007812965,40
560.0,81.5,81.15615006048789,77.0366122625443,79.22583579712142,41.93031426336647,44.11953779794359,40
580.0,81.7,81.32515650210446,77.12018980530023,79.31847763179964,42.006678870304825,44.204966696804235,40
600.0,81.9,81.55137162860947,77.220426371172,79.4532401298973,42.09813149871218,44.33094525743748,40
615.0,82.09999999999998,81.6873076386925,77.22282285509928,79.50789051429213,42.17941712440037,44.46448478359322,40
630.0,82.3,81.8585334338677,77.28101987593968,79.61417618372553,42.24435725014217,44.57751355792803,40
650.0,82.2,81.82419559825911,77.1082992827109,79.52113113571892,42.30306446254019,44.71589631554821,40
670.0,82.09999999999998,81.69299875447375,76.8355211454279,79.31232887511958,42.38066987935417,44.857477609045844,40
690.0,82.09999999999998,81.62777353036554,76.61839412209936,79.2126749061584,42.41509862420715,45.009379408266184,40
710.0,82.00000000000001,81.5397241950592,76.40911475687052,79.08867393137926,42.45105026367993,45.13060943818867,40
730.0,82.09999999999998,81.64836119156148,76.40054431801725,79.1680035615366,42.48035763002488,45.247816873544224,40
750.0,82.2,81.78318223744023,76.41176763633129,79.26941925788095,42.513762979559274,45.37141460110894,40
775.0,82.3,81.81733807511982,76.35661790584386,79.2906666285213,42.52667144659853,45.46072016927596,40
800.0,82.2,81.71733807511983,76.19371358720865,79.18808054560779,42.52925752951204,45.52362448791118,40
825.0,82.00000000000001,81.51733807511982,75.93505785797713,78.9829021412838,42.53443593383602,45.582280217142696,40
850.0,81.8,81.27384164699997,75.62928457973054,78.70719476397962,42.566646883020354,45.64455706726943,40
875.0,81.6,81.07384164699997,75.39243915095373,78.50013422329553,42.573707423704434,45.68140249604623,40
900.0,81.5,81.01781770861898,75.32320697960022,78.42424870680384,42.59356900181514,45.69461072901876,40
925.0,81.6,81.08771718975916,75.36551260433151,78.44853266209725,42.63918452766191,45.72220458542765,40
950.0,81.7,81.14653217495716,75.45249910195493,78.49395285613329,42.65257931882387,45.69403307300223,40
975.0,81.6,81.09977190051951,75.45887347892197,78.42848567568723,42.671286224832286,45.64089842159754,40
1000.0,81.5,80.97273084226374,75.42903693079484,78.29831788575251,42.67441295651123,45.54369391146891,40
1030.0,81.3,80.79902397512448,75.37289448251929,78.14140366711588,42.6576203080086,45.4261294926052,40
1060.0,80.99999999999999,80.62121122488055,75.35402030718167,78.00249580168128,42.618715423199276,45.26719091769888,40
1090.0,80.7,80.41253884353239,75.36478069917962,77.89198664614398,42.52055219738841,45.04775814435277,40
1120.0,80.5,80.31705225621984,75.43641419173612,77.86946114663378,42.44759110958606,44.88063806448372,40
1150.0,80.4,80.33688999223523,75.61276151929282,77.99244266461729,42.34444732761794,44.72412847294241,40
1180.0,80.4,80.42768592830578,75.85499817801052,78.20143218298827,42.22625374531751,44.57268775029526,40
1220.0,80.4,80.57996652060642,76.10626950400432,78.44691234949352,42.1330541711129,44.4736970166021,40
1250.0,80.4,80.7206400349752,76.28177521011976,78.62031679299132,42.10032324198389,44.43886482485544,40
1280.0,80.4,80.76868324997234,76.26738981800878,78.64412992035207,42.12455332962027,44.50129343196356,40
1320.0,80.2,80.60609167127001,75.98214269497005,78.40945443057274,42.19663724069727,44.62394897629996,40
1360.0,80.0,80.44694537533701,75.61407868711184,78.12543709397602,42.32150828136099,44.83286668822517,40
1400.0,79.89999999999999,80.33272975304997,75.35349457123833,77.93205814766338,42.40067160538659,44.979235181811646,40
1450.0,80.0,80.40468270039848,75.19785677166554,77.87445292508143,42.53022977531705,45.20682592873294,40
1500.0,80.2,80.44091637616165,74.98546458382599,77.7865664680595,42.65434990810215,45.455451792335666,40
1550.0,80.3,80.38317876822427,74.71276516043129,77.62406839280972,42.75911037541455,45.67041360779298,40
1600.0,80.4,80.36393336557107,74.47111257566833,77.51063782268169,42.853295542889384,45.89282078990274,40
1650.0,80.60000000000001,80.40407212888653,74.2962757903289,77.46038660305742,42.94368552582911,46.10779633855762,40
1700.0,80.90000000000002,80.49843285788498,74.14460613720088,77.45415087386476,43.044281984020216,46.3538267206841,40
1750.0,81.2,80.68532211146554,74.08642368232621,77.53005078503037,43.15527132643517,46.598898429139325,40
1800.0,81.7,80.98829729418803,74.17972594482482,77.75412005161327,43.23417724257476,46.808571349363206,40
1850.0,82.2,81.28833422634845,74.2578931097794,77.9940580216588,43.29427620468965,47.03044111656905,40
1900.0,82.39999999999999,81.32261142527648,74.00714511745785,77.93016247955104,43.392448945725434,47.315466307818625,40
1950.0,82.3,81.14613200922207,73.57478852843455,77.68708841521139,43.45904359401068,47.57134348078752,40
2000.0,82.3,81.03051939037867,73.20794494721459,77.47245675677199,43.55806263360668,47.822574443164086,40
2060.0,82.6,81.18763660222331,73.08134890474473,77.50102698359954,43.68660961862376,48.10628769747858,40
2120.0,83.2,81.64040710061165,73.22856389788022,77.79191390022064,43.84849320039102,48.41184320273143,40
2180.0,83.9,82.20155365810237,73.52882271749742,78.20203871316546,43.999514944936905,48.67273094060495,40
2240.0,84.2,82.47311493358215,73.61171346780978,78.31787476370083,44.155240169881324,48.861401465772374,40
2300.0,84.1,82.30364989768326,73.32732548830367,78.05179195748971,44.251857940193545,48.976324409379586,40
2360.0,83.8,81.99131254861015,72.92583531637398,77.61940621384399,44.371906334766166,49.06547723223618,40
2400.0,83.6,81.7771717908028,72.73463326855848,77.35743489579862,44.41973689500418,49.042538522244314,40
2500.0,83.6,81.74176515602359,72.71409633682802,77.28665536335406,44.45510979266953,49.02766881919557,40
2580.0,83.49999999999999,81.69537601138438,72.77957840502982,77.27650609386363,44.41886991752075,48.91579760635456,40
2650.0,83.40000000000002,81.66178252023674,72.91260490337213,77.32174790102835,44.340034619208396,48.749177616864614,40
2720.0,83.2,81.60221949271164,73.07516556744744,77.40135101308142,44.200868479630216,48.5270539252642,40
2800.0,83.0,81.51543329485544,73.21301007989003,77.44624360099898,44.06918969385646,48.302423214965415,40
2900.0,82.7,81.38520946408731,73.33224199966475,77.51078795563566,43.87442150845165,48.052967464422565,40
3000.0,82.09999999999998,80.99663067906239,73.26084692101496,77.37185395039384,43.62477672866855,47.73578375804743,40
3070.0,81.3,80.45210785564798,73.0158549099767,77.07163747667578,43.380470378972205,47.436252945671285,40
3150.0,80.60000000000001,80.03685815574711,72.85140389154017,76.84666005161802,43.190198104129095,47.18545426420694,40
3250.0,80.4,80.17746035883181,73.22999731494932,77.19061464123683,42.986845717594974,46.94746304388249,40
3350.0,80.5,80.61810770766824,73.94172896466858,77.84947230489358,42.76863540277466,46.67637874299966,40
3450.0,80.3,80.82585239431333,74.36997408060705,78.23083926386307,42.595013130450255,46.45587831370628,40
3550.0,79.8,80.65027201278782,74.36402422291359,78.1890164082563,42.46125560453153,46.28624778987424,40
3650.0,78.6,79.8016369496237,73.69146890038108,77.47619947952892,42.32543747009478,46.11016804924262,40
3750.0,76.2,77.66707652647447,71.6671303264696,75.40087834200192,42.26619818447256,45.99994620000487,40
3870.0,75.0,76.65754979593646,70.68785816522424,74.400513283993,42.257036511943454,45.96969163071222,40
4000.0,77.00000000000001,78.61909106375833,72.54483170154349,76.26405931991998,42.35503174383835,46.074259362214846,40
4120.0,78.6,79.98952404734241,73.66520996112257,77.4385993254243,42.55092472191811,46.32431408621984,40
