Freq "Early Reflections DI"
20.0 29.693713765211925
20.2909 29.696957585237385
20.586 29.699779801563466
20.8855 29.70323961266078
21.1893 29.706133005257897
21.4975 29.7089088247769
21.8102 29.712320156489852
22.1274 29.715428348806967
22.4492 29.718909057294155
22.7758 29.722225432927104
23.1071 29.726312581581425
23.4432 29.729636559891958
23.7841 29.733270933041553
24.1301 29.73675426005218
24.4811 29.740794311191507
24.8372 29.744770766876968
25.1984 29.748516613112713
25.5649 29.75257553441324
25.9368 29.756395009418668
26.3141 29.761031553508815
26.6968 29.76486278913606
27.0851 29.769545510233485
27.4791 29.774073449964646
27.8788 29.778353164859936
28.2843 29.782955397330596
28.6957 29.78747349805809
29.1131 29.792296862146088
29.5365 29.797123459796808
29.9661 29.80197472236145
30.402 29.806535489889683
30.8442 29.811825194885444
31.2929 29.816943644375726
31.748 29.8222307380413
32.2098 29.826949478793523
32.6783 29.83289448968131
33.1536 29.838185661008453
33.6359 29.843323975184063
34.1251 29.849464616214448
34.6215 29.85463047767425
35.125 29.860262037610994
35.6359 29.86572325609194
36.1543 29.871882268823526
36.6802 29.877753242318676
37.2137 29.883594722413733
37.755 29.889707072672564
38.3041 29.895773141694917
38.8613 29.90187634590069
39.4265 29.907861426902883
40.0 29.91368766414277
40.5818 29.92039999335219
41.1721 29.92670712603112
41.771 29.933340084882303
42.3785 29.939138741169614
42.9949 29.945979079016368
43.6203 29.952620570574908
44.2548 29.958981608749014
44.8985 29.96536042186962
45.5515 29.97221158580828
46.2141 29.978949105815886
46.8863 29.98533994067776
47.5683 29.99208662786971
48.2602 29.99896888308791
48.9621 30.005595319475887
49.6743 30.012371161573753
50.3968 30.019712166054745
51.1299 30.026109019007095
51.8736 30.03265993148247
52.6281 30.039611595465416
53.3936 30.046777828990088
54.1702 30.05354780752957
54.9581 30.060656704035182
55.7575 30.06685927901951
56.5685 30.07405278643894
57.3914 30.080942967994346
58.2261 30.08757224363795
59.073 30.09464551301322
59.9323 30.10107560304668
60.804 30.107532331723206
61.6884 30.114518632957328
62.5857 30.121396982013067
63.496 30.12815287235246
64.4196 30.134344612771002
65.3566 30.14137027967172
66.3073 30.147654671354587
67.2717 30.154492337331646
68.2502 30.161176841002103
69.2429 30.16706521588597
70.2501 30.173890987108976
71.2719 30.180282754469886
72.3086 30.18666294635402
73.3603 30.192981581518623
74.4274 30.19901833267211
75.5099 30.20517969407554
76.6083 30.211238677621267
77.7226 30.21757675714825
78.8531 30.223406907962755
80.0 30.22964879253111
81.1636 30.235295200544854
82.3442 30.241454905586465
83.5419 30.247392409565066
84.757 30.25231199461865
85.9899 30.258308542764624
87.2406 30.264043839891656
88.5096 30.26941842591343
89.797 30.275214258280414
91.1031 30.280340029077223
92.4282 30.28585697966902
93.7726 30.29090095422073
95.1366 30.29569546095165
96.5204 30.30088843256081
97.9243 30.30617580571122
99.3486 30.311149018859666
100.794 30.316309082248907
102.26 30.320719431631957
103.747 30.326016183252335
105.256 30.330646569335244
106.787 30.3351395779938
108.34 30.339904721369408
109.916 30.344122453034345
111.515 30.348411230118785
113.137 30.352968827439824
114.783 30.35726973039698
116.452 30.361563255519812
118.146 30.365603758074002
119.865 30.370035584642295
121.608 30.374217927365578
123.377 30.378289203513162
125.171 30.382157497882844
126.992 30.386555497179003
128.839 30.39014658428654
130.713 30.39376128444671
132.615 30.397786350759645
134.543 30.40189997695883
136.5 30.40568131158024
138.486 30.40896219355126
140.5 30.41257529040422
142.544 30.41694890532864
144.617 30.42026338286138
146.721 30.423749878321786
148.855 30.427576427718407
151.02 30.431375849348385
153.217 30.4349234197538
155.445 30.438315634458647
157.706 30.44202449575306
160.0 30.445780458004535
162.327 30.44961420207558
164.688 30.45301505441067
167.084 30.4567468241124
169.514 30.460479836964183
171.98 30.46419051161203
174.481 30.468052318905308
177.019 30.471253176907553
179.594 30.474938059925393
182.206 30.479086131746584
184.856 30.483058098900372
187.545 30.486926466023633
190.273 30.49128302926694
193.041 30.495083195328704
195.849 30.499186386171004
198.697 30.50369532834486
201.587 30.508026660038183
204.52 30.51229200817403
207.494 30.516819985133168
210.512 30.521630156519834
213.574 30.52657130114241
216.681 30.53115863168506
219.833 30.535952195336733
223.03 30.541256144275764
226.274 30.546472732940288
229.565 30.552251849516594
232.905 30.55768807429412
236.292 30.563339356916458
239.729 30.569525973715898
243.216 30.575791891188146
246.754 30.582040193768847
250.343 30.58851690408065
253.984 30.595536996249393
257.678 30.602470774596924
261.426 30.60993015254843
265.229 30.61734665912998
269.087 30.62543384396747
273.001 30.63342312099418
276.972 30.64145487443551
281.0 30.649934652032726
285.088 30.65923205704584
289.234 30.668677065104774
293.441 30.67809173713391
297.709 30.68792531368186
302.04 30.6979700535785
306.433 30.70870747371525
310.89 30.72025387511053
315.412 30.731760041847608
320.0 30.743526299344254
324.655 30.75529579160134
329.377 30.767908980262874
334.168 30.781116110367364
339.028 30.794974290004077
343.959 30.808956154650232
348.962 30.823166948022887
354.038 30.83762715697746
359.188 30.85305461438253
364.412 30.868705409089856
369.713 30.885454273887106
375.09 30.90172792433222
380.546 30.9189903266453
386.081 30.93685805292057
391.697 30.955458731011277
397.394 30.974626229270385
403.175 30.99370977761535
409.039 31.01361890249059
414.989 31.03463546819016
421.025 31.055662008956403
427.149 31.07729558231169
433.362 31.099440495946496
439.665 31.122961896407645
446.06 31.147300022737213
452.548 31.171865785071574
459.131 31.197849223740306
465.809 31.224866800096322
472.584 31.252219907773252
479.458 31.28035876141024
486.432 31.309851833120803
493.507 31.340589899476626
500.686 31.372491753309617
507.968 31.40489911012014
515.357 31.437866771424865
522.853 31.47166984686612
530.458 31.50677777294227
538.174 31.5420405198509
546.002 31.57737972020979
553.943 31.613423641867556
562.001 31.650202777766452
570.175 31.687250877724182
578.469 31.724882786418405
586.883 31.761565819821016
595.419 31.797062838618388
604.08 31.83225267247782
612.866 31.866744274249015
621.78 31.89977015824458
630.824 31.931544772111764
640.0 31.96054877588155
649.309 31.98668771040147
658.753 32.010932275904324
668.335 32.03252932678798
678.056 32.051363454573575
687.919 32.067321643092484
697.925 32.0813073342986
708.077 32.093152487559095
718.376 32.10401795574137
728.825 32.11454197564461
739.426 32.12559772668702
750.181 32.13778090301743
761.093 32.15168198451798
772.163 32.16681686167608
783.394 32.18379776626395
794.789 32.20294101910841
806.349 32.22236263316037
818.078 32.243165311345436
829.977 32.26405587762001
842.05 32.284909721500796
854.298 32.304880220700554
866.724 32.32376561834998
879.33 32.34183293211514
892.12 32.358781424498915
905.097 32.37442974998103
918.262 32.388693549379084
931.618 32.40176475615887
945.169 32.41364922602918
958.917 32.42474574840483
972.864 32.43540427062001
987.015 32.44530506747763
1001.37 32.45519679524031
1015.94 32.4649973826881
1030.71 32.47483975044253
1045.71 32.48390643426542
1060.92 32.4924515454025
1076.35 32.49883349024495
1092.0 32.501111712842714
1107.89 32.49638798489177
1124.0 32.48288220381107
1140.35 32.4578154552638
1156.94 32.42102849500996
1173.77 32.37672048479561
1190.84 32.33005089177094
1208.16 32.28649761087429
1225.73 32.2486788815429
1243.56 32.21808754626542
1261.65 32.19365713463583
1280.0 32.17300920613988
1298.62 32.152857333164846
1317.51 32.12982220327923
1336.67 32.100324104613804
1356.11 32.06270266665244
1375.84 32.013890410531914
1395.85 31.954121848176626
1416.15 31.885450382524823
1436.75 31.81039238313069
1457.65 31.731648699066255
1478.85 31.652666157982623
1500.36 31.57697185616719
1522.19 31.506719531938003
1544.33 31.443883303350404
1566.79 31.3892480316689
1589.58 31.344768168726503
1612.7 31.31037665481196
1636.16 31.28558092578922
1659.95 31.268818081412675
1684.1 31.258840907830233
1708.6 31.253571469217192
1733.45 31.251878683879
1758.66 31.253699732398616
1784.24 31.26192184078303
1810.19 31.278915869162006
1836.52 31.31138503966423
1863.24 31.363238893104835
1890.34 31.438312373153195
1917.83 31.537493704002443
1945.73 31.65741336303236
1974.03 31.79229473054876
2002.74 31.933867797625624
2031.87 32.071991712213276
2061.43 32.198030735355616
2091.41 32.30688353946351
2121.83 32.395515976716155
2152.69 32.46519669307793
2184.01 32.52284512958509
2215.77 32.5757091324724
2248.0 32.63034455600352
2280.7 32.68832263533788
2313.87 32.74819328320311
2347.53 32.80472007119654
2381.68 32.85166304025476
2416.32 32.886669368099305
2451.46 32.910050942583254
2487.12 32.926527598373994
2523.3 32.94105630181211
2560.0 32.95879524907264
2597.24 32.980576656029996
2635.01 33.00682441343629
2673.34 33.03739366397107
2712.23 33.07306389959514
2751.68 33.11516368132919
2791.7 33.16445416577535
2832.31 33.22046529590129
2873.5 33.28186322687799
2915.3 33.34896363126239
2957.7 33.42030984884836
3000.72 33.493951659881986
3044.37 33.5640423079102
3088.65 33.62519828845274
3133.58 33.67386273119337
3179.16 33.70775665466674
3225.4 33.725921787960814
3272.31 33.724078322005454
3319.91 33.69855463884835
3368.2 33.647152992697514
3417.19 33.572285196714674
3466.89 33.48190646879641
3517.32 33.387030235802655
3568.48 33.29701795812191
3620.39 33.215580568099696
3673.05 33.14183403542492
3726.47 33.07299668780706
3780.67 33.00765354987139
3835.67 32.94911280129372
3891.46 32.90027660130315
3948.06 32.86002547367106
4005.49 32.81916715776761
4063.75 32.76824457843465
4122.86 32.70716235620009
4182.82 32.64417598104596
4243.66 32.5815682150328
4305.39 32.512709137594996
4368.01 32.438063135817444
4431.55 32.38518795082551
4496.01 32.37363413943841
4561.4 32.366184495785774
4627.75 32.308730741651004
4695.06 32.23380503068235
4763.35 32.24699860984944
4832.64 32.33126323570896
4902.93 32.353338357610426
4974.24 32.287172341004194
5046.6 32.32464054643779
5120.0 32.55688134401882
5194.47 32.82579292309488
5270.03 33.00654726619655
5346.68 33.093704353264
5424.45 33.14228348710955
5503.35 33.18541928107541
5583.4 33.21937487832513
5664.61 33.237819092861244
5747.01 33.22826112457504
5830.6 33.189708438311726
5915.41 33.15051509676867
6001.45 33.12685333601479
6088.74 33.105123796474615
6177.3 33.07517567365264
6267.15 33.05463907848795
6358.31 33.071687633738975
6450.8 33.11854184684556
6544.62 33.170063888694045
6639.82 33.221960081752385
6736.4 33.26314711651986
6834.38 33.28631303680501
6933.79 33.29852657316398
7034.64 33.30180273550549
7136.96 33.31288461264772
7240.77 33.35222600752249
7346.09 33.41154984309274
7452.94 33.46524986311101
7561.35 33.496641561904966
7671.33 33.501798887038746
7782.91 33.50613861371322
7896.12 33.53693270155661
8010.97 33.595085183580906
8127.49 33.67012544125615
8245.71 33.73475873649345
8365.65 33.771809292018176
8487.33 33.79538519572263
8610.78 33.83018460851339
8736.03 33.87595072044434
8863.09 33.91953201221298
8992.01 33.96000674430016
9122.8 34.02034385217705
9255.5 34.09839210450751
9390.12 34.186592152182754
9526.7 34.29148910760314
9665.27 34.38065828529366
9805.86 34.449309012920324
9948.49 34.49868579378207
10093.2 34.546650624052575
10240.0 34.602088153801915
10388.9 34.652155342030696
10540.1 34.691821439188686
10693.4 34.72804873478867
10848.9 34.77323371391137
11006.7 34.81420999417426
11166.8 34.8468754314202
11329.2 34.884549101745336
11494.0 34.943893233878725
11661.2 35.001044639242494
11830.8 35.04319405019494
12002.9 35.07959821521746
12177.5 35.10966292043352
12354.6 35.13591959118423
12534.3 35.153287696952376
12716.6 35.16841734720262
12901.6 35.197978967025804
13089.2 35.25785992793837
13279.6 35.327956695202175
13472.8 35.37609607588061
13668.8 35.424771624803455
13867.6 35.497466515217866
14069.3 35.574694482489875
14273.9 35.63122171294076
14481.5 35.65833697807328
14692.2 35.68284506011578
14905.9 35.727725806544925
15122.7 35.78104037291237
15342.7 35.843101160295234
15565.8 35.90750112227093
15792.2 35.955404720378695
16021.9 35.96956747236136
16255.0 35.926319339706225
16491.4 35.84086118219409
16731.3 35.87716061349302
16974.7 36.10260027870501
17221.6 36.28701329132183
17472.1 36.3726705807147
17726.2 36.38272406348608
17984.0 36.35863975435706
18245.6 36.32994323193151
18511.0 36.31150103904092
18780.2 36.268655218218996
19053.4 36.23420175484932
19330.5 36.20206132265267
19611.7 36.157706586392976
19897.0 36.136929403527105
