Freq "Estimated In-Room Response"
22.4 61.65083179470891
23.0 61.841226053086984
23.6 62.04061359190145
24.0 62.19629117678342
25.0 62.344191108641084
25.8 62.506038990647895
26.5 62.63662451683797
27.2 62.741503580921815
28.0 62.850831794708895
29.0 62.953306613871135
30.0 63.0508317947089
30.7 63.140947506337895
31.5 63.21833648491473
32.5 63.28751765204139
33.5 63.342032660689654
34.5 63.39679651095089
35.5 63.451133742484274
36.5 63.507237562218464
37.5 63.542998938964146
38.7 63.59766928878159
40.0 63.61927990926263
41.2 63.652310266621114
42.5 63.685576478895314
43.7 63.71073277749247
45.0 63.73797488114681
46.2 63.751524076753796
47.5 63.781759809414496
48.7 63.78803420866545
50.0 63.808117961789506
51.5 63.82036884152238
53.0 63.82112529447859
54.5 63.83205127722738
56.0 63.845240515523116
58.0 63.84824393799555
60.0 63.84297206361222
61.5 63.84229205477483
63.0 63.84061359190143
65.0 63.83871998728992
67.0 63.83342269253113
69.0 63.832146079538106
71.0 63.824304645739105
73.0 63.813327083907566
75.0 63.809284616947366
77.5 63.78788815147587
80.0 63.77244394448415
82.5 63.754067051697476
85.0 63.753110958231375
87.5 63.751556204179536
90.0 63.74351690037251
92.5 63.73914985772238
95.0 63.7387368201273
97.5 63.73767185146093
100.0 63.7387368201273
103.0 63.73933421305193
106.0 63.75079666990034
109.0 63.752528810398715
112.0 63.795442534883904
115.0 63.80833218969569
118.0 63.82844794840112
122.0 63.83795857013999
125.0 63.88751765204138
128.0 63.92115877648152
132.0 63.96215132576525
136.0 64.00967977062518
140.0 64.04080011510565
145.0 64.11474600676816
150.0 64.15173997219532
155.0 64.20823544951283
160.0 64.26620183204575
165.0 64.31873049752701
170.0 64.38551964004746
175.0 64.4398249361537
180.0 64.50011254292845
185.0 64.55216992086035
190.0 64.60480893670935
195.0 64.63885114388901
200.0 64.67886965472768
206.0 64.72092044751976
212.0 64.75271967993015
218.0 64.77950609064399
224.0 64.7885463359143
230.0 64.78567349204776
236.0 64.78102361248527
240.0 64.76951130747983
250.0 64.74593183126528
258.0 64.70562534842998
265.0 64.6494588796821
272.0 64.59205237906012
280.0 64.51784964674026
290.0 64.44406533979239
300.0 64.36606478766622
307.0 64.29093617585889
315.0 64.19944237993917
325.0 64.09796102152518
335.0 64.02584145633267
345.0 63.9231804982315
355.0 63.80250334328791
365.0 63.71241546650553
375.0 63.62153930019517
387.0 63.519996231684146
400.0 63.4350657582866
412.0 63.338516639138575
425.0 63.25215745516941
437.0 63.16454980884677
450.0 63.06797538497398
462.0 62.98959439116777
475.0 62.91322412056981
487.0 62.824165318911454
500.0 62.75491274549064
515.0 62.67097538593134
530.0 62.62868662976349
545.0 62.53217438304034
560.0 62.49240373339835
580.0 62.42760720364734
600.0 62.3703533844802
615.0 62.33399437967422
630.0 62.293141962920245
650.0 62.25073647434867
670.0 62.22313980938293
690.0 62.17741763261728
710.0 62.179002098505904
730.0 62.14321838137151
750.0 62.140717190674465
775.0 62.13892761189187
800.0 62.128580847333694
825.0 62.129007393900324
850.0 62.10478539758148
875.0 62.12360437086066
900.0 62.1204276341082
925.0 62.129179121903604
950.0 62.13621209033319
975.0 62.15332757186901
1000.0 62.15683110202738
1030.0 62.161767536979355
1060.0 62.155742222239596
1090.0 62.14180658164058
1120.0 62.142945464525795
1150.0 62.1383751147245
1180.0 62.134998636757544
1220.0 62.11999978802139
1250.0 62.11422711476344
1280.0 62.107303646269884
1320.0 62.08956946595492
1360.0 62.11662899582214
1400.0 62.09394838683612
1450.0 62.088933268495865
1500.0 62.095261865455
1550.0 62.09965148364596
1600.0 62.11504209072599
1650.0 62.11861208267882
1700.0 62.13694550004638
1750.0 62.15791488166856
1800.0 62.18352274896408
1850.0 62.18632080855217
1900.0 62.22279335149081
1950.0 62.25201685249239
2000.0 62.2878528066869
2060.0 62.32013245905584
2120.0 62.36143803803098
2180.0 62.38546041970433
2240.0 62.431424927076094
2300.0 62.474995633590055
2360.0 62.534247811058535
2400.0 62.582524000093514
2500.0 62.62248133666414
2580.0 62.68536887096515
2650.0 62.731117074946184
2720.0 62.80630030487188
2800.0 62.857925804146376
2900.0 62.917630130528366
3000.0 62.980197805521655
3070.0 63.04394554659093
3150.0 63.096788818390806
3250.0 63.15347635623611
3350.0 63.21274019040719
3450.0 63.26934704919675
3550.0 63.31871135372877
3650.0 63.369350423024486
3750.0 63.409664338236794
3870.0 63.428696645766976
4000.0 63.44809983351688
4120.0 63.462470117018896
4250.0 63.468602788911966
4370.0 63.433850503626815
4500.0 63.42683450689215
4620.0 63.395856170421766
4750.0 63.35710733475622
4870.0 63.3099081994134
5000.0 63.25291692411324
5150.0 63.1891563712101
5300.0 63.14923216526179
5450.0 63.08193761958783
5600.0 63.005585768440085
5800.0 62.946228778959
6000.0 62.876311910395
6150.0 62.806808103155745
6300.0 62.74476664179319
6500.0 62.684656347104365
6700.0 62.622500337825414
6900.0 62.56336529717443
7100.0 62.51575099606238
7300.0 62.447741525880915
7500.0 62.42013524245972
7750.0 62.359652775106056
8000.0 62.33151748918549
8250.0 62.30034432330598
8500.0 62.24762145837086
8750.0 62.23269883834965
9000.0 62.21358496649714
9250.0 62.17219261351913
9500.0 62.13582042188561
9750.0 62.12157391551696
10000.0 62.08089238223178
10300.0 62.03736127843894
10600.0 62.02240781588
10900.0 61.97496344024165
11200.0 61.93702756808439
11500.0 61.90568369952024
11800.0 61.84127217093409
12200.0 61.785678880378654
12500.0 61.74379296858355
12800.0 61.67039910904953
13200.0 61.602734151997936
13600.0 61.51190837181814
14000.0 61.41947420267347
14500.0 61.32247976442804
15000.0 61.22196986500133
15500.0 61.090406887779
16000.0 60.94327131986073
16500.0 60.81243292511493
17000.0 60.635317721858726
17500.0 60.45227591818342
18000.0 60.252275918183415
18500.0 60.0522759181834
19000.0 59.83535308147735
19500.0 59.62106977888212
