Freq "On Axis"
22.4 42.197468354430384
23.0 42.59746835443039
23.6 42.89746835443037
24.0 43.197468354430384
25.0 43.497468354430396
25.8 43.79746835443038
26.5 43.997468354430396
27.2 44.29746835443038
28.0 44.59746835443039
29.0 44.79746835443038
30.0 44.997468354430396
30.7 45.29746835443038
31.5 45.59746835443039
32.5 45.997468354430396
33.5 46.197468354430384
34.5 46.59746835443039
35.5 46.997468354430396
36.5 47.39746835443037
37.5 47.89746835443037
38.7 48.497468354430396
40.0 48.997468354430396
41.2 49.697468354430384
42.5 50.29746835443038
43.7 50.997468354430396
45.0 51.89746835443039
46.2 52.497468354430396
47.5 53.09746835443039
48.7 53.79746835443038
50.0 54.497468354430396
51.5 55.197468354430384
53.0 55.8974683544304
54.5 56.497468354430396
56.0 57.29746835443038
58.0 57.997468354430396
60.0 58.59746835443039
61.5 59.09746835443039
63.0 59.697468354430384
65.0 60.39746835443039
67.0 60.8974683544304
69.0 61.59746835443039
71.0 62.197468354430384
73.0 62.697468354430384
75.0 63.197468354430384
77.5 63.79746835443038
80.0 64.19746835443038
82.5 64.7974683544304
85.0 65.19746835443038
87.5 65.59746835443039
90.0 65.99746835443037
92.5 66.29746835443038
95.0 66.69746835443038
97.5 67.09746835443039
100.0 67.39746835443037
103.0 67.69746835443038
106.0 67.99746835443038
109.0 68.29746835443039
112.0 68.59746835443039
115.0 68.79746835443038
118.0 69.09746835443039
122.0 69.29746835443039
125.0 69.4974683544304
128.0 69.59746835443039
132.0 69.69746835443038
136.0 69.69746835443038
140.0 69.69746835443038
145.0 69.69746835443038
150.0 69.69746835443038
155.0 69.69746835443038
160.0 69.69746835443038
165.0 69.7974683544304
170.0 69.7974683544304
175.0 69.7974683544304
180.0 69.7974683544304
185.0 69.7974683544304
190.0 69.69746835443038
195.0 69.59746835443039
200.0 69.59746835443039
206.0 69.69746835443038
212.0 69.89746835443037
218.0 70.09746835443039
224.0 70.29746835443039
230.0 70.39746835443039
236.0 70.29746835443039
240.0 69.99746835443038
250.0 69.7974683544304
258.0 69.59746835443039
265.0 69.59746835443039
272.0 69.59746835443039
280.0 69.69746835443038
290.0 69.7974683544304
300.0 69.89746835443037
307.0 69.89746835443037
315.0 69.7974683544304
325.0 69.59746835443039
335.0 69.4974683544304
345.0 69.39746835443039
355.0 69.39746835443039
365.0 69.4974683544304
375.0 69.89746835443037
387.0 70.19746835443038
400.0 70.39746835443039
412.0 70.39746835443039
425.0 70.29746835443039
437.0 70.19746835443038
450.0 70.09746835443039
462.0 69.99746835443038
475.0 69.99746835443038
487.0 69.89746835443037
500.0 69.89746835443037
515.0 69.89746835443037
530.0 69.89746835443037
545.0 69.89746835443037
560.0 69.99746835443038
580.0 70.29746835443039
600.0 70.8974683544304
615.0 71.29746835443038
630.0 71.79746835443039
650.0 72.19746835443038
670.0 72.59746835443039
690.0 72.99746835443038
710.0 73.3974683544304
730.0 73.79746835443038
750.0 73.99746835443038
775.0 74.19746835443038
800.0 74.4974683544304
825.0 74.7974683544304
850.0 75.19746835443038
875.0 75.79746835443039
900.0 76.19746835443038
925.0 76.59746835443039
950.0 76.89746835443039
975.0 77.09746835443039
1000.0 77.19746835443038
1030.0 77.19746835443038
1060.0 77.09746835443039
1090.0 76.79746835443039
1120.0 76.39746835443039
1150.0 75.99746835443037
1180.0 75.8974683544304
1220.0 75.8974683544304
1250.0 76.09746835443039
1280.0 76.09746835443039
1320.0 75.59746835443039
1360.0 75.19746835443038
1400.0 75.09746835443039
1450.0 75.39746835443039
1500.0 75.8974683544304
1550.0 76.39746835443039
1600.0 76.69746835443038
1650.0 76.79746835443039
1700.0 76.79746835443039
1750.0 76.79746835443039
1800.0 76.89746835443039
1850.0 76.89746835443039
1900.0 76.9974683544304
1950.0 77.2974683544304
2000.0 77.39746835443037
2060.0 77.59746835443039
2120.0 77.79746835443039
2180.0 77.99746835443038
2240.0 78.09746835443039
2300.0 78.19746835443038
2360.0 78.29746835443039
2400.0 78.29746835443039
2500.0 78.29746835443039
2580.0 78.3974683544304
2650.0 78.59746835443039
2720.0 78.59746835443039
2800.0 78.49746835443037
2900.0 78.3974683544304
3000.0 77.99746835443038
3070.0 77.69746835443038
3150.0 77.59746835443039
3250.0 77.2974683544304
3350.0 77.09746835443039
3450.0 76.89746835443039
3550.0 76.39746835443039
3650.0 75.99746835443037
3750.0 75.49746835443038
3870.0 74.99746835443038
4000.0 74.99746835443038
4120.0 75.29746835443039
4250.0 75.59746835443039
4370.0 75.59746835443039
4500.0 75.59746835443039
4620.0 75.29746835443039
4750.0 75.29746835443039
4870.0 75.39746835443039
5000.0 75.39746835443039
5150.0 75.09746835443039
5300.0 74.69746835443038
5450.0 74.29746835443039
5600.0 73.79746835443038
5800.0 73.3974683544304
6000.0 73.09746835443039
6150.0 72.99746835443038
6300.0 72.99746835443038
6500.0 73.09746835443039
6700.0 73.29746835443039
6900.0 73.3974683544304
7100.0 73.19746835443038
7300.0 72.99746835443038
7500.0 72.69746835443038
7750.0 72.19746835443038
8000.0 71.89746835443039
8250.0 71.69746835443038
8500.0 71.29746835443038
8750.0 70.99746835443037
9000.0 70.99746835443037
9250.0 70.69746835443038
9500.0 70.59746835443039
9750.0 70.59746835443039
10000.0 70.59746835443039
10300.0 70.39746835443039
10600.0 69.99746835443038
10900.0 69.39746835443039
11200.0 68.29746835443039
11500.0 67.19746835443038
11800.0 66.19746835443038
12200.0 65.39746835443039
12500.0 65.09746835443039
12800.0 64.7974683544304
13200.0 64.59746835443039
13600.0 64.39746835443039
14000.0 64.19746835443038
14500.0 64.29746835443039
15000.0 64.59746835443039
15500.0 65.09746835443039
16000.0 65.79746835443039
16500.0 66.19746835443038
17000.0 66.19746835443038
17500.0 65.79746835443039
18000.0 64.59746835443039
18500.0 63.09746835443039
19000.0 61.09746835443039
19500.0 58.59746835443039
