Freq "Sound Power"
20.5078 53.74949692433853
21.9727 50.1959035862327
23.4375 51.52993385178766
24.9023 53.846682591144486
26.3672 54.84146445522251
27.832 56.97442596286123
29.2969 58.91187133779252
30.7617 60.92345434989565
32.2266 62.61499264380464
33.6914 63.99217519314334
35.1562 65.84916473812447
36.6211 67.43344727751037
38.0859 69.11408025261989
39.5508 70.76481361303976
41.0156 72.27243791222912
42.4805 73.55933220934098
43.9453 75.18978559081063
45.4102 76.17998757132315
46.875 76.90505369585694
48.3398 77.42088222439172
51.2695 78.11132511108718
52.7344 78.35470756075313
54.1992 78.4987630518465
55.6641 78.63208451976979
58.5938 78.91292142937303
60.0586 79.06575252868342
62.9883 79.35442212609072
64.4531 79.49888879659926
67.3828 79.78386302248904
68.8477 80.07291808279228
71.7773 80.37195089931886
74.707 80.65532479397041
77.6367 80.97144062768882
79.1016 81.11222438294513
82.0312 81.39532190229829
84.9609 81.66833048736429
87.8906 81.88574739855926
90.8203 82.19192747898367
95.2148 82.65135780951294
98.1445 82.87520131624787
101.074 83.04181358218298
105.469 83.28871140360687
108.398 83.45608177510738
112.793 83.6363079426644
117.188 83.72393216165207
120.117 83.86080748923278
124.512 84.17954721043506
128.906 84.22785193386994
133.301 84.22110018596662
139.16 84.24437297994801
143.555 84.2420892091056
147.949 84.52709924146407
153.809 84.74616863773377
159.668 84.60868489103065
165.527 84.43336675942119
171.387 84.46279456673517
177.246 84.52177631027814
183.105 84.27943819032217
188.965 84.29711759655882
196.289 84.1550452600646
203.613 84.10501193176407
210.938 83.9148135842072
218.262 83.9391732908109
225.586 83.55824487802971
232.91 83.21894998234396
241.699 82.86605200806603
250.488 83.15131144585135
259.277 83.69885207910956
268.066 83.58271104848052
276.855 83.66403548942142
287.109 83.40227573915851
297.363 83.25648859870212
307.617 83.13492559423014
319.336 82.4644828711202
329.59 82.98472376098502
341.309 82.73278610120657
353.027 82.47835176506709
366.211 82.09696701147207
379.395 82.3791195919617
392.578 82.42681808964383
405.762 82.10438112943109
420.41 82.52818209918041
435.059 81.61187475624224
451.172 81.2395610461781
465.82 81.14377083440306
483.398 81.6798961227954
499.512 81.61387866556649
517.09 80.80109060179234
536.133 80.57729320617966
555.176 80.06875550145536
574.219 79.97673637917693
594.727 80.18975237434515
615.234 80.5775132519632
637.207 80.8836309149865
659.18 81.74251018563129
682.617 81.73159206179712
707.52 81.17923433914748
732.422 81.44952343348614
757.324 81.47842407776028
785.156 83.24031366080716
811.523 82.80574823392128
840.82 83.04545031218157
870.117 82.58115001867316
900.879 82.47421022329095
933.105 82.19398790395786
965.332 82.50041843760805
1000.49 82.50387321215867
1035.64 82.32404580598404
1072.27 82.13945413749502
1108.89 81.89096641738004
1148.44 81.63143461822304
1189.45 81.35308829536976
1230.47 82.0279666602826
1274.41 81.71466933426201
1319.82 81.67023530351132
1366.7 81.49094309086401
1413.57 81.3941226544037
1463.38 80.95628621029678
1516.11 80.16319548410634
1568.85 79.57930616184889
1624.51 78.85624107904475
1681.64 79.13492011090476
1741.7 79.01271597884846
1803.22 78.63654904788591
1866.21 78.7641532398691
1932.13 78.7623309022095
1999.51 78.82370501535416
2069.82 78.410433587877
2143.07 77.69280282165035
2219.24 77.83858481235075
2296.88 78.37252559373674
2378.91 78.22447549987245
2462.4 77.74218776002014
2548.83 77.81417130800614
2639.65 78.21428221412089
2731.93 78.33896001958905
2828.61 78.00474381971114
2928.22 77.95302817318743
3030.76 78.13411364572929
3137.7 78.48105317569946
3249.02 78.46524082393985
3363.28 78.5883648650007
3481.93 78.56158381619537
3604.98 78.8007877616635
3732.42 78.95295439891163
3864.26 79.35058848220345
4000.49 80.03275558065525
4141.11 80.31100039314993
4287.6 81.02443143799391
4438.48 81.49187683433874
4595.21 81.62867837426342
4756.35 81.90873308815605
4924.8 82.0140295241194
5097.66 81.60770948779845
5277.83 81.65278941031002
5463.87 81.37804001115458
5657.23 81.54375552588881
5856.45 81.66872561150387
6062.99 81.71404451980911
6276.86 81.95956202240177
6498.05 82.11844980685287
6726.56 82.04892698195903
6963.87 81.8889379040736
7209.96 81.90225998412929
7464.84 81.95765062313566
7727.05 81.9053147675522
7999.51 82.04954226286654
8282.23 81.81702811863686
8573.73 81.80147370266683
8876.95 81.78590128445563
9188.96 81.57685766325321
9514.16 81.40428350042376
9849.61 81.34857293978357
10196.8 81.3208602943997
10555.7 81.22796919395529
10927.7 81.00214199106746
11313.0 80.84845885023785
11712.9 80.79877213297827
12126.0 80.57112566389479
12553.7 80.153789816905
12996.1 79.95309269918832
13454.6 79.88214213867025
13929.2 79.70487835573748
14419.9 79.69668688645612
14928.2 79.5994972236715
15455.6 79.41681866096246
16000.5 79.23779389747074
16564.5 79.14170508220855
17148.9 78.81190255532499
17752.4 78.43642042628673
18379.4 77.98621491238093
19026.9 77.6495553832909
19697.8 77.49988728479138
19999.5 77.35370382902532
