Freq,Floor Bounce,Ceiling Bounce,Front Wall Bounce,Side Wall Bounce,Rear Wall Bounce,Total Early Reflection
20.5078,59.458257867412456,61.19081159571435,59.49146454385969,61.41028354721463,68.24347380737846,63.481006207474934
21.9727,61.3228798431133,62.02172323868841,61.17079859969722,62.298601768908995,68.56931709930996,64.19936170795685
23.4375,62.86507660048957,63.79804019684447,62.77272034219453,63.995892636668,69.90707987728814,65.68749200804763
24.9023,65.03217450411358,65.37641048557676,64.92941523263495,65.58217573230938,70.48743473857151,66.91070059968982
26.3672,65.48020576397167,65.9164858354856,65.30426041950362,66.23629246462752,71.35550676489157,67.58848862916317
27.832,66.59030346895653,67.02006504746846,66.44220796749146,67.29762953069925,71.69005317287616,68.341432755058
29.2969,67.48150941969325,68.06305015878003,67.41337804110555,68.26505353893441,72.26995307423168,69.14720911331254
30.7617,68.77084413446643,69.18637702388365,68.6656678488552,69.43655156613484,72.93912583411566,70.14011933246182
32.2266,69.7482006637075,70.09940768227875,69.63224534656275,70.36697047662602,73.49750123532063,70.94207953119216
33.6914,70.80968202352818,71.06454969539183,70.68380867157627,71.34174836804368,74.08256527119507,71.80432148567833
35.1562,71.81286011481093,72.00471013017332,71.67346443726575,72.28358634885498,74.75701408658169,72.67491197206698
36.6211,72.63077490626684,72.7607053561221,72.48072377475738,73.05215484746391,75.28370039723087,73.37916661317958
38.0859,73.52858584057405,73.57682314359933,73.3591416598956,73.89040410251067,75.88094387717773,74.15713188254524
39.5508,74.28149932072121,74.27730628686801,74.10353509836787,74.5991373258485,76.3913496123592,74.8201616128939
41.0156,75.08207165193237,75.0324732275469,74.89670109702399,75.36065556379152,76.9779851207606,75.54348490235749
42.4805,75.83554324322934,75.75472610927622,75.64537275896525,76.08525765707687,77.5542432310249,76.236338297017
43.9453,76.58989199158667,76.45816017395641,76.38948304681132,76.79963759544059,78.1163436457259,76.9206488273289
45.4102,77.28148632382752,77.11753472417591,77.07569128492354,77.4612714326287,78.65488833677644,77.55978633750462
46.875,77.97206936450603,77.78747710660924,77.7648257098078,78.13207080925689,79.21884808134608,78.21022930622085
48.3398,78.60358732158944,78.3864831677413,78.385366944971,78.74153425420135,79.75653532106061,78.80600504081312
51.2695,79.91900128137188,79.64831761320545,79.69186216040806,80.00969118850686,80.83645125644365,80.04310644510151
52.7344,80.48223263970297,80.19027494001398,80.25105604078489,80.55301815126377,81.30328114651631,80.57477250519283
54.1992,81.03264200577037,80.72987691870709,80.80193497009095,81.09048429113776,81.77563016639058,81.1023629989158
55.6641,81.60349395773227,81.27987184989794,81.37221042660674,81.63804470207678,82.23070705251533,81.63783047607107
58.5938,82.6493216522602,82.31359658458997,82.42840558197534,82.6539224351591,83.09890423505094,82.63726741113037
60.0586,83.11286376922607,82.7603472643337,82.89330379320903,83.09456584190492,83.45690277794209,83.07007008945548
62.9883,83.89628584535035,83.52880512639611,83.67763627485452,83.85580208422307,84.1139713202423,83.81907112193859
64.4531,84.21701907384694,83.82907019913566,83.99377195649548,84.16145370500996,84.37856456747173,84.12007383676912
67.3828,84.74390946902855,84.30537662539794,84.50674798601617,84.65203269827323,84.77922537587772,84.60090608818358
68.8477,84.94309215140812,84.48661835018264,84.70371348882107,84.83539277021612,84.91687710288309,84.78033711832785
71.7773,85.20699647666748,84.69995169356841,84.95658904271262,85.06273100354967,85.04717097459695,84.99790158068284
74.707,85.27325477322552,84.74118451583169,85.00790424288256,85.12016257833928,85.11296511148076,85.05465048240852
77.6367,85.31943124855194,84.76004169206583,85.05910443968712,85.12995131075239,85.01120442759809,85.05972046620539
79.1016,85.2955768220223,84.724046145677,85.03817320806424,85.0873634752926,84.9120264734429,85.01557182888793
82.0312,85.19520617838778,84.59093580957274,84.9333324765421,84.95565952125453,84.71167583220573,84.88242977666938
84.9609,85.00660359699695,84.36985735143028,84.7441782078056,84.73131118677135,84.40942106146115,84.65871161893136
87.8906,84.83435004342478,84.18329275928248,84.57922559309188,84.53133507754954,84.12071183104673,84.45786133363602
90.8203,84.78725397838708,84.06643200761192,84.50690372743155,84.44147686051278,83.99701215784317,84.36969741698908
95.2148,84.43781987814317,83.71391271383997,84.15106241075601,84.09088154184599,83.74087274605787,84.03541373841952
98.1445,84.2520668767415,83.54584166501361,83.99604687799633,83.8719626942863,83.37033369305702,83.81867466985118
101.074,84.0242991923182,83.30289778147451,83.76581604989869,83.62014268876305,83.11176514848003,83.57713400668639
105.469,83.8084778952518,83.02569850656111,83.549559213289,83.33585163721628,82.67618268757138,83.29708023296666
108.398,83.59622089380491,82.75490109819555,83.32057135039263,83.07591880850626,82.42207382217171,83.05345702338785
112.793,83.3252668327531,82.36393129333014,83.02052976503315,82.71050362576983,81.90478279398398,82.69312126106865
117.188,82.91466482458996,81.89101534030924,82.61718324299339,82.24681480210494,81.30810536593825,82.23133738961731
120.117,82.85977289097575,81.76960936578745,82.58525629424437,82.12752055443889,81.00914488912422,82.11766787595202
124.512,82.86677973681746,81.89519723065598,82.6172946639903,82.19679512905137,81.18951762631474,82.19191159183032
128.906,82.46431053166957,81.6425193255473,82.27705697405476,81.81827504782935,80.88469575025293,81.85177512067436
133.301,82.3096073413109,81.52187519331325,82.16508400979454,81.60056439332449,80.4461823958491,81.6564789705333
139.16,82.28597580483799,81.25953451610013,82.07134778101376,81.43832324992378,80.1398080106754,81.50185260182202
143.555,82.26792376610818,81.12415745486071,82.06756694224681,81.32909897132514,79.71959776829424,81.39024301785055
147.949,82.603893493999,81.50437847122544,82.41121719507514,81.68501107706497,79.97476826589454,81.72941931851268
153.809,82.72355332789083,81.74142146981534,82.5227844419263,81.94004049672604,80.43843756887821,81.94376550350786
159.668,82.09766697103188,81.0302614051844,81.85992131787697,81.29427128735989,80.19833779216994,81.34634053114627
165.527,81.99660662402634,80.77067390073854,81.79202540030367,80.9477062991744,79.4466178261524,81.08079978698449
171.387,82.31833836802305,81.0320348452685,82.09313679750228,81.18626845820626,79.23839168408237,81.30087230702654
177.246,82.08251559328102,81.02186158073103,81.91004607532382,81.08610342727304,79.30499803177862,81.18544338125201
183.105,81.66605227549876,80.76998760723443,81.61638356458788,80.6869983428734,78.78520511364543,80.82057047256488
188.965,81.87050700340983,80.7544112621983,81.71592142452509,80.82317966341645,78.85062900298566,80.92633367442919
196.289,81.81719586836981,80.64324785155203,81.60350806966106,80.69634395400217,78.84947790661143,80.84003725349744
203.613,81.47151467304688,80.33059972299915,81.29760187324577,80.38016216343088,78.70004625594656,80.54108474684047
210.938,81.28700207435064,79.9523562814334,81.12536377966717,79.9839335075537,78.23558937286624,80.24670654904276
218.262,81.39581358699735,80.35180320273258,81.32487610804797,80.20076516465228,77.92911286023438,80.40459801098268
225.586,81.04453298724088,79.62917903214195,80.8100113438394,79.56225759341609,78.03302472105584,79.94316447595521
232.91,81.06078522171036,79.40498537319856,80.88066089218445,79.23733016690227,77.104844123683,79.75506618809408
241.699,81.22695150513881,79.72761647251406,81.29094631584518,79.31650988793685,75.0786305746709,79.81203143577453
250.488,83.18421236861707,81.68030431772023,83.1729593300477,81.80178447541313,75.67255636837051,81.7689173698672
259.277,82.11137483977548,80.55420672343281,81.81980939255385,80.85739907260914,78.11787574538259,80.89850875413921
268.066,82.28568834348486,80.43065366538853,82.03728715946387,80.79571065762052,77.54654051619116,80.90958712849232
276.855,82.17240636870186,80.40847262281278,81.89473597767594,80.75231479356508,78.36726408054231,80.91343830427566
287.109,81.65470991787753,80.04344481674356,81.59875722652082,80.22639647800433,77.69860636075556,80.46183736307087
297.363,81.67923112719596,79.77498341967636,81.44523545429725,80.09170392898169,76.70658107888634,80.25812064209335
307.617,81.55339050635374,79.55602332898862,81.3683764253079,80.00241838814102,77.23776297681403,80.19793129359525
319.336,82.07588111056829,80.38473851584554,82.34161527664902,80.24576043930962,74.76438204437427,80.62792776620202
329.59,81.67933672579612,80.68974776768434,81.89401589974425,80.8361159092011,76.4758052577803,80.67993178068654
341.309,81.2020944965598,79.51494622013142,81.05763302971577,79.94404714149991,77.1052538306359,79.9909926373163
353.027,80.73852669671923,79.32560836762589,80.69234923727065,79.12735592577894,77.31189456659475,79.61025929247998
366.211,81.14005616716896,79.43381355188683,81.31995412293757,79.03549557769169,75.28821108647455,79.70524032857735
379.395,82.41882252910848,78.73921696823614,82.33042213567727,78.95934778473536,75.99815459839667,80.32492296251873
392.578,83.70452146625992,80.05504231354338,83.38063949574276,81.11436438304477,77.06526288593436,81.66652023375744
405.762,82.96278873318126,79.46147511426317,82.77266698169494,80.6284296213074,76.59016373243875,81.04956241004182
420.41,82.89972133978948,79.72550454531896,83.19434343249276,81.11001702017094,74.99758790483203,81.19409234797769
435.059,81.5704308939591,79.73387018742449,81.78365213839827,80.2731043932516,76.60605992076334,80.33962101426854
451.172,80.79962829998387,78.13314222887703,80.85719838355836,79.25584205029791,76.38574973726712,79.39377346990408
465.82,82.20098104447676,79.4734739789276,82.47460978623367,80.36060497269416,77.11591857177503,80.72986268472744
483.398,82.3842878339713,80.55670046121692,82.82338348397082,81.86217612294845,76.78841394998659,81.33333033924092
499.512,82.2971880839195,81.11971289824267,82.81358242411113,82.16374035026861,78.1837853530163,81.58766674725443
517.09,80.73642456965308,80.16484969439772,81.714306513468,81.98727739977065,79.58637558514268,80.93203135904108
536.133,83.31733958712182,80.0895367449071,83.02692143589987,80.99174131099953,80.3721212578707,81.77306199374927
555.176,85.25899370382474,78.40936196872326,84.95659207518825,80.8783707079572,79.19777394917746,82.6652542298787
574.219,83.52475363684678,78.37395877148259,83.92756637428539,80.37693660730271,77.68870031984646,81.51525302851152
594.727,84.34226358611453,79.09914200782755,84.74697279694252,80.59915547054952,77.26984387389071,82.14582871654297
615.234,83.68502160980276,80.13608412759744,84.48909109573334,80.79372610156618,76.25445046454578,81.93233631277705
637.207,84.16668941153394,81.02669103984273,85.35072338612704,81.45729431925437,74.84222398437684,82.55695368759176
659.18,84.22472159701756,81.36111059279988,85.53712037680702,82.06029365816332,75.15983479607009,82.79990046734343
682.617,82.07877218068039,80.87124143036634,84.07137618647239,80.96678405084367,74.62488958628292,81.41697787084338
707.52,82.44526416517671,80.58805189428409,84.08449917543555,80.54769084485746,73.73395116141968,81.35636011890827
732.422,82.56259704738616,79.59549401029865,83.74675011486671,80.63798984350659,74.57589836490912,81.15930498075791
757.324,82.5550281046198,80.28475127388312,83.90172893154562,79.6935560342559,74.0733731925955,81.14727302403257
785.156,81.13870308705177,78.84387672155158,83.30486943479895,79.75576056346489,72.50788204008248,80.27748011391465
811.523,79.91446570735913,77.94676390494062,81.90554180903207,77.8743879841776,71.78313192631262,78.94127787001558
840.82,81.96910816911672,79.32760824673265,83.44625459277984,79.7822566422877,73.79105157015256,80.66840138357323
870.117,82.37471533271508,79.63222500028499,84.25866294037479,79.59149547012092,71.65945462908309,81.05122840156133
900.879,81.19694033813211,79.50620320489888,83.12420452973983,78.98705091441182,71.89860523620942,80.17850831642401
933.105,82.68505314343994,79.63902464528755,83.81562959604908,79.79251370638761,72.98434537914812,81.02815690447456
965.332,83.3986172685806,79.68718419449812,84.26813863586224,79.76965358266044,71.44705405403626,81.38448946369535
1000.49,83.50555500756971,79.36428061094624,85.16667817646295,80.74955533134614,71.43627538873272,81.88590744177374
1035.64,84.72669211222711,80.97231339519583,84.89997175270445,80.39253013871324,72.67477233856556,82.35039744968564
1072.27,85.85877410289743,80.62534817615177,85.56703677544415,80.54210445260806,72.38803291752373,82.97460594188996
1108.89,85.72873371957463,81.21397269731956,85.2016148806802,80.41328412021744,72.12496972003562,82.85017646399953
1148.44,85.56324901463701,80.62480791307006,85.27312327094272,79.38945477730668,72.79068038990901,82.63940899248784
1189.45,85.93420471934314,81.80140883772003,84.67607821273253,79.29510133599896,71.33858257336036,82.72145381817357
1230.47,86.20896012290315,82.83011515803435,84.58586083768199,79.71627721152238,71.21897059828532,83.02756861880502
1274.41,85.98484927468891,82.70901750953766,84.35957222858254,79.04281807209264,69.86194843426885,82.76964457353861
1319.82,86.78980123683048,83.59228333047336,84.54623685338235,79.26516518341151,71.52461287627108,83.38329726144255
1366.7,86.80363086904697,82.65821336497342,84.59218447949065,78.90905107704485,70.25791842874172,83.17954415017238
1413.57,87.29714515470053,82.64972986057802,84.4062321633591,79.2463301306822,72.11051091003385,83.41192628107954
1463.38,87.09664766766008,82.65475060329372,84.18610951749378,79.45936047131822,70.84711375663521,83.26081752450489
1516.11,86.86563723879691,83.98790337992467,83.90236856684658,78.91676076257609,71.82864818253026,83.32508849931857
1568.85,86.21114086531755,83.71733232659317,83.56411277729936,79.02932704572211,71.6731182429191,82.90111595065613
1624.51,85.99541192284522,83.30317085305215,83.72808523295139,78.97365666694799,71.64553164482643,82.74685218490183
1681.64,85.50207793236606,82.3633713390703,83.95939520824588,79.3742800493661,72.54419439993576,82.45858780953765
1741.7,85.01334252104233,81.18894147044826,84.23481574633136,79.90000474176915,71.33038334846194,82.175593400508
1803.22,84.22373875945067,79.64571481689741,83.77197328446975,79.93346349812914,70.70368690881058,81.49350550210148
1866.21,83.36036091601653,78.29695555046824,83.02575957213422,79.564452680079,70.00118581367121,80.68573903014523
1932.13,82.54234354740282,75.58826428853085,83.24225032251965,79.52419795905368,70.23541273591603,80.22784774455052
1999.51,81.98748022160635,73.69744321757669,83.38166698167878,79.3408290617645,67.6391023419885,79.92147181205351
2069.82,80.89628140104824,72.69490665785936,83.2646170793793,79.37942644304913,69.61763227204683,79.53686274118436
2143.07,79.4302567651272,72.4680703187562,82.52333787341998,78.48048160605508,68.05831450122157,78.58556329293607
2219.24,78.40723647858847,72.3381037417732,82.42602084553317,78.06393374826554,67.32443121720154,78.20447178458272
2296.88,77.14122996532457,71.90278655089931,83.43109866410967,78.4588034267391,67.12878132385934,78.60829833815656
2378.91,75.79170736549845,74.21284826079675,83.7226076986997,78.49638627086024,66.19899221504123,78.74918587191671
2462.4,74.62560911543484,75.43772551993486,83.01684953354938,77.93861677697173,66.89861945172274,78.21376424997842
2548.83,73.52265507076199,75.40289779020797,83.35997029490186,77.60725610306098,67.68566648624596,78.2927714548262
2639.65,73.73971224406047,76.983958826954,83.68771774699387,78.36495313456734,66.33284125630493,78.811307923243
2731.93,76.61314878959989,77.82829248189398,83.165961451063,78.80916760104316,67.09324787057494,78.97554954852899
2828.61,79.51701539154303,79.61720973311431,83.75713612228243,79.38079019685294,69.10254203485296,80.11494775183382
2928.22,80.9062612131902,79.5957423245966,84.25278205896915,79.51368528297228,69.41030892081623,80.63480335663773
3030.76,82.94846257457667,80.92052955984171,85.23834571312825,81.1246217693645,70.3796052920099,82.01572357275236
3137.7,84.54969803651433,81.415486166978,85.75981007031817,81.37677519463455,70.86734767595762,82.7866837917596
3249.02,84.9857957396063,81.97670766732081,84.59546700513022,80.22877415727575,71.38390852775322,82.45562395437646
3363.28,85.24147599391877,81.72961248666869,84.73457638387849,81.28821837908221,71.27034078995108,82.68877391012522
3481.93,85.94542228614715,81.38134065989799,84.04747067736682,81.96595184983873,71.24154358414222,82.81075354112139
3604.98,86.15527087607207,81.5333222092413,82.54423210898035,82.38130241714148,71.59402302746601,82.65787328553293
3732.42,86.10077530038107,81.57047919317951,82.48500730329552,82.08154631904874,69.6483382171529,82.54764771892165
3864.26,86.4312062239679,81.19926244010325,82.80493976679925,82.16901155280706,69.06921911331473,82.71878558158538
4000.49,86.63196238056263,81.71110166145239,84.546925110781,82.19737041492361,69.02322155351993,83.29397128526615
4141.11,86.96551614448785,81.69660358198128,85.14410613862287,81.88326257794064,68.52640890268363,83.55384072554062
4287.6,86.82610953147856,82.00706272972702,85.26870091397912,81.31379684304595,68.8614076478572,83.501292555138
4438.48,86.31916708859451,81.5843629624944,85.83009487118342,81.32720340467006,68.77804099254679,83.41875655002791
4595.21,86.26317426392066,81.02427155031064,84.91444491395033,80.75889082035835,70.07769584058714,82.96186388772206
4756.35,85.62004898904543,81.24509970566888,85.15275856513433,80.33755789604835,69.48885249874353,82.75302493209843
4924.8,84.35516565508381,81.31239186366487,84.88232042503783,81.15905339307774,69.78456266096961,82.33379266354747
5097.66,83.79980059227476,80.20293526898065,85.01415882653491,80.97179313894934,68.44049475508113,82.00837914636008
5277.83,82.58078477359153,78.68319857920132,84.33666513719564,81.0687052854045,66.76041823322944,81.199746005698
5463.87,81.69154796057113,78.30669219588079,84.11697949500977,79.55259001764381,63.291364788514215,80.53636839066233
5657.23,81.02632052805373,77.13707493247759,83.89169342353871,78.32894692438356,62.96690815221213,79.94252070682343
5856.45,79.74221147895211,76.23372371157744,83.25176719276085,77.03452394511733,63.1337920213757,79.03372374824077
6062.99,80.26742560021088,76.79030022089778,82.86499275485971,75.92843328062241,63.452715031806676,78.90869132701599
6276.86,79.71645610094068,77.4565576976331,82.82334481845866,76.22322503009782,63.85466864630699,78.86791718747195
6498.05,80.14086619991903,76.99184132948467,82.60529674871744,75.71818900139071,62.04649116166462,78.74394788461727
6726.56,79.20779535476856,77.2439748196033,82.91746232655753,75.56980295820172,59.31820688733795,78.68081824565719
6963.87,79.73930246458089,77.30039229818495,82.58510537488564,74.88142588590128,55.99337125844734,78.5781176618186
7209.96,80.37588014648674,77.17764418655736,82.82376393422157,75.02682336051205,55.28112592655795,78.86490128640679
7464.84,80.93227054937226,76.32371383871819,83.22983793791639,74.71123426945313,55.55058788058234,79.10788117957675
7727.05,81.30112658940381,76.31262325201502,83.35693212383927,74.2320755339664,56.69066949515779,79.25616443056907
7999.51,81.30659309571287,75.74326124043729,83.79511631549072,73.76252565003394,55.705735976696516,79.40909412095466
8282.23,81.16385043415288,75.71711988964728,83.83946000342105,73.38529880960101,51.686771872704995,79.36571206957251
8573.73,80.57812530523779,75.03161442997661,83.66151994476442,72.93113541391905,50.26775877030674,79.01122968102142
8876.95,80.26042956465896,73.88543387779531,84.08258895402271,73.06341077498342,53.516042862866996,79.10759793809294
9188.96,80.04397589494542,72.64402545711648,84.15117346144142,73.40916453801225,57.12539804374218,79.05176165060826
9514.16,79.59843137847275,71.81567791540373,84.3573112611442,73.88001857487151,55.573486019390785,79.0728519915149
