Freq "Floor Bounce"
22.4 41.58573603864208
23.0 43.289595285611924
23.6 44.99674297331738
24.0 46.63855083142049
25.0 48.32457672584498
25.8 49.91213611976859
26.5 51.50123572626639
27.2 53.09188145404552
28.0 54.653809743594465
29.0 56.116279400836405
30.0 57.646809835208146
30.7 59.04283030471974
31.5 60.5069050103546
32.5 61.906905010354606
33.5 63.30690501035458
34.5 64.6053180676647
35.5 65.90531806766471
36.5 67.20531806766472
37.5 68.4707173249541
38.7 69.67071732495411
40.0 70.87071732495407
41.2 71.9707173249541
42.5 73.13663575667185
43.7 74.23663575667187
45.0 75.3022846139602
46.2 76.33663575667187
47.5 77.40306957104254
48.7 78.40306957104251
50.0 79.46845083805432
51.5 80.53513059177983
53.0 81.56845083805432
54.5 82.63513059177983
56.0 83.70306957104252
58.0 84.80306957104251
60.0 85.83663575667187
61.5 86.90306957104251
63.0 87.93663575667186
65.0 88.90306957104252
67.0 89.83663575667187
69.0 90.67150800786938
71.0 91.43663575667186
73.0 92.13663575667186
75.0 92.73663575667187
77.5 93.33663575667187
80.0 93.93663575667186
82.5 94.53663575667186
85.0 95.16845083805434
87.5 95.80306957104251
90.0 96.40306957104252
92.5 96.97150800786937
95.0 97.40690501035459
97.5 97.7457671943847
100.0 97.98982856673472
103.0 98.20963256681621
106.0 98.48219812790056
109.0 98.92869245367795
112.0 99.38219812790055
115.0 99.90464502318535
118.0 100.32349685065981
122.0 100.60986628672329
125.0 100.77449351030438
128.0 100.83663575667187
132.0 100.93663575667186
136.0 101.0404416794549
140.0 101.08219967332305
145.0 100.79897445130925
150.0 100.39506458035831
155.0 100.00034112939828
160.0 99.75177437534741
165.0 99.43392832814568
170.0 98.87697211958267
175.0 98.10261155895364
180.0 96.9687803399679
185.0 95.58382334167594
190.0 94.34258273663015
195.0 94.00034112939828
200.0 94.58382334167595
206.0 95.21753803239933
212.0 95.91753803239934
218.0 96.70261155895363
224.0 97.31753803239934
230.0 97.6145789575331
236.0 97.78888863538653
240.0 98.13012177221654
250.0 98.70199903162158
258.0 99.17523823794748
265.0 99.26893616304386
272.0 99.25959385611934
280.0 98.90529495129532
290.0 98.37450358348686
300.0 98.47450358348685
307.0 98.57450358348686
315.0 98.10489348120858
325.0 97.46078125161695
335.0 96.5921408605958
345.0 96.62963782068198
355.0 96.93167423934987
365.0 96.46078125161695
375.0 95.73094714327505
387.0 95.43583270715517
400.0 95.61969876875257
412.0 95.66396636452284
425.0 95.39540175394477
437.0 95.28657023787737
450.0 95.16435503550397
462.0 95.65269579506135
475.0 95.68912251720924
487.0 95.4025820173835
500.0 95.82093293934182
515.0 96.20727345323036
530.0 95.8844116046003
545.0 95.96087273041046
560.0 95.3264616636838
580.0 94.63713246329391
600.0 95.46704034038136
615.0 95.20233545048114
630.0 94.74421676064229
650.0 93.75840678555409
670.0 94.05135551260645
690.0 94.19393400673104
710.0 93.85676201263394
730.0 93.67142220068861
750.0 93.46873383536249
775.0 93.27759412749793
800.0 94.34790206781518
825.0 95.20457360392517
850.0 95.89642109679515
875.0 95.23451276341989
900.0 94.55597330084369
925.0 93.70605539942797
950.0 94.43209809522479
975.0 94.39606317683777
1000.0 94.13908542067753
1030.0 93.981262425955
1060.0 94.07669651788683
1090.0 94.68692145185187
1120.0 94.90274274418537
1150.0 95.12249132128154
1180.0 95.45201276790554
1220.0 95.54784005079641
1250.0 95.66639623017095
1280.0 96.7839348027723
1320.0 97.45551432062251
1360.0 96.47150379251897
1400.0 96.03323477608883
1450.0 95.03902538151331
1500.0 94.2505292704094
1550.0 95.28068746291929
1600.0 93.46406416645009
1650.0 91.87441527740414
1700.0 93.65275323063697
1750.0 94.03307048224221
1800.0 95.0549034174594
1850.0 94.21998655717313
1900.0 94.96508889953105
1950.0 93.03471343899922
2000.0 92.892880716675
2060.0 94.47901572010913
2120.0 93.31274735416665
2180.0 95.00217869587387
2240.0 95.47901572010913
2300.0 95.30685390422273
2360.0 95.67455543841902
2400.0 95.87455543841901
2500.0 96.04704210815594
2580.0 95.06577141105063
2650.0 94.1012362720128
2720.0 93.83094714327503
2800.0 92.4632671162146
2900.0 90.7027989367729
3000.0 90.65274121243768
3070.0 93.86333698152463
3150.0 95.0244409524799
3250.0 93.9852001434664
3350.0 94.36202719227403
3450.0 93.70557104231763
3550.0 91.46247691168226
3650.0 89.69234669242589
3750.0 90.48094288325714
3870.0 88.20211934447134
4000.0 87.04344657865492
4120.0 88.83977406895767
4250.0 88.06918755492214
4370.0 87.70628533047821
4500.0 88.68867002996296
4620.0 86.84416826970305
4750.0 88.35854975114908
4870.0 91.29294906412765
5000.0 88.61415147582221
5150.0 92.08912462290242
5300.0 93.15529122974489
5450.0 95.01707334152475
5600.0 94.83455349072888
5800.0 94.99261462296602
6000.0 96.42190192747866
6150.0 96.83634153725289
6300.0 100.04659950600265
6500.0 100.42367111148967
6700.0 102.6736832712551
6900.0 88.52969235451629
7100.0 98.08045049763739
7300.0 101.13315001615308
7500.0 100.1066415492658
7750.0 98.2991042081175
8000.0 93.86289471259657
8250.0 98.38728560925563
8500.0 100.59921750494506
8750.0 99.68382160833151
9000.0 98.02143224786167
9250.0 98.81739061317364
9500.0 97.40972209420605
9750.0 96.80640499119309
10000.0 90.25407528141116
10300.0 96.92258675204486
10600.0 100.78319381475744
10900.0 92.96083117075626
11200.0 96.57135922314423
11500.0 96.64902804714272
11800.0 95.43102408742502
12200.0 89.24585858334795
12500.0 88.07503428220238
12800.0 84.80094108273506
13200.0 94.50956131030868
13600.0 93.05312568521546
14000.0 90.31875287042229
14500.0 93.9880106084516
15000.0 94.49695255215009
15500.0 92.89524349537457
16000.0 96.96229036839412
16500.0 90.78655792795382
17000.0 91.08178194793815
17500.0 88.4651291120858
18000.0 84.28053254533692
18500.0 86.52643297742509
19000.0 87.5749851083616
19500.0 84.07334103002471
