Freq "Rear Wall Bounce"
22.4 35.798752729275535
23.0 37.559500956333224
23.6 39.306396266431804
24.0 40.99381551908054
25.0 42.645507018246846
25.8 44.2550831217889
26.5 45.81341544713918
27.2 47.40061626976454
28.0 48.918058203204126
29.0 50.429759376731525
30.0 51.935911587222435
30.7 53.39671512848956
31.5 54.861250364777575
32.5 56.31777347857688
33.5 57.75004221017379
34.5 59.17001870926303
35.5 60.53810744281883
36.5 61.94794717244427
37.5 63.311319947970176
38.7 64.63723614097692
40.0 66.00243486667362
41.2 67.29837157661412
42.5 68.6018280291148
43.7 69.88518122383174
45.0 71.14350503764864
46.2 72.3906440830665
47.5 73.62986776807001
48.7 74.85790884728642
50.0 76.09394603825321
51.5 77.29089370022304
53.0 78.52910515887089
54.5 79.73526849022936
56.0 80.92522343120639
58.0 82.10310781198815
60.0 83.24095341026943
61.5 84.32800763880545
63.0 85.36024661917405
65.0 86.3154924781994
67.0 87.18377203699283
69.0 87.95480756838991
71.0 88.59489811952663
73.0 89.10772338470927
75.0 89.53769978222925
77.5 89.85139572281359
80.0 90.17498554924686
82.5 90.49355296819398
85.0 90.92126045094375
87.5 91.46123818667006
90.0 92.1671012448813
92.5 92.99551223322142
95.0 93.89672196060326
97.5 94.7643099691288
100.0 95.49971859721163
103.0 96.04306312241467
106.0 96.37527911864977
109.0 96.4677238868236
112.0 96.33006568099403
115.0 95.9672134862551
118.0 95.3457010470788
122.0 94.56971793896594
125.0 93.79849486810791
128.0 93.33254503879056
132.0 93.21674757402853
136.0 93.44912989109868
140.0 93.89369945521759
145.0 94.30569103074419
150.0 94.52091762442357
155.0 94.44193948923555
160.0 94.0376198175491
165.0 93.35834291604594
170.0 92.48146152548259
175.0 91.44445542735647
180.0 90.259092868468
185.0 88.93633998289602
190.0 87.61406148297333
195.0 86.86227612754924
200.0 86.85252002255955
206.0 87.0954346166891
212.0 87.49521447982227
218.0 88.42270747715769
224.0 89.4590091452406
230.0 89.91695602613454
236.0 90.1305392184057
240.0 90.74669148060157
250.0 91.19248449684743
258.0 90.56495494177828
265.0 89.74197068927835
272.0 90.00783124682658
280.0 90.39756892746341
290.0 89.16773539254699
300.0 87.23327271872996
307.0 87.73068074917795
315.0 87.88252231187371
325.0 86.3614866677238
335.0 84.6199249533192
345.0 84.00884909508706
355.0 84.06005747304805
365.0 82.97145690618213
375.0 82.546747257639
387.0 83.29640966600346
400.0 84.29183253588037
412.0 83.77855458086607
425.0 82.9139403276729
437.0 83.18157804300257
450.0 82.62841870149389
462.0 81.60272353876965
475.0 80.92903427104041
487.0 79.32215804672191
500.0 80.11567532183705
515.0 80.69015974015976
530.0 82.53121103936175
545.0 82.85288847599479
560.0 82.93738170396036
580.0 83.29605368422445
600.0 81.94657530350666
615.0 82.7733758261803
630.0 81.03682653840262
650.0 81.51658508442596
670.0 81.83329929420269
690.0 82.19973740793478
710.0 82.27536852441644
730.0 81.26234390832936
750.0 80.9098308597586
775.0 81.19731157862064
800.0 80.28096020818636
825.0 79.96390974409759
850.0 78.41767441185695
875.0 78.08320664289596
900.0 76.86057305750187
925.0 77.96073518976984
950.0 77.69058379448838
975.0 78.57273372458228
1000.0 78.98151531622052
1030.0 78.51995849120144
1060.0 78.33922848363636
1090.0 78.2771014015239
1120.0 76.40965190644003
1150.0 76.15762192982181
1180.0 78.05161270589403
1220.0 77.79559619210771
1250.0 77.07943566191905
1280.0 77.31414570550531
1320.0 77.87086200141256
1360.0 77.43484019186359
1400.0 77.93439502648688
1450.0 78.20882162880996
1500.0 76.69671180814997
1550.0 77.27359449471241
1600.0 78.11680571523085
1650.0 78.05678233728437
1700.0 78.65611892525327
1750.0 77.72687213783824
1800.0 77.22665692614616
1850.0 74.72260568846711
1900.0 73.65080007611671
1950.0 72.90016588417778
2000.0 73.28308029825946
2060.0 74.26431608868667
2120.0 75.83078998422859
2180.0 76.26309000229726
2240.0 72.4239570606991
2300.0 71.43649882307703
2360.0 71.56361723244031
2400.0 74.01062506861471
2500.0 75.79338414391232
2580.0 75.59906534722508
2650.0 72.6068952952708
2720.0 71.5871485818662
2800.0 70.73070968235923
2900.0 69.67960291718113
3000.0 69.74482796818508
3070.0 71.84318899041362
3150.0 72.21486739524742
3250.0 72.42096184350486
3350.0 70.45621365581498
3450.0 70.76557298022912
3550.0 69.73269563047687
3650.0 66.25259451081108
3750.0 68.42090210909764
3870.0 67.02606137134761
4000.0 67.07209570437986
4120.0 65.72410583937905
4250.0 63.315375113592054
4370.0 65.57190018686624
4500.0 65.10615658463819
4620.0 65.8265235718183
4750.0 65.18119663635626
4870.0 64.20371030666244
5000.0 63.92139387167394
5150.0 66.11245320297344
5300.0 66.95338590457997
5450.0 66.72648226187864
5600.0 65.67513688186118
5800.0 69.45569127073743
6000.0 75.09211417044726
6150.0 74.40818997282103
6300.0 76.48308275336062
6500.0 78.39785970351188
6700.0 69.05940729850518
6900.0 52.112805416161294
7100.0 62.252218085489986
7300.0 68.81809549342033
7500.0 73.13913721992414
7750.0 72.01909544705877
8000.0 67.18786258107711
8250.0 73.64138083698215
8500.0 74.00202826567399
8750.0 77.02061857492863
9000.0 74.93333773915712
9250.0 78.28237797435969
9500.0 78.61237959875912
9750.0 68.25306133268954
10000.0 62.62848570251326
10300.0 64.77043277908724
10600.0 67.01745202470788
10900.0 63.37538076347646
11200.0 66.97337473205219
11500.0 69.62904059442413
11800.0 69.01362932771839
12200.0 68.56055133058673
12500.0 56.574608066241225
12800.0 56.59161689432314
13200.0 61.11711769365188
13600.0 59.77749642905137
14000.0 64.69916390467112
14500.0 70.93435486269225
15000.0 71.4788053872358
15500.0 73.52826369326
16000.0 71.35953158491013
16500.0 68.28636422101572
17000.0 68.47749280967336
17500.0 61.35712457254233
18000.0 59.303071464577314
18500.0 61.13697784768915
19000.0 55.5914233125563
19500.0 48.08053230302316
