Freq "Side Wall Bounce"
22.4 40.40756472259231
23.0 42.17314426572959
23.6 43.867115060385785
24.0 45.50711332570454
25.0 47.08634875492136
25.8 48.652507036399854
26.5 50.12151257625213
27.2 51.63489034944699
28.0 53.1230910531245
29.0 54.57443777619635
30.0 55.988926686443264
30.7 57.38892668644327
31.5 58.80370321583898
32.5 60.19430681942747
33.5 61.57134951865403
34.5 62.87134951865404
35.5 64.18688383865837
36.5 65.50465136972154
37.5 66.78227150162213
38.7 68.04020321081352
40.0 69.27410610192267
41.2 70.45208219990603
42.5 71.6283585465615
43.7 72.76490932867641
45.0 73.90660874352803
46.2 74.99977988446061
47.5 76.0997798844606
48.7 77.1997798844606
50.0 78.21669908832557
51.5 79.29386016199098
53.0 80.33517517988561
54.5 81.41669908832557
56.0 82.41669908832557
58.0 83.47981697111652
60.0 84.4997798844606
61.5 85.52311762186315
63.0 86.46841944439625
65.0 87.43409784625626
67.0 88.2981271487892
69.0 89.11800626611014
71.0 89.84879693325
73.0 90.53120945673882
75.0 91.20075408836483
77.5 91.80075408836481
80.0 92.40075408836479
82.5 93.05365942540836
85.0 93.74471892722994
87.5 94.45622184971096
90.0 95.18318188317097
92.5 95.77243673907044
95.0 96.24499307909497
97.5 96.5035986286065
100.0 96.52551578387614
103.0 96.30126852441462
106.0 96.01695283904576
109.0 95.83379334736121
112.0 96.06389569390615
115.0 96.6768283625682
118.0 97.55891747761855
122.0 98.38018183056765
125.0 99.03861896029213
128.0 99.5352910854338
132.0 99.88726153421563
136.0 100.15589655810979
140.0 100.2756054428143
145.0 100.03476017575174
150.0 99.33947253232193
155.0 98.28616916679151
160.0 97.12099125021142
165.0 96.09228220400794
170.0 95.3172242660793
175.0 94.71212804849117
180.0 93.96827870495048
185.0 92.8165962848238
190.0 91.56796200165228
195.0 91.42297900554084
200.0 92.48224020036895
206.0 93.55171310659667
212.0 94.22277665238353
218.0 95.19352950258636
224.0 96.18067636096562
230.0 96.58169485201692
236.0 96.56000576395886
240.0 96.40650238814867
250.0 96.22486574456475
258.0 96.25501043052765
265.0 96.4869774604065
272.0 96.63521991635636
280.0 96.53969071284503
290.0 96.09859237508506
300.0 96.03045930674581
307.0 96.0348585014412
315.0 95.409198538607
325.0 94.47104283462271
335.0 93.10914743537155
345.0 92.64277628286956
355.0 93.28013124463567
365.0 93.40610753185159
375.0 92.84957734345055
387.0 92.31680354007807
400.0 93.01088471959748
412.0 92.49311165146781
425.0 91.56978334453383
437.0 91.895863129217
450.0 90.89801684733189
462.0 90.43574749265028
475.0 90.05564754171091
487.0 89.3764497270813
500.0 89.81981679045423
515.0 90.40928615923976
530.0 90.65947173709993
545.0 91.00854347230317
560.0 90.22910874553891
580.0 90.83830723966064
600.0 88.65799930474944
615.0 89.46938023440113
630.0 87.78156611392868
650.0 89.21962357820901
670.0 89.63803636610552
690.0 91.31066766448086
710.0 91.21923726680507
730.0 92.14356618566654
750.0 91.19311551025532
775.0 91.29627956579641
800.0 90.53301244935055
825.0 89.45541161078708
850.0 88.48947794866363
875.0 87.39123112004326
900.0 87.56951126453463
925.0 87.53940358369839
950.0 87.11515160450733
975.0 87.18694342038734
1000.0 88.28968993133685
1030.0 88.96675110270593
1060.0 87.86998244520925
1090.0 87.11623747412561
1120.0 86.14575665401092
1150.0 86.29299249732408
1180.0 86.8428105734667
1220.0 87.48476377408758
1250.0 89.02917223517086
1280.0 90.1564825725454
1320.0 90.17123106670014
1360.0 90.26446587637172
1400.0 90.61383585505287
1450.0 89.83644174958613
1500.0 89.23495122625057
1550.0 89.028801688276
1600.0 89.07758794843113
1650.0 89.15414207081704
1700.0 90.49464632595064
1750.0 90.41581322604738
1800.0 89.56703148384912
1850.0 87.82224435692828
1900.0 87.07548644461343
1950.0 85.41426760237808
2000.0 86.13543099863843
2060.0 87.14992388085722
2120.0 86.63634564360449
2180.0 88.42221043173092
2240.0 87.233364229277
2300.0 87.04957852001475
2360.0 86.4563536681813
2400.0 88.08975884284877
2500.0 88.34212640013435
2580.0 87.4967415333732
2650.0 86.20196163200029
2720.0 85.45785201780562
2800.0 84.2712566309892
2900.0 83.88010784162489
3000.0 81.95178575521673
3070.0 84.31621088123559
3150.0 86.03350716377197
3250.0 83.42316975839186
3350.0 83.19791354546594
3450.0 82.9612872339376
3550.0 81.14112893815816
3650.0 80.02034948687489
3750.0 81.72953884295043
3870.0 80.15038702617953
4000.0 82.21799085299038
4120.0 81.10759670468613
4250.0 78.09096459494235
4370.0 80.36519551720632
4500.0 80.49603475388481
4620.0 80.36136714022275
4750.0 78.5656937787814
4870.0 77.03456700920792
5000.0 75.33982732037798
5150.0 80.15171252354496
5300.0 84.53735442873734
5450.0 83.3725853169267
5600.0 79.44221045667537
5800.0 85.9668083025816
6000.0 93.57498643527624
6150.0 90.23007174265913
6300.0 93.13479136918538
6500.0 95.88373189067562
6700.0 87.35676714510507
6900.0 70.92463906893236
7100.0 80.39149065447563
7300.0 87.07660534653813
7500.0 89.71859876228815
7750.0 86.23048706207057
8000.0 82.26652822549566
8250.0 88.47640513277088
8500.0 86.992053546914
8750.0 92.67604780661728
9000.0 89.7639788171395
9250.0 92.88981120893683
9500.0 95.73223867495228
9750.0 84.09979598252123
10000.0 78.50904536438075
10300.0 77.0979488929638
10600.0 79.37573110994695
10900.0 80.04781824141129
11200.0 83.53164295632426
11500.0 85.10569391895642
11800.0 82.6268953205437
12200.0 82.49232426746143
12500.0 68.66031741539858
12800.0 65.41253968668052
13200.0 70.53095966736696
13600.0 71.97141945848249
14000.0 76.78114675322932
14500.0 81.69000074385117
15000.0 78.97080632442704
15500.0 82.50268301250432
16000.0 83.80841539397237
16500.0 79.92812808208195
17000.0 79.34069331369518
17500.0 73.31272925571518
18000.0 72.20989508162016
18500.0 73.97589445758616
19000.0 65.31215631449733
19500.0 58.8687504436967
