Freq "Listening Window"
20.5078 50.49426017080333
21.2402 53.54498564290685
21.9727 54.60397460335449
22.7051 56.004940166680626
23.4375 56.164226692187725
24.1699 56.634934928097664
25.6348 57.96542778836081
26.3672 58.925464024791125
27.0996 59.831211291901866
27.832 60.949661267590784
29.2969 62.75103344428172
30.0293 63.61866361623861
31.4941 65.1227547318642
32.2266 66.11272618109724
33.6914 67.60525246212046
34.4238 68.4202789454019
35.8887 69.9058754588515
37.3535 71.26329590669474
38.8184 72.54610880662358
39.5508 73.21818840418788
41.0156 74.08046621311334
42.4805 75.32445594494826
43.9453 76.25222529641277
45.4102 77.05066002904682
47.6074 78.0746365798316
49.0723 78.66666376938946
50.5371 79.17654104422076
52.7344 79.8451379333155
54.1992 80.20920233951638
56.3965 80.6685394494492
58.5938 80.96256491708039
60.0586 81.21390255460676
62.2559 81.60989649466794
64.4531 81.86692667465778
66.6504 82.12135797036069
69.5801 82.40865498497675
71.7773 82.5524585528585
73.9746 82.76585739141143
76.9043 82.9344102317525
79.834 83.0936131016282
82.7637 83.4558580190165
85.6934 83.63012127940647
88.623 83.5353721847848
91.5527 83.45627399803149
94.4824 83.90743987310913
98.1445 84.02839983416732
101.807 84.11686420590296
105.469 84.23415573183459
109.131 84.44020422557077
112.793 84.59161169925858
116.455 84.63511531117354
120.85 84.75812856532693
125.244 84.93709959663825
129.639 84.94572921235992
134.033 84.8638702804395
138.428 84.90651055846989
143.555 85.03067964232673
148.682 85.12490170438348
153.809 85.16380951555468
159.668 85.39993197771773
164.795 85.33890873919478
170.654 85.27227344493039
176.514 85.23117962618217
183.105 85.25549979878569
189.697 85.2936212316144
196.289 85.3601208649394
202.881 85.39396697030223
210.205 85.34854084668747
217.529 85.28281711939917
225.586 85.36100471003246
232.91 85.52266198209153
241.699 85.29065944976192
249.756 85.52320957667526
258.545 85.34228769861949
268.066 84.99972817209175
277.588 84.870245108513
287.109 84.88442268598477
297.363 85.48538041240931
307.617 85.50502309893827
318.604 85.43673706202725
329.59 85.21810881339903
341.309 83.97903812070703
353.76 83.33032895686526
366.211 86.09441402080522
378.662 87.66180418896612
392.578 87.00815268366361
405.762 86.91122155553481
420.41 87.03432597204853
435.059 86.54527321451148
450.439 86.4894430100987
466.553 86.14563675520043
482.666 85.79936872443551
500.244 85.45308707357883
517.822 85.27212643546227
536.133 85.81380030348494
554.443 85.82156036986483
574.219 86.08519611583411
594.727 85.58330641558396
615.234 85.49260620198922
637.207 85.29558385644081
659.912 86.96275588653313
683.35 87.43508539169035
706.787 88.56823440709142
731.689 89.03288850232173
758.057 88.79368417459915
784.424 88.59955393589793
812.256 88.10999935048113
840.82 87.8553962845893
870.85 87.44695973238132
901.611 87.44196971587118
933.105 88.05608426732634
966.064 87.69994264086978
999.756 87.11811502362269
1034.91 86.7180739764913
1071.53 86.29688904109354
1109.62 85.91434670681917
1148.44 85.96417561739914
1189.45 85.94427861849977
1231.2 86.67590214620154
1274.41 86.22182748008561
1319.82 87.07681130688789
1365.97 86.53222701138097
1414.31 85.97804190374583
1464.11 85.62596644540247
1515.38 85.00363671150018
1568.85 84.82840493240178
1624.51 84.48792868479522
1681.64 84.28403280000813
1740.97 83.72595061739145
1802.49 84.668036488006
1866.21 84.27860305285613
1932.13 83.99511571603364
2000.24 84.76467510889928
2070.56 85.68551141784404
2143.8 85.61994743767706
2219.24 84.36694590555454
2297.61 85.11281328997002
2378.17 86.11185924749083
2462.4 85.49080049008595
2548.83 85.23495480132885
2638.92 85.57800287281498
2731.93 85.3857050676819
2828.61 85.52699993590915
2928.22 85.48394364593108
3031.49 85.09080706048033
3138.43 85.49456171991913
3249.02 85.53322335193647
3363.28 85.63839598807354
3481.93 86.06391633862626
3604.98 86.66055921099834
3732.42 86.34313419619377
3863.53 86.71614778430389
3999.76 86.73708146092937
4141.11 86.4560119605903
4286.87 86.74797075712223
4438.48 86.74384139831955
4594.48 86.67349828006257
4757.08 86.6893648752052
4924.8 86.69663208447238
5098.39 86.49167187709558
5277.83 85.79404408161672
5463.87 85.65160630310092
5656.49 84.91273071864036
5856.45 85.19532358654496
6062.99 85.53947186704951
6276.86 85.98592833490343
6498.05 86.28316936174645
6727.29 86.43067711830513
6964.6 86.34529032624194
7209.96 85.85694747648444
7464.11 85.33824331641846
7727.78 85.35697981472913
8000.24 86.00904293408539
8282.23 86.97283273805436
8574.46 87.25778019086684
8876.22 86.48779965598698
9189.7 85.52202574556283
9513.43 85.2607862838581
9848.88 85.21439468153406
10196.8 85.43882189516411
10556.4 85.6319351178371
10928.5 85.3088125714424
11313.7 84.78621520815737
11712.9 83.99730200296086
12126.0 83.81197261243581
12553.7 84.09289334842576
12996.1 84.06210030000396
13454.6 83.69212578075258
13928.5 83.16235490590238
14419.9 83.06683030365976
14928.2 83.27958748012341
15454.8 83.23317279217844
15999.8 82.91265763162144
16564.5 82.90410062018185
17148.2 83.29318699425193
17753.2 83.35608211594317
18379.4 82.67205714977891
19027.6 82.38080877302912
19698.5 82.24902292302733
19999.5 81.93110027182964
