Freq,Floor Bounce,Ceiling Bounce,Front Wall Bounce,Side Wall Bounce,Rear Wall Bounce,Total Early Reflection
20.5078,60.93611452372356,64.22775234082074,62.785220946159725,62.642941848771144,61.76245405743755,62.61261654302844
21.9727,65.51582370797642,66.50974651670644,66.07538303261605,65.89616584210397,64.97741836098054,65.82554898944004
23.4375,66.5672944328487,67.5221472054155,67.10373254145644,66.91927986641177,65.88883679187391,66.83440065890919
24.9023,69.06673128307769,69.66486500334561,69.43388763506631,69.2952214817134,68.58479129254123,69.22440406335404
26.3672,70.75915111950052,70.99490685486772,70.98265407106008,70.76676697754532,69.89005677006831,70.69702741513497
27.832,73.0478638741025,73.02407846026215,73.16362389761709,72.93712084371093,72.02189565333897,72.85786079254201
29.2969,75.22443936099101,74.91746891000334,75.20331276476226,74.97133020496167,74.12562802543009,74.90623213076165
30.7617,76.31848195743827,75.92547167788855,76.26782923769827,76.0409722800016,75.35409832859814,75.99476045019861
32.2266,78.37321125622739,77.80162699988941,78.26922075697867,77.93976393994508,76.86161135287213,77.88084257859072
33.6914,79.97921323782948,79.23586070617841,79.80915111037096,79.48968481428766,78.49060300322911,79.43142643331377
35.1562,81.36227532527832,80.51404627868614,81.15022186976817,80.81238351603626,79.78463013444879,80.75886123222192
36.6211,82.81182339460497,81.83910532936379,82.55498223103127,82.20415873701864,81.17988491808929,82.15488690632567
38.0859,84.04497894751773,82.97947794637504,83.7437392742603,83.38977043087415,82.39566285833337,83.34877032349642
39.5508,85.11152619102637,84.00024846860998,84.79721959845234,84.43397274472365,83.45372085676976,84.39819936804116
41.0156,86.06576468593708,84.89423888977807,85.73591158681502,85.34311937725282,84.31586054354915,85.31423981638673
42.4805,86.9345991732139,85.73544525923776,86.59789283822838,86.19904926603587,85.18493394169822,86.1739989513718
43.9453,87.75760516005553,86.47864255940159,87.38987456938843,86.97656007435991,85.95979137573777,86.9589956127992
45.4102,88.40467984407488,87.10014913930341,88.02940563812575,87.6084908466086,86.60835701947134,87.59703271195097
46.875,89.07195003509493,87.72889412881855,88.68690068746272,88.24591684151686,87.22551021652488,88.24134253060994
48.3398,89.62175704694623,88.25856650435274,89.23586162794363,88.7743807003545,87.72249191013461,88.77478724394825
51.2695,90.49059069460195,89.0809606509028,90.09887666097131,89.59359593832124,88.45606758732461,89.60316707495609
52.7344,90.9095704282356,89.5078534597274,90.52210412790335,90.01218570135363,88.86894726494866,90.0234899486935
54.1992,91.24243697960249,89.84834278118193,90.8551461697012,90.35176487832669,89.2633636023434,90.36857729091696
55.6641,91.49110764961745,90.10847448492792,91.1107747374953,90.60474240541615,89.56555517864166,90.6300319897176
58.5938,92.09022934618231,90.6052131731005,91.68133901662866,91.14046877957828,90.12388978188602,91.18576331003247
60.0586,92.44081823706345,90.88983234584009,92.01308278432921,91.44650431546641,90.37617263369077,91.49650195199534
62.9883,92.95050750715559,91.34731379263458,92.5123722249517,91.91209404320541,90.84685128339436,91.98007110551507
64.4531,93.20397453833996,91.56421404200022,92.75678932581089,92.13474163463151,91.04734951094564,92.21098270415544
67.3828,93.67785623957761,91.9756317776823,93.21995898870834,92.54977814693268,91.42013457906795,92.64479209049387
68.8477,93.92427571404228,92.18700838586435,93.46137674457208,92.76057849168507,91.5885223086109,92.86540244353466
71.7773,94.42655334554227,92.64350735464636,93.95750333850833,93.20545763498525,91.92347689906018,93.32264878114445
74.707,94.86229650092034,93.09116058112825,94.39982318002653,93.64005624785035,92.37436925863096,93.76392831017735
77.6367,95.23548974726629,93.42914556105914,94.76568733240619,93.98353428443795,92.78012862768199,94.12840188823601
79.1016,95.4189699849518,93.59880484812254,94.95106854202321,94.14640460892582,92.9469060230001,94.30354350812803
82.0312,95.80332843971188,93.96269840608542,95.34552016999771,94.4849744831794,93.23926020553667,94.66460553314396
84.9609,96.22452565771566,94.30555622267507,95.7503576192222,94.83127685401162,93.45472176205736,95.02515811077696
87.8906,96.4191472521201,94.4849808107765,95.92887587239713,95.03227324755007,93.75051327087459,95.22888018338209
90.8203,96.7396890794608,94.73333548998905,96.24839953124753,95.28091321816444,94.05288193554541,95.52081334639381
95.2148,96.99501267807673,94.94204408267505,96.50859984317071,95.48323666220041,94.26024612363834,95.7527198209843
98.1445,97.10080897300271,95.02302449573695,96.63606898934124,95.53456714426736,94.29672740362481,95.83961315949419
101.074,97.25204480634821,95.10323674819448,96.80119936067898,95.59895195321126,94.2780143387513,95.94285672300494
105.469,97.66218605394171,95.33229279800193,97.21829874606959,95.87326743691688,94.24282727725247,96.24163761428163
108.398,98.00866989698909,95.5865799674478,97.57113867610944,96.14127870052276,94.2702429023051,96.52128498573838
112.793,98.45049323767387,95.94588101673604,98.02298440459676,96.50913808972682,94.31498391242,96.89328769790168
117.188,98.71959351093643,96.16517447012534,98.28035434663362,96.71611686959686,94.28105406015153,97.1074165435217
120.117,98.9739931807622,96.36546394334817,98.5251588463751,96.93101355196005,94.3092373382091,97.32026615712546
124.512,99.37775247802134,96.77705703077177,98.9062104370206,97.35572169765989,95.05534447082103,97.75862208347003
128.906,99.32508555096729,96.65365471754964,98.82532970547337,97.18249698198541,94.96259092653942,97.66125086027917
133.301,99.28592934540735,96.51112389853606,98.764738372085,97.02648699340867,94.55415309777932,97.54086047974072
139.16,98.81593984497658,95.96862969403823,98.26159213999736,96.53670091056651,93.84261469029629,97.02337824918328
143.555,98.58952187901941,95.60738774803508,97.97348484985746,96.21374058377556,93.44146895372633,96.72572344820465
147.949,98.0259041495659,95.16153209530692,97.49274281479366,95.66299118643732,92.88603982141409,96.20570510650172
153.809,98.01198417418152,95.02071782972561,97.51915265447724,95.46905006531362,92.1100536135096,96.0855132443238
159.668,97.93495931016635,94.82621035116526,97.40691639408499,95.40151352060914,91.93558675091894,95.97438953727098
165.527,97.86759614154978,94.584581231005,97.24441491446531,95.24618990985756,91.50046736517929,95.81047018558256
171.387,97.56367281519796,94.20500255210571,96.87601194059563,94.76732484556275,91.08737709195933,95.43879457415254
177.246,96.8543276934952,93.02240612499712,95.93047434525415,94.03534554256245,90.554985167912,94.60558325374589
183.105,96.76812689356683,92.70677154729246,95.91490482755273,93.86575887112076,90.82402936475563,94.52230874083428
188.965,97.55479134114596,92.98718517326354,96.71919729619658,94.22898413461692,91.21658178143223,95.1463925303441
196.289,99.35219619947686,94.79677327415791,98.63468004364086,95.8977012232475,91.54648701362828,96.85751997646454
203.613,99.97392708599709,95.7466575722802,99.3648198962792,96.80683491395571,91.3508604081972,97.55778671275233
210.938,99.7023546970156,95.60808914323631,99.16303931848817,96.84531470784289,91.61733529102735,97.40521038306103
218.262,98.3358978252868,94.01099231214756,97.75829640474738,95.16283022858842,91.6095827653558,96.02817888634965
225.586,98.52494191735623,94.12818574440817,98.04577703296259,95.10067617713756,91.57199576746723,96.18181733074049
232.91,99.63546104877348,95.39207952246831,99.31524174697128,96.34967104185327,91.58879694139337,97.31650242245352
241.699,99.28597522071378,95.3879084681575,98.99928081085427,96.37029752806428,89.64089205140985,97.013897125512
250.488,99.43364869879268,95.0970966265897,98.85944015656219,96.27905546767794,90.09189328232587,96.98415895187357
259.277,100.1752177431405,94.64470492630025,99.2667337133302,96.44230251905402,90.42840610224096,97.36931148320154
268.066,99.21369778292559,94.17560398814973,98.35654284941643,95.99112546467089,87.92414560862271,96.51313932315092
276.855,98.60939665305013,93.61343225410548,97.76103966671444,95.5314770527109,88.47454659939761,95.9786074881681
287.109,98.14599446953429,93.86589559114755,97.58600106183557,95.03265873212187,89.11092180395914,95.72818131254624
297.363,98.13228558245252,94.22643245752053,97.92587158490473,95.3151406353381,88.70406125036786,95.90978068738515
307.617,98.39670405012212,94.44481941013991,98.22027228179998,95.23702499615193,87.84984566743009,96.08159721403194
319.336,99.6751992259603,94.72638876653055,99.38818164302363,96.55807570144728,89.0237464020021,97.20328294736838
329.59,100.70939421536404,94.73843286123787,99.98043107101292,97.18402325785965,89.34778974488648,97.89527980946508
341.309,100.32530522858681,93.96588317614017,99.39648801535785,96.91251703949378,89.13554244064325,97.43573593751475
353.027,100.22573105590384,93.9725400018646,99.34883346507185,96.56240965381107,90.09969807817404,97.35469555993714
366.211,98.91235345952823,94.68194688088464,98.8619843505033,96.10192210810378,88.8112873208323,96.6753750670178
379.395,97.43758349211252,94.97718300376388,98.47438988383455,95.3886880783107,88.5836974050996,96.00031083314181
392.578,99.31906357168859,94.97443909375575,99.79602695652098,96.60531607649314,88.77033450257251,97.25317439722552
405.762,98.59772963030724,94.07412166152096,98.63231678302475,95.9337496824737,88.44198222623093,96.37760222957598
420.41,100.02413977240467,94.03299699204352,99.58165523286614,95.69582959674572,89.25590810464547,97.19708651306799
435.059,98.47033694951602,93.11862555615157,98.27018934350973,94.00759423840913,86.02321595238423,95.7317078550147
451.172,98.35914350960142,93.73474435545383,98.64206697360028,94.36741454415365,86.3627373065516,95.95449650919579
465.82,98.25001667335685,92.74670950869888,97.49231243143977,93.56061247104147,87.22559027794865,95.30897317270144
483.398,99.26779499105703,92.81289838290077,98.33451347950408,92.86356044269137,86.13244701994124,95.91473910584158
499.512,99.16284022308552,93.07218824745233,98.31259957995813,92.57847892459341,84.65065797105997,95.83390195473305
517.09,98.84963714039706,93.34285981048095,98.67166486261317,93.04997378107923,83.46539139402897,95.89670014143003
536.133,99.93208860589937,93.58814372669319,99.01030390281474,93.28316587311959,83.87593265017337,96.5254458669794
555.176,99.8491185220978,92.3591782787951,97.76652096527313,91.85436731974411,83.66909426394794,95.82626980839645
574.219,99.6158240985648,91.58961610601118,97.52653092157945,91.29509913943535,83.13554687723692,95.51609832237115
594.727,97.56424683623852,92.12179309467442,96.170288300843,89.79205760706112,82.35675918056292,94.0149591904955
615.234,99.13206023424982,89.4414461524971,97.0710508288146,90.35780454370921,82.01518600901018,94.88756789323429
637.207,98.2276849333851,88.784898782728,96.04471091961314,90.36813448918141,83.56817665308405,94.06311089257177
659.18,97.81070670478955,89.67412763025628,96.02160866718893,90.53442890949047,83.21942847664066,93.91285385106669
682.617,96.80811661904866,89.40027342004625,96.96322005873817,91.8026309549832,84.77589864126574,93.96223129465344
707.52,97.27583001877947,89.55440919576336,96.82849201212936,92.78754178784793,86.32272744389606,94.2779842005916
732.422,96.64670353719262,90.09783713646557,97.53900837537526,92.60829005364161,85.34117033010963,94.30799943265596
757.324,97.61100805055673,90.18728069882872,98.09711014386085,93.07148151679544,85.15609868995598,94.94752520315465
785.156,95.65422019648294,90.79209058755329,97.82404881015484,94.04849764492197,86.61397325346681,94.45111427482148
811.523,95.49645230184409,89.06456917955875,96.705539575195,95.2341920616032,88.01604129177527,94.1515906943822
840.82,99.0899864606686,91.66413821208765,96.53858005771613,96.08045202875111,86.73903212997617,95.7079244461453
870.117,99.30107505563807,92.52445175056548,99.33232312354171,96.53588900718843,86.65312619384112,96.78397945386503
900.879,97.74611413979146,90.40689139216026,98.85270055666943,97.62442934504816,88.15372319976093,96.26719091621244
933.105,95.54876746356145,90.57785554004728,98.32363999794573,97.8832386816817,87.89397587590446,95.63153116789654
965.332,94.70693551741077,90.20560119998679,99.01930302964635,98.57439943944986,89.21097936595332,96.02466365306982
1000.49,94.78082261273823,85.89123487834108,98.57571505510178,97.70630881226684,87.38921059304477,95.32602642186545
1035.64,91.51990420891585,85.34812196646915,98.41174449748969,96.75074731213242,85.16107131111546,94.39622954992035
1072.27,90.08629734009911,85.44831386080081,97.09628382898707,95.41249753623087,84.61859485207621,93.12258359937562
1108.89,90.54768702514198,87.15069757676069,96.40490578307852,93.62370414526605,82.051136719958,92.29792075058602
1148.44,90.18554021363671,86.662507088834,96.03625486845526,91.38888380505138,78.83969559694317,91.4458772444033
1189.45,88.59556001139322,87.43247280060841,95.98090238974011,90.01574934241525,77.11583930697165,91.00099635931058
1230.47,88.64354160082289,90.25628475076222,96.93474262459118,89.12727546776865,76.83262516909923,91.81604960562198
1274.41,90.26041747993641,91.18970745690083,96.5474374384927,89.6223186990823,77.45327265025703,91.96738111456773
1319.82,92.29451428638603,91.20666538001991,96.85768527750403,90.29694153558316,76.66047352099928,92.54489842982746
1366.7,92.38403089971133,91.5920090469319,96.40870778862002,89.6794707387002,76.22156493323526,92.31412105005634
1413.57,93.97389147966462,90.95928969266005,96.08150699613206,89.92731501201482,75.77082574985388,92.46580831001474
1463.38,94.53063813594856,91.46234438175082,96.12195341811534,89.44155147309515,77.54913115926207,92.68078687822072
1516.11,93.92834877979755,91.59529132567353,96.40917860990852,90.51945342896674,76.90332321810136,92.77156240515905
1568.85,93.82690654013186,91.13330444263158,96.41131805719179,90.4168315108834,76.08414756275145,92.66221449469892
1624.51,93.85515596432643,92.48942993574258,95.96164093235147,89.38705998969138,75.26126309184623,92.57749060065065
1681.64,94.28592137113627,91.82798001317462,95.37017411520831,88.86390500172224,75.81812240969039,92.28287682981741
1741.7,94.73000850242545,91.6704117644649,95.18967101926354,88.91331788080494,75.7690138423901,92.33532292468173
1803.22,94.9886825321358,90.63660053662987,96.17111280934738,88.61200194698016,77.1936592848604,92.66317368909729
1866.21,94.51800811273739,90.94253335115498,96.11987012521861,88.29011098895616,76.34845419205764,92.49571886343436
1932.13,94.2200722808818,90.52121618966528,95.23709440511935,88.05416848583332,76.52394982946458,91.92761026667095
1999.51,94.53878901517497,90.4783814636844,94.57584039276203,88.13027854990713,76.28476210508755,91.77295617600745
2069.82,94.00389377984834,91.01433085474247,94.60190874622603,88.94369393708533,76.41015820524782,91.75533581371717
2143.07,94.06983243305197,90.38529065725562,94.40757794216655,89.32066525695154,76.89471432566621,91.64859928400837
2219.24,93.8796481330592,90.01106302376145,93.41190617200265,88.91321725663066,76.11096243946416,91.11195610647397
2296.88,93.38506592013515,89.7986686863738,93.62065131379273,89.33079975248239,76.08394673561158,91.02743828578876
2378.91,92.85320973155243,89.00996471399245,94.39204899806556,90.19969140527235,77.0416668463774,91.1872423544408
2462.4,93.4497867273743,89.3739430111413,94.28187997665397,89.86996644016469,75.69603142203256,91.31406277270285
2548.83,93.8730124635769,89.15639328940816,93.86032283573776,89.33022940370431,75.63900499317545,91.19853434774254
2639.65,93.52126231809642,89.51029948681831,95.49838066333541,89.877465813874,74.99001176348166,91.87160533688278
2731.93,94.18403569431469,89.21943425247888,95.54407986717486,89.3027645391278,74.97166797487169,91.99949163918727
2828.61,94.75062272205587,88.74184079790093,95.02801494270322,88.16513480065314,74.10565646966857,91.81740026121798
2928.22,94.42898691776996,88.88832194322903,95.83671382255254,88.22419058787622,73.58107383969478,92.07806592293414
3030.76,94.3252684102563,88.65654311832982,96.32201304072228,88.78863649338119,74.5559858992457,92.31152769019309
3137.7,94.39521633495707,88.38175850296072,96.64299590666009,88.84405706689446,74.61462216642319,92.48058484173276
3249.02,94.35103494965935,88.71414186635447,96.98807667731278,88.96713670785552,74.51573265286457,92.68663886432722
3363.28,94.23919535492209,88.68734799858844,97.56806725755935,89.55693948885768,75.1423231001751,93.02815629196022
3481.93,93.87286697615852,89.02058633502106,97.35093139898663,89.5986436208933,76.05676854013402,92.84351861598368
3604.98,93.37457912008439,89.87783080989429,97.43416448343172,89.58197843183812,75.46938399900837,92.8463512007117
3732.42,93.22683509438295,90.59350303712618,97.84155041833654,89.50082541360096,74.55059583517509,93.11844482692278
3864.26,93.56738707910768,90.23769182264842,97.92785670294782,89.66941818871658,73.41569201774185,93.21568379962426
4000.49,94.17565042493875,90.48853170939732,97.77095182658898,89.20133561351133,72.4705108072006,93.25093942430348
4141.11,94.2028250272722,90.24279245591677,98.56366349196101,89.43607142566907,71.93456508436758,93.71707442195897
4287.6,94.12413424267689,89.95266244313927,98.05655181239229,88.3510004957728,71.3912225498786,93.28949931448268
4438.48,93.65608355039218,89.50294595369657,98.07441956378831,88.08020119175303,71.39071953723801,93.13344698097204
4595.21,93.25688828635931,88.83762422811593,97.95560724284094,88.01298595474675,72.1914918968459,92.91228444748678
4756.35,93.06729869606646,87.84013340734322,97.42487278865258,87.40388086908811,72.12896979319758,92.41940084441823
4924.8,92.49559365709008,87.99964947677753,97.90704806879897,88.00684558079578,72.16753970457118,92.66315075150725
5097.66,92.44629362490095,87.99762195481811,96.9438791085179,87.20056718884406,71.0484355183187,91.97124261786892
5277.83,91.82362879514152,87.55668967337392,97.28642025600949,86.98106436361904,68.49822500543011,92.0146178555496
5463.87,91.3179666009621,87.20898971823087,96.19035165324179,85.06258375920369,65.12802287733494,91.04757947201148
5657.23,90.8078176390243,86.791441423291,96.10629470863502,84.12721675672334,63.08092736611455,90.80808122674826
5856.45,90.25261356783541,86.15156452215008,95.79743502839327,83.67932346559296,65.37417991401968,90.42066727783741
6062.99,90.00512384366722,85.25626619279711,95.24864418874549,83.56072412818635,67.02452260002973,89.92756967327327
6276.86,89.85508676187595,83.85391585037057,94.43808622530258,82.79069731058766,65.47851422344557,89.22436927649986
6498.05,89.2532743922476,82.8262314849751,94.33591133062443,82.45445139639304,63.42531203034453,88.94956670387977
6726.56,88.77295909142809,81.87868357373004,94.11126480169709,82.11371720932885,58.32245072510666,88.63136917332119
6963.87,88.61018530305383,80.99015259577146,93.49482050677274,81.3277790283904,58.76625207283219,88.09467019485886
7209.96,88.63521581851585,80.50743430897664,93.61959670872774,81.30575987483029,60.808089228308674,88.1693510171879
7464.84,88.45441042818797,80.31601620974656,93.8474665411323,81.30486027602541,60.804678962216755,88.28601480380617
7727.05,87.68876053649096,80.3516168301603,93.20206362086203,80.9415096139566,58.241833058056656,87.6506017278338
7999.51,87.74758821113045,80.2999342985155,93.29730311030637,81.06873668743434,58.10010314622157,87.7344460826521
8282.23,87.53138761583858,79.97586457948967,93.40868261803155,80.50400306180816,59.71104597196522,87.73968731326038
8573.73,86.91740987500258,79.52821534102866,93.25171456660492,80.0910597603362,61.19912382786485,87.48065884954568
8876.95,86.24934048169774,79.74276488226043,93.08063517762311,79.92001105172791,61.16232636961634,87.23950863398791
9188.96,86.1997947847986,80.02596969332342,92.8447070514256,79.89357267488076,60.725078143128414,87.06100891345777
9514.16,85.65256409343102,79.11176154031041,92.41016110423398,79.28350582097342,59.481606875810414,86.58307727433558
