Freq "Ceiling Bounce"
20.5078 64.98980234082077
21.9727 67.27179651670647
23.4375 68.28419720541552
24.9023 70.42691500334564
26.3672 71.75695685486775
27.832 73.78612846026218
29.2969 75.67951891000337
30.7617 76.68752167788858
32.2266 78.56367699988944
33.6914 79.99791070617844
35.1562 81.27609627868617
36.6211 82.60115532936382
38.0859 83.74152794637507
39.5508 84.76229846861001
41.0156 85.6562888897781
42.4805 86.4974952592378
43.9453 87.24069255940162
45.4102 87.86219913930344
46.875 88.49094412881858
48.3398 89.02061650435277
51.2695 89.84301065090283
52.7344 90.26990345972743
54.1992 90.61039278118196
55.6641 90.87052448492796
58.5938 91.36726317310053
60.0586 91.65188234584012
62.9883 92.10936379263461
64.4531 92.32626404200025
67.3828 92.73768177768233
68.8477 92.94905838586438
71.7773 93.40555735464639
74.707 93.85321058112828
77.6367 94.19119556105917
79.1016 94.36085484812257
82.0312 94.72474840608545
84.9609 95.0676062226751
87.8906 95.24703081077654
90.8203 95.49538548998908
95.2148 95.70409408267508
98.1445 95.78507449573698
101.074 95.8652867481945
105.469 96.09434279800196
108.398 96.34862996744783
112.793 96.70793101673607
117.188 96.92722447012537
120.117 97.1275139433482
124.512 97.5391070307718
128.906 97.41570471754967
133.301 97.27317389853609
139.16 96.73067969403826
143.555 96.36943774803511
147.949 95.92358209530695
153.809 95.78276782972564
159.668 95.58826035116529
165.527 95.34663123100503
171.387 94.96705255210574
177.246 93.78445612499715
183.105 93.46882154729249
188.965 93.74923517326357
196.289 95.55882327415794
203.613 96.50870757228023
210.938 96.37013914323634
218.262 94.7730423121476
225.586 94.8902357444082
232.91 96.15412952246834
241.699 96.14995846815754
250.488 95.85914662658973
259.277 95.40675492630028
268.066 94.93765398814976
276.855 94.3754822541055
287.109 94.62794559114758
297.363 94.98848245752056
307.617 95.20686941013994
319.336 95.48843876653058
329.59 95.5004828612379
341.309 94.7279331761402
353.027 94.73459000186463
366.211 95.44399688088467
379.395 95.73923300376391
392.578 95.73648909375578
405.762 94.83617166152099
420.41 94.79504699204355
435.059 93.8806755561516
451.172 94.49679435545386
465.82 93.50875950869892
483.398 93.5749483829008
499.512 93.83423824745236
517.09 94.10490981048098
536.133 94.35019372669322
555.176 93.12122827879513
574.219 92.35166610601121
594.727 92.88384309467445
615.234 90.20349615249712
637.207 89.54694878272804
659.18 90.43617763025631
682.617 90.16232342004628
707.52 90.31645919576339
732.422 90.8598871364656
757.324 90.94933069882875
785.156 91.55414058755332
811.523 89.82661917955878
840.82 92.42618821208768
870.117 93.2865017505655
900.879 91.16894139216029
933.105 91.33990554004731
965.332 90.96765119998682
1000.49 86.65328487834111
1035.64 86.11017196646918
1072.27 86.21036386080084
1108.89 87.91274757676072
1148.44 87.42455708883404
1189.45 88.19452280060844
1230.47 91.01833475076225
1274.41 91.95175745690086
1319.82 91.96871538001994
1366.7 92.35405904693194
1413.57 91.72133969266008
1463.38 92.22439438175086
1516.11 92.35734132567356
1568.85 91.89535444263161
1624.51 93.25147993574261
1681.64 92.59003001317465
1741.7 92.43246176446493
1803.22 91.3986505366299
1866.21 91.70458335115501
1932.13 91.28326618966531
1999.51 91.24043146368443
2069.82 91.7763808547425
2143.07 91.14734065725565
2219.24 90.77311302376148
2296.88 90.56071868637383
2378.91 89.77201471399248
2462.4 90.13599301114132
2548.83 89.91844328940819
2639.65 90.27234948681834
2731.93 89.98148425247891
2828.61 89.50389079790097
2928.22 89.65037194322906
3030.76 89.41859311832985
3137.7 89.14380850296075
3249.02 89.4761918663545
3363.28 89.44939799858847
3481.93 89.7826363350211
3604.98 90.63988080989432
3732.42 91.35555303712621
3864.26 90.99974182264845
4000.49 91.25058170939735
4141.11 91.0048424559168
4287.6 90.7147124431393
4438.48 90.2649959536966
4595.21 89.59967422811596
4756.35 88.60218340734325
4924.8 88.76169947677757
5097.66 88.75967195481815
5277.83 88.31873967337395
5463.87 87.9710397182309
5657.23 87.55349142329104
5856.45 86.91361452215011
6062.99 86.01831619279714
6276.86 84.6159658503706
6498.05 83.58828148497513
6726.56 82.64073357373007
6963.87 81.7522025957715
7209.96 81.26948430897667
7464.84 81.0780662097466
7727.05 81.11366683016033
7999.51 81.06198429851553
8282.23 80.7379145794897
8573.73 80.29026534102869
8876.95 80.50481488226046
9188.96 80.78801969332345
9514.16 79.87381154031044
9849.61 78.77666314580885
10196.8 78.80850152941292
10555.7 77.54514376226345
10927.7 76.92213028742542
11313.0 77.1679448828839
11712.9 77.07106991476104
12126.0 78.28127587610726
12553.7 78.410241941704
12996.1 79.07781446187585
13454.6 78.0668736236098
13929.2 77.03842335922073
14419.9 76.33855788870305
14928.2 76.75066661056874
15455.6 76.52552580176454
16000.5 75.3546738588814
16564.5 75.96377893062152
17148.9 76.87324682019847
17752.4 78.72608742422575
18379.4 77.55796861095651
19026.9 82.69597465822271
19697.8 79.04761415581113
19999.5 75.83525207536815
