Freq "Floor Bounce"
22.4 56.83513059177984
23.0 57.00306957104252
23.6 57.16845083805433
24.0 57.368450838054336
25.0 57.535130591779826
25.8 57.63513059177982
26.5 57.76845083805434
27.2 57.900767494455614
28.0 58.035130591779826
29.0 58.135130591779834
30.0 58.23513059177983
30.7 58.26845083805433
31.5 58.368450838054336
32.5 58.435130591779846
33.5 58.50076749445562
34.5 58.56845083805434
35.5 58.63513059177982
36.5 58.66845083805432
37.5 58.73513059177983
38.7 58.768450838054314
40.0 58.768450838054314
41.2 58.83513059177982
42.5 58.868450838054336
43.7 58.868450838054336
45.0 58.900767494455614
46.2 58.93513059177983
47.5 58.96845083805433
48.7 58.96845083805433
50.0 58.96845083805433
51.5 58.96845083805433
53.0 59.00306957104251
54.5 59.035130591779826
56.0 59.035130591779826
58.0 59.035130591779826
60.0 59.00306957104251
61.5 59.00306957104251
63.0 58.96845083805433
65.0 58.96845083805433
67.0 58.96845083805433
69.0 58.96845083805433
71.0 58.93513059177983
73.0 58.93513059177983
75.0 58.93513059177983
77.5 58.868450838054336
80.0 58.868450838054336
82.5 58.83513059177982
85.0 58.83513059177982
87.5 58.83513059177982
90.0 58.80306957104252
92.5 58.768450838054314
95.0 58.768450838054314
97.5 58.768450838054314
100.0 58.768450838054314
103.0 58.80306957104252
106.0 58.83513059177982
109.0 58.83513059177982
112.0 58.868450838054336
115.0 58.868450838054336
118.0 58.93513059177983
122.0 58.96845083805433
125.0 59.035130591779826
128.0 59.10076749445562
132.0 59.16845083805433
136.0 59.26845083805433
140.0 59.33513059177984
145.0 59.43513059177983
150.0 59.53513059177984
155.0 59.635130591779834
160.0 59.73513059177983
165.0 59.83513059177982
170.0 59.96845083805433
175.0 60.068450838054325
180.0 60.16845083805432
185.0 60.26845083805433
190.0 60.36845083805432
195.0 60.468450838054316
200.0 60.56845083805434
206.0 60.700767494455626
212.0 60.76845083805433
218.0 60.83513059177982
224.0 60.90076749445563
230.0 61.00076749445562
236.0 61.03513059177984
240.0 61.10076749445562
250.0 61.16845083805432
258.0 61.20076749445561
265.0 61.20076749445561
272.0 61.20076749445561
280.0 61.20076749445561
290.0 61.20076749445561
300.0 61.20076749445561
307.0 61.20076749445561
315.0 61.13435140868503
325.0 61.10076749445562
335.0 61.10076749445562
345.0 61.00076749445562
355.0 61.00076749445562
365.0 60.90076749445563
375.0 60.90076749445563
387.0 60.80076749445562
400.0 60.700767494455626
412.0 60.700767494455626
425.0 60.60076749445562
437.0 60.50076749445561
450.0 60.50076749445561
462.0 60.400767494455614
475.0 60.30076749445562
487.0 60.30076749445562
500.0 60.20076749445561
515.0 60.10076749445562
530.0 60.10076749445562
545.0 60.00076749445561
560.0 59.93435140868501
580.0 59.9007674944556
600.0 59.800767494455634
615.0 59.800767494455634
630.0 59.700767494455626
650.0 59.700767494455626
670.0 59.60076749445563
690.0 59.60076749445563
710.0 59.53435140868502
730.0 59.50076749445562
750.0 59.400767494455614
775.0 59.400767494455614
800.0 59.33435140868503
825.0 59.30076749445562
850.0 59.26845083805433
875.0 59.16845083805433
900.0 59.16845083805433
925.0 59.10076749445562
950.0 59.068450838054325
975.0 59.00306957104251
1000.0 58.96845083805433
1030.0 58.90306957104253
1060.0 58.80306957104252
1090.0 58.80306957104252
1120.0 58.73821129888744
1150.0 58.706905010354596
1180.0 58.638211298887434
1220.0 58.60690501035459
1250.0 58.50690501035459
1280.0 58.50690501035459
1320.0 58.442830304719756
1360.0 58.442830304719756
1400.0 58.379287326074326
1450.0 58.34283030471975
1500.0 58.3122717831562
1550.0 58.24898514879552
1600.0 58.24898514879552
1650.0 58.24898514879552
1700.0 58.21916705502755
1750.0 58.21916705502755
1800.0 58.21916705502755
1850.0 58.189828566734725
1900.0 58.189828566734725
1950.0 58.189828566734725
2000.0 58.189828566734725
2060.0 58.26096514237184
2120.0 58.26096514237184
2180.0 58.3234968506598
2240.0 58.36096514237183
2300.0 58.3948570588317
2360.0 58.494857058831705
2400.0 58.494857058831705
2500.0 58.566685527900226
2580.0 58.62926676879422
2650.0 58.70131827952114
2720.0 58.70131827952114
2800.0 58.80131827952113
2900.0 58.87383110211923
3000.0 58.909209252269385
3070.0 58.97383110211924
3150.0 59.00920925226938
3250.0 59.082398607607736
3350.0 59.082398607607736
3450.0 59.1560373652456
3550.0 59.1560373652456
3650.0 59.2301206597481
3750.0 59.2301206597481
3870.0 59.243146838921554
4000.0 59.243146838921554
4120.0 59.282196718458
4250.0 59.257598821275415
4370.0 59.23342548668361
4500.0 59.23342548668361
4620.0 59.214068395270026
4750.0 59.190752786535306
4870.0 59.132128228527556
5000.0 59.109439536652296
5150.0 59.051593168598735
5300.0 58.99430925610405
5450.0 58.95099006382059
5600.0 58.894702186210246
5800.0 58.83898164121285
6000.0 58.78382992528653
6150.0 58.72924838946488
6300.0 58.70901938277
6500.0 58.655222808962996
6700.0 58.58256065499534
6900.0 58.530121772216525
7100.0 58.47825745704102
7300.0 58.45959385611935
7500.0 58.40851320750934
7750.0 58.326968202942304
8000.0 58.30851320750933
8250.0 58.2580080476934
8500.0 58.2580080476934
8750.0 58.20807851055698
9000.0 58.20807851055698
9250.0 58.19037884047719
9500.0 58.108078510556986
9750.0 58.09037884047719
10000.0 58.05872457742296
10300.0 58.00807851055699
10600.0 57.9903788404772
10900.0 57.9903788404772
11200.0 57.90807851055698
11500.0 57.90807851055698
11800.0 57.80807851055699
12200.0 57.80807851055699
12500.0 57.70807851055698
12800.0 57.65800804769342
13200.0 57.55800804769343
13600.0 57.45800804769342
14000.0 57.4261160916701
14500.0 57.30851320750934
15000.0 57.17625435142637
15500.0 57.05800804769341
16000.0 56.95800804769343
16500.0 56.77625435142637
17000.0 56.608513207509326
17500.0 56.45800804769343
18000.0 56.258008047693416
18500.0 56.05800804769341
19000.0 55.858008047693424
19500.0 55.576254351426364
