Freq "Side Wall Bounce"
22.4 54.99802475426557
23.0 55.17472229721493
23.6 55.34504029332027
24.0 55.51916838201099
25.0 55.698024754265575
25.8 55.819168382010986
26.5 55.94504029332026
27.2 56.068502126398286
28.0 56.19802475426556
29.0 56.29802475426558
30.0 56.39802475426558
30.7 56.445040293320275
31.5 56.545040293320255
32.5 56.619168382011
33.5 56.668502126398295
34.5 56.719168382011006
35.5 56.79802475426557
36.5 56.84504029332027
37.5 56.89802475426556
38.7 56.919168382010994
40.0 56.974722297214925
41.2 56.99802475426556
42.5 57.045040293320255
43.7 57.05654723961199
45.0 57.09802475426558
46.2 57.119168382011
47.5 57.13074399084395
48.7 57.156547239611996
50.0 57.17472229721494
51.5 57.198024754265575
53.0 57.198024754265575
54.5 57.198024754265575
56.0 57.198024754265575
58.0 57.198024754265575
60.0 57.198024754265575
61.5 57.17472229721494
63.0 57.14504029332025
65.0 57.14504029332025
67.0 57.119168382011
69.0 57.119168382011
71.0 57.08662732616783
73.0 57.045040293320255
75.0 57.033765744646104
77.5 57.01269323726626
80.0 56.986627326167834
82.5 56.933765744646095
85.0 56.933765744646095
87.5 56.933765744646095
90.0 56.901593181758315
92.5 56.85728840033235
95.0 56.85728840033235
97.5 56.85728840033235
100.0 56.85728840033235
103.0 56.901593181758315
106.0 56.933765744646095
109.0 56.933765744646095
112.0 56.95728840033236
115.0 57.033765744646104
118.0 57.06850212639827
122.0 57.14504029332025
125.0 57.21916838201099
128.0 57.319168382010986
132.0 57.40965678077198
136.0 57.53074399084397
140.0 57.642557376647574
145.0 57.75461275773468
150.0 57.885046213319384
155.0 58.01869215974327
160.0 58.17256961454788
165.0 58.30660213212856
170.0 58.46255997231087
175.0 58.598484245576415
180.0 58.76468350144975
185.0 58.899690775169944
190.0 59.07845187495856
195.0 59.192495913449406
200.0 59.36069368364511
206.0 59.516133653669286
212.0 59.65203444561412
218.0 59.767172811824224
224.0 59.882609362124455
230.0 60.016768616025416
236.0 60.1327481278538
240.0 60.210159298276295
250.0 60.30493458481712
258.0 60.34322881985466
265.0 60.42171130361825
272.0 60.478826847874075
280.0 60.49609687887832
290.0 60.513698372796284
300.0 60.513698372796284
307.0 60.55034056676337
315.0 60.55034056676337
325.0 60.526141893916005
335.0 60.50733290240271
345.0 60.4662731385247
355.0 60.44486977614956
365.0 60.40598456990742
375.0 60.344869776149565
387.0 60.304165031273385
400.0 60.24486977614957
412.0 60.182948054372815
425.0 60.12342518384304
437.0 60.08294805437282
450.0 59.9829480543728
462.0 59.92342518384305
475.0 59.86395064819496
487.0 59.80230232064049
500.0 59.723425183843034
515.0 59.68338957194297
530.0 59.58338957194297
545.0 59.52523667270712
560.0 59.46482741630635
580.0 59.40685289384959
600.0 59.346610814729104
615.0 59.26800561954845
630.0 59.1711092326461
650.0 59.132763768923695
670.0 59.053739350527465
690.0 58.99589397294763
710.0 58.93669747181984
730.0 58.840538193482814
750.0 58.783777704936085
775.0 58.68377770493609
800.0 58.63218384578009
825.0 58.5321838457801
850.0 58.454658704872514
875.0 58.36105189323138
900.0 58.28389691879735
925.0 58.16881683746894
950.0 58.114318363061756
975.0 57.99968516645032
1000.0 57.880760992204074
1030.0 57.79023996947517
1060.0 57.698954371067146
1090.0 57.580458763386716
1120.0 57.491139350230526
1150.0 57.3526270905632
1180.0 57.22118513418357
1220.0 57.14645813512027
1250.0 56.995484590790966
1280.0 56.89548459079096
1320.0 56.79125890284753
1360.0 56.67436390364756
1400.0 56.59233719987854
1450.0 56.475831616166715
1500.0 56.403189833744506
1550.0 56.2871009912479
1600.0 56.16767870981903
1650.0 56.08321931780554
1700.0 56.024237419314346
1750.0 55.93280020140932
1800.0 55.86172780029199
1850.0 55.82529552561597
1900.0 55.79113108276327
1950.0 55.73341162565731
2000.0 55.7210145819634
2060.0 55.663693548687135
2120.0 55.663693548687135
2180.0 55.640205653494974
2240.0 55.62188526318731
2300.0 55.63456811057735
2360.0 55.665544659427056
2400.0 55.642602635942836
2500.0 55.655518794215666
2580.0 55.655518794215666
2650.0 55.68706227255116
2720.0 55.66475490858605
2800.0 55.64695352066647
2900.0 55.679292498258704
3000.0 55.679292498258704
3070.0 55.640030368095694
3150.0 55.612137331652136
3250.0 55.59493109529673
3350.0 55.52841769682283
3450.0 55.479360524924275
3550.0 55.418579361855194
3650.0 55.341108266015254
3750.0 55.250473023968766
3870.0 55.166893990124535
4000.0 55.0038344128006
4120.0 54.85200399265818
4250.0 54.72666719528239
4370.0 54.54988068509924
4500.0 54.38003271921271
4620.0 54.18416395026357
4750.0 53.99267073234786
4870.0 53.781056725018686
5000.0 53.59852034293385
5150.0 53.34840620430636
5300.0 53.15645071419222
5450.0 52.948937579307085
5600.0 52.77679959701335
5800.0 52.52809407486578
6000.0 52.335619911446926
6150.0 52.16032197821582
6300.0 51.96798127397025
6500.0 51.758874616696374
6700.0 51.582803857914826
6900.0 51.44519998321431
7100.0 51.297233009883755
7300.0 51.13983084631495
7500.0 51.027905777951645
7750.0 50.877714537456555
8000.0 50.791861380528786
8250.0 50.673624605730595
8500.0 50.61919788049104
8750.0 50.51919788049105
9000.0 50.50169208233601
9250.0 50.401692082335984
9500.0 50.38451632064938
9750.0 50.32610588349556
10000.0 50.28451632064939
10300.0 50.28451632064939
10600.0 50.22951984242563
10900.0 50.201692082335995
11200.0 50.201692082335995
11500.0 50.201692082335995
11800.0 50.11919788049103
12200.0 50.11039631741839
12500.0 50.05572865880747
12800.0 50.02806886236576
13200.0 49.97362460573059
13600.0 49.93172523013736
14000.0 49.846078913817195
14500.0 49.74980493555219
15000.0 49.6498049355522
15500.0 49.5498049355522
16000.0 49.391861380528795
16500.0 49.24980493555219
17000.0 49.0553102711778
17500.0 48.891861380528795
18000.0 48.69186138052879
18500.0 48.4918613805288
19000.0 48.291861380528786
19500.0 48.05531027117782
