Freq "Ceiling Bounce"
22.4 31.526104803897127
23.0 31.970695979694412
23.6 32.47069597969438
24.0 33.212857039054754
25.0 33.92610480389713
25.8 34.57069597969438
26.5 35.1706959796944
27.2 35.81285703905475
28.0 39.726104803897144
29.0 42.71285703905478
30.0 44.526104803897155
30.7 45.93961944395362
31.5 47.80965974038499
32.5 51.58181004311827
33.5 53.85312555245277
34.5 55.41037773428077
35.5 56.74110857395503
36.5 58.75692793017829
37.5 60.31519459689268
38.7 61.507216158366035
40.0 62.02429722244888
41.2 61.55945011735395
42.5 60.917529586736876
43.7 60.79842091253954
45.0 63.400740426864886
46.2 65.20578651300052
47.5 66.72728642985336
48.7 68.70123692960031
50.0 70.1901463213552
51.5 71.48035075830542
53.0 72.79672305006468
54.5 73.89014765320408
56.0 75.44244951699822
58.0 76.91144713119597
60.0 77.80813934785445
61.5 78.13580195262502
63.0 78.39386412990886
65.0 78.92226187112637
67.0 79.42226187112635
69.0 80.35113012206577
71.0 81.18115462103933
73.0 81.28319775355357
75.0 81.34266593306732
77.5 82.01440173152001
80.0 82.34610212944514
82.5 81.71100890796411
85.0 82.18382270334465
87.5 83.2172450095395
90.0 83.49071777013367
92.5 83.72486148647104
95.0 83.8989854423994
97.5 82.83385509955585
100.0 82.03385509955585
103.0 81.87354857950535
106.0 81.23385509955585
109.0 81.17354857950535
112.0 80.97354857950536
115.0 80.69898544239939
118.0 80.83899743603835
122.0 81.76463687540935
125.0 82.0308056564236
128.0 82.59071777013365
132.0 82.29071777013365
136.0 82.89071777013366
140.0 84.0172450095395
145.0 84.91724500953949
150.0 85.41724500953949
155.0 83.51724500953951
160.0 82.14422344435626
165.0 81.74422344435625
170.0 81.7716578832719
175.0 83.1716578832719
180.0 83.80517357755004
185.0 82.83285501929869
190.0 82.86667033964105
195.0 84.23285501929867
200.0 82.96099976776495
206.0 79.79459749692128
212.0 80.99459749692127
218.0 83.22299045882754
224.0 82.12299045882752
230.0 83.0855221671155
236.0 82.2518538831904
240.0 79.55185388319042
250.0 79.2855221671155
258.0 84.02299045882752
265.0 84.92299045882751
272.0 82.73285501929867
280.0 83.59955308945598
290.0 83.91100890796412
300.0 82.05091078800574
307.0 81.36467981985909
315.0 81.53844161377722
325.0 81.7544043045537
335.0 81.9220249339056
345.0 82.02929090505181
355.0 82.02929090505181
365.0 82.02929090505181
375.0 82.02929090505181
387.0 82.07185387202325
400.0 82.04741242111469
412.0 81.94741242111468
425.0 81.74741242111469
437.0 81.49078141773883
450.0 81.24741242111467
462.0 81.12339369268334
475.0 81.14363740178992
487.0 81.21117735644401
500.0 81.28804984002262
515.0 81.33303143657052
530.0 81.23303143657053
545.0 81.15633276190235
560.0 80.83447780853216
580.0 80.28106981430913
600.0 79.45983516027428
615.0 78.55983516027428
630.0 77.81850845060397
650.0 77.31477525859931
670.0 77.07581528401161
690.0 77.20652191065277
710.0 77.62074989387865
730.0 77.85468287136565
750.0 77.74270385270657
775.0 77.22646212148659
800.0 76.48001272594588
825.0 75.18001272594587
850.0 73.81241141473828
875.0 73.11650246976204
900.0 73.1173843879162
925.0 73.49424566436801
950.0 73.85583395648398
975.0 74.17392940283703
1000.0 74.45138379478354
1030.0 74.99023688848288
1060.0 75.67660557958585
1090.0 76.70785678802967
1120.0 78.11498068433349
1150.0 79.4997926593111
1180.0 80.65382347322978
1220.0 80.95422578797142
1250.0 80.34585524174223
1280.0 79.25118470937811
1320.0 78.85937800908395
1360.0 79.31873876609619
1400.0 79.3167497533875
1450.0 78.45550631452754
1500.0 77.6713202610703
1550.0 77.05416617705151
1600.0 76.20399820739698
1650.0 74.49346357113264
1700.0 72.53190881682373
1750.0 71.7549953756471
1800.0 72.21918739229672
1850.0 72.80165551211088
1900.0 73.0269970597399
1950.0 72.66667443857165
2000.0 71.71400734599119
2060.0 71.13497940694869
2120.0 71.16255492700058
2180.0 70.35421262583735
2240.0 69.07375378082949
2300.0 69.41029649666402
2360.0 70.33787139172715
2400.0 70.69214896909217
2500.0 70.75662661682648
2580.0 71.04104501346093
2650.0 71.56278775772759
2720.0 71.93681901794791
2800.0 72.63927773595842
2900.0 73.18852721654258
3000.0 73.5012365996852
3070.0 74.07053852396504
3150.0 74.44433181602412
3250.0 74.80256032823394
3350.0 74.6744917290705
3450.0 74.25966871048286
3550.0 73.80292001206148
3650.0 73.4632599675371
3750.0 73.33124467221539
3870.0 73.49290848800204
4000.0 73.77628940523961
4120.0 74.48923053356384
4250.0 74.28923053356384
4370.0 74.53842656074566
4500.0 74.71446184467072
4620.0 74.65499537564712
4750.0 74.93813225706492
4870.0 74.63557323926605
5000.0 73.70998975374866
5150.0 73.50998975374866
5300.0 73.49362498483147
5450.0 72.97757292653824
5600.0 72.53124467221538
5800.0 72.73295780876997
6000.0 73.080401586184
6150.0 72.59326082429534
6300.0 71.67659123730063
6500.0 71.14603098975724
6700.0 71.30859946796653
6900.0 71.61843366988982
7100.0 72.27659123730062
7300.0 72.88190202031466
7500.0 73.06790834210467
7750.0 72.40615419453069
8000.0 72.1204179817856
8250.0 72.1087690318141
8500.0 72.7980120398272
8750.0 72.74871612750748
9000.0 72.02470462812965
9250.0 71.42522398298262
9500.0 71.85149348801272
9750.0 72.27989333027037
10000.0 72.47989333027039
10300.0 73.7661912514395
10600.0 74.60152149560804
10900.0 75.24596145017745
11200.0 76.21952863511036
11500.0 77.19525016737362
11800.0 74.24402363973292
12200.0 68.7087690318141
12500.0 75.74903840445238
12800.0 76.47521285962416
13200.0 75.0204179817856
13600.0 75.20652666377669
14000.0 76.02770472255605
14500.0 75.03819950258978
15000.0 75.18844571070163
15500.0 74.81577348116053
16000.0 70.73373277514844
16500.0 65.78832803703949
17000.0 66.21103822369872
17500.0 64.38895355879781
18000.0 57.55684212941948
18500.0 57.65684212941947
19000.0 55.05684212941948
19500.0 49.71034226024621
