Freq "Front Wall Bounce"
22.4 32.70793656200618
23.0 33.14393159519324
23.6 33.62409167098443
24.0 34.37311181522
25.0 35.10793656200616
25.8 35.74393159519323
26.5 36.343931595193226
27.2 36.973111815219994
28.0 40.90793656200617
29.0 43.87311181522
30.0 45.72409167098445
30.7 47.07311181521999
31.5 48.909395434698524
32.5 52.65904030371388
33.5 54.909395434698524
34.5 56.429765064054834
35.5 57.7462130372451
36.5 59.7124838704643
37.5 61.21248387046428
38.7 62.37926744264219
40.0 62.90025514987916
41.2 62.50025514987915
42.5 61.94338881317789
43.7 61.843388813177896
45.0 64.43348307485309
46.2 66.3562056014552
47.5 67.95620560145521
48.7 69.94810522540146
50.0 71.50287628300401
51.5 72.85546484617882
53.0 74.30433100962667
54.5 75.47602210108667
56.0 77.12940676691628
58.0 78.65491760385288
60.0 79.63924275721992
61.5 80.00914589305827
63.0 80.39177750674625
65.0 80.89177750674625
67.0 81.49177750674625
69.0 82.50362500576276
71.0 83.3187186515055
73.0 83.40362500576275
75.0 83.50362500576274
77.5 84.20362500576275
80.0 84.50362500576274
82.5 83.8610623520767
85.0 84.33376002181025
87.5 85.33376002181024
90.0 85.53376002181025
92.5 85.83376002181025
95.0 85.93376002181024
97.5 84.86438202151021
100.0 84.09212260426057
103.0 83.89212260426056
106.0 83.20691231221836
109.0 83.10691231221837
112.0 82.95000634017072
115.0 82.63502122931327
118.0 82.75000634017073
122.0 83.70879413841813
125.0 83.95000634017072
128.0 84.47848478147016
132.0 84.17848478147016
136.0 84.77848478147015
140.0 85.87848478147016
145.0 86.77848478147017
150.0 87.20743452896758
155.0 85.27848478147015
160.0 83.87848478147015
165.0 83.47848478147017
170.0 83.37848478147016
175.0 84.77848478147015
180.0 85.27848478147015
185.0 84.33502122931327
190.0 84.27848478147017
195.0 85.57848478147017
200.0 84.23502122931328
206.0 81.05000634017073
212.0 82.15000634017072
218.0 84.27848478147017
224.0 83.0936659009678
230.0 83.99366590096783
236.0 83.0936659009678
240.0 80.39366590096782
250.0 80.09366590096782
258.0 84.80914589305829
265.0 85.80914589305827
272.0 83.73924275721993
280.0 84.78336396340043
290.0 85.2392427572199
300.0 83.58539130564125
307.0 83.08539130564125
315.0 83.41363940606881
325.0 83.78539130564126
335.0 84.08539130564125
345.0 84.28539130564124
355.0 84.38539130564126
365.0 84.44440310243668
375.0 84.44440310243668
387.0 84.44440310243668
400.0 84.3600593685791
412.0 84.19120358948828
425.0 83.88242230727826
437.0 83.458217088195
450.0 82.97455785944568
462.0 82.65086213388186
475.0 82.49942293182198
487.0 82.39343859806334
500.0 82.39343859806334
515.0 82.42579638388722
530.0 82.47091054784845
545.0 82.60343598990848
560.0 82.62076211162326
580.0 82.47091054784845
600.0 82.10343598990846
615.0 81.70343598990846
630.0 81.43156734312868
650.0 81.28147278830731
670.0 81.28147278830731
690.0 81.57740200741135
710.0 82.11063265137014
730.0 82.45923203800297
750.0 82.41155865308228
775.0 82.07194694757592
800.0 81.47146493467719
825.0 80.72528439454827
850.0 79.96049321533054
875.0 80.0066916966184
900.0 80.8066916966184
925.0 81.9066916966184
950.0 82.94205096067421
975.0 83.4876285233883
1000.0 83.6420509606742
1030.0 83.5420509606742
1060.0 83.2420509606742
1090.0 83.0420509606742
1120.0 83.02395252405529
1150.0 82.89704392842236
1180.0 82.59871783145499
1220.0 81.61765297607172
1250.0 80.07423355740436
1280.0 78.4775686848041
1320.0 78.0148353058987
1360.0 78.86120041263558
1400.0 79.54514490518248
1450.0 79.68759779267656
1500.0 80.09333061072999
1550.0 80.9234401254341
1600.0 81.45601300285676
1650.0 80.99847192723996
1700.0 80.07824849288795
1750.0 80.05979969826092
1800.0 81.04648003368536
1850.0 81.91333966644937
1900.0 82.29524535434022
1950.0 81.92008835397465
2000.0 80.88332913545747
2060.0 80.35504409801047
2120.0 80.65855373053782
2180.0 80.18496230688137
2240.0 79.35015468908392
2300.0 80.12799917364767
2360.0 81.47633787215668
2400.0 82.08557517009339
2500.0 82.18290999663097
2580.0 82.25629976897586
2650.0 82.40105373653967
2720.0 82.18495392337151
2800.0 82.19730851177998
2900.0 82.00991459708928
3000.0 81.67318634874424
3070.0 81.47318634874424
3150.0 81.33699152992554
3250.0 81.32474947409682
3350.0 80.97278920407062
3450.0 80.52496541421951
3550.0 80.07355337235302
3650.0 79.93796479517319
3750.0 80.12798625219747
3870.0 80.59049132677146
4000.0 81.25623987269954
4120.0 82.27236492286279
4250.0 82.4415718847077
4370.0 83.0127801275112
4500.0 83.4264045790835
4620.0 83.58792846321947
4750.0 84.06567123143407
4870.0 83.9543117492476
5000.0 83.13977904550231
5150.0 83.128775802926
5300.0 83.12180458507947
5450.0 82.7562914861343
5600.0 82.44451070531511
5800.0 82.63662779947975
6000.0 83.07607854562372
6150.0 82.64028574845482
6300.0 81.74414312274827
6500.0 81.19602742785452
6700.0 81.29979094338103
6900.0 81.58338766810108
7100.0 82.20036870357046
7300.0 82.76827862680992
7500.0 83.0427385189629
7750.0 82.49644643630266
8000.0 82.27917097442295
8250.0 82.51266676213194
8500.0 83.4768521306321
8750.0 83.77240714707573
9000.0 83.32077869104043
9250.0 83.05415342298002
9500.0 83.78031760459584
9750.0 84.27764265035614
10000.0 84.5809758613852
10300.0 85.72043601199914
10600.0 86.27425473233825
10900.0 86.51071374956878
11200.0 87.06552926364422
11500.0 87.53943330185088
11800.0 84.06385398789685
12200.0 78.02444375660635
12500.0 84.73985938360605
12800.0 85.23204506686113
13200.0 83.70954142785519
13600.0 83.96724775130863
14000.0 85.05389255519458
14500.0 84.44745895766152
15000.0 85.07005806008866
15500.0 85.22946441982762
16000.0 81.5746888306875
16500.0 77.0982952220079
17000.0 77.85523828599919
17500.0 76.38087239990988
18000.0 69.80148496609328
18500.0 70.21247759430814
19000.0 67.9322848229629
19500.0 63.2207837910007
