Freq,Floor Bounce,Ceiling Bounce,Front Wall Bounce,Side Wall Bounce,Rear Wall Bounce,Total Early Reflection
20.0,61.306101001534444,61.58946634438769,60.43001393026279,61.22864741257061,61.54657091161857,61.23957874052488
20.2909,61.999767494455625,62.267450838054316,61.129129300826804,61.9113520154155,62.21874893959213,61.92396171967641
20.586,62.677767494455594,62.94545083805431,61.810257221782365,62.5893520154155,62.86783358322839,62.59631050906438
20.8855,63.199767494455614,63.46745083805433,62.343457184037874,63.11135201541549,63.38983358322838,63.120181655530786
21.1893,63.8997674944556,64.16745083805432,63.04345718403786,63.81135201541551,64.0898335832284,63.8201816555308
21.4975,64.39976749445563,64.64407297709641,63.54345718403786,64.28122460440551,64.55941256819415,64.3026513798896
21.8102,64.91808544205105,65.15272689311803,64.0913987596328,64.80243282647976,65.05832342001469,64.82033899188721
22.1274,65.33258982687997,65.55339401117996,64.52912930082684,65.22018364695074,65.45874935345716,65.23347571656629
22.4492,65.72236057811199,65.90313059177981,64.90254074771326,65.57671365415902,65.81545980297165,65.5982785553494
22.7758,66.09976749445562,66.23413059177983,65.24345718403785,65.90771365415904,66.14429487922877,65.94010321248987
23.1071,66.29976749445561,66.43413059177982,65.44622315761572,66.10962158806524,66.33283789865996,66.13855459197603
23.4432,66.3997674944556,66.53413059177984,65.57247550139047,66.22695368958642,66.41202837922444,66.24215181007418
23.7841,66.49976749445563,66.63413059177984,65.72564520879601,66.32695368958642,66.50248313460878,66.34933323778412
24.1301,66.63995449288345,66.74513059177983,65.85286725208664,66.43795368958641,66.61298059159898,66.4690994157923
24.4811,67.0615463882477,67.13413059177984,66.24345718403788,66.82695368958642,67.00198059159897,66.86517505318517
24.8372,67.86669521305294,67.93413059177982,67.06655471460957,67.64211410449508,67.80198059159895,67.67327032204125
25.1984,68.89344451087632,68.96108059384048,68.11810326821646,68.66139729698997,68.80198059159898,68.69741185570001
25.5649,70.01876749445563,70.11258854199133,69.2597131001371,69.8014424566241,69.91213224774808,69.83098683251265
25.9368,71.15528157504949,71.19976749445561,70.34345718403787,70.8865189417038,70.98100181617619,70.92378122053265
26.3141,71.86669521305295,71.89976749445562,71.06739553978315,71.61892360570036,71.67881224784585,71.63638017849819
26.6968,72.37669521305293,72.40976749445562,71.64622315761574,72.13423667270712,72.19777821358807,72.16139724401452
27.0851,72.69843480600134,72.69976749445561,71.94345718403787,72.42423667270711,72.48878479368605,72.45957359243617
27.4791,72.96369521305294,72.93113059177983,72.16959947185245,72.62245808316605,72.68612406896389,72.68382153523332
27.8788,72.96669521305294,72.9383354266184,72.21787478648668,72.66761295070475,72.70080324794199,72.70644720494357
28.2843,73.27495764377862,73.26669521305294,72.55010326588125,72.98838684890823,73.00484008045808,73.02488248847851
28.6957,73.98879497882822,73.93069521305293,73.24051905873344,73.66712263968753,73.67246764159177,73.70786044430787
29.1131,74.86669521305296,74.78316764586684,74.11458053548427,74.50312263968752,74.530195325254,74.56744093319845
29.5365,75.68948903487723,75.59976749445562,74.9617979298505,75.32935893602921,75.34552903310347,75.39254723093829
29.9661,76.50131994589775,76.4552815750495,75.77132492078935,76.1756491669579,76.14552903310349,76.21763238927157
30.402,76.96669521305294,76.86669521305295,76.21465276905721,76.5827824083656,76.54552903310346,76.64330636636538
30.8442,77.27426796404566,77.16669521305295,76.57132492078934,76.9219455096677,76.84552903310347,76.96299034138568
31.2929,77.35631994589777,77.22169521305294,76.64549638292524,76.9769455096677,76.90052903310348,77.02732224485004
31.748,77.54702793169513,77.41276713483458,76.85409322589501,77.14961573636509,77.0525415764403,77.21034138132308
32.2098,77.79992493851547,77.66532105104596,77.07132492078935,77.37979358088451,77.29693077804666,77.45049515218759
32.6783,78.10131994589776,77.96669521305294,77.4277697570974,77.70622232553106,77.60946719161146,77.7690990911501
33.1536,78.55431994589775,78.36669521305295,77.87132492078935,78.13230041567502,78.0185827189585,78.19553963009511
33.6359,78.91631994589775,78.70977413173063,78.24648692042393,78.48967678371525,78.33859248665007,78.54711133698486
34.1251,79.30751494020254,79.1062565493782,78.64764806209662,78.88056054014523,78.72359248665006,78.94002505950719
34.6215,79.59890314213477,79.3976526792753,78.95550563962738,79.1369705201694,78.97527616495016,79.22009220268858
35.125,79.99871698921748,79.76669521305294,79.34213939533782,79.51805219464585,79.34342964809886,79.60137092560328
35.6359,80.29125149417877,80.06876749445563,79.66222648107204,79.84956054014522,79.626611068996,79.90699735670044
36.1543,80.66901488257477,80.39976749445562,80.04213939533781,80.19446378156785,79.9740163227902,80.26332544967192
36.6802,81.00131994589776,80.73413059177983,80.35582720355639,80.50305211039489,80.27733043973748,80.58244190008934
37.2137,81.18123150818032,80.87213059177982,80.57465981936797,80.67005539070361,80.41533043973747,80.75081411434591
37.755,81.37190174104745,81.09976749445562,80.74213939533782,80.86109392345193,80.60420043050475,80.94441577304644
38.3041,81.54231994589775,81.24076749445561,80.94213939533782,81.03256319217337,80.76004541242479,81.11193782580524
38.8613,81.76901488257477,81.39976749445562,81.14213939533782,81.22178534374771,80.92312675678673,81.3005349629417
39.4265,82.06901488257478,81.72238884616266,81.46091211336004,81.55243480427669,81.22312675678671,81.6148212956564
40.0,82.1090074518292,81.76745083805433,81.54213939533781,81.55927588070905,81.22565757130599,81.65052177120945
40.5818,82.36311905422514,81.96745083805433,81.74213939533782,81.775572878487,81.43472236154649,81.86743470330964
41.1721,82.66901488257477,82.26745083805434,82.08279048008426,82.1076341272956,81.73933653226808,82.18379958990937
41.771,82.80131994589776,82.39976749445563,82.24213939533782,82.22038015203789,81.84551615122388,82.31286892382039
42.3785,83.15000957316124,82.72389611403884,82.56262885993289,82.53927672897046,82.14551615122389,82.63644914039011
42.9949,83.32801488257478,82.89235140868503,82.76388089400064,82.72639356075544,82.30451615122388,82.81548734796056
43.6203,83.57254381709129,83.13335140868502,83.04525401540259,82.999,82.54661140010262,83.07168197935363
44.2548,83.80131994589775,83.33335140868503,83.27066275391891,83.199,82.75556535878366,83.284796571031
44.8985,84.16901488257477,83.63335140868503,83.599,83.499,83.05556535878367,83.60578165891481
45.5515,84.26901488257477,83.73335140868502,83.71342746339747,83.6191850554159,83.15556535878368,83.71261019861232
46.2141,84.46901488257477,83.93335140868501,83.9706627539189,83.83927672897048,83.35368379961182,83.92771985977424
46.8863,84.70131994589775,84.13335140868502,84.19899999999998,84.05927588070905,83.53385854644537,84.14124919902426
47.5683,84.93082666078534,84.33335140868503,84.399,84.25927588070904,83.71437308997625,84.34460353674932
48.2602,84.95613059177983,84.35535140868504,84.43222899346456,84.26600140376333,83.72509624512001,84.36469834828728
48.9621,85.16901488257477,84.53335140868502,84.64213939533782,84.43973299106129,83.86954554660433,84.55062098024234
49.6743,85.36901488257476,84.71277089894268,84.84213939533782,84.66019474234183,84.06024664690644,84.74894104147931
50.3968,85.56901488257478,84.86745083805431,85.05948278425531,84.86019474234183,84.25307191306575,84.94232139528249
51.1299,85.76901488257475,85.06745083805433,85.299,85.06019474234184,84.42170252970423,85.14514320763884
51.8736,85.96901488257477,85.26745083805433,85.499,85.26019474234184,84.61324397454837,85.3437122367428
52.6281,86.26901488257477,85.56745083805433,85.799,85.54019983124485,84.86635584242072,85.63189916471377
53.3936,86.56901488257478,85.80844168483762,86.099,85.80130232064049,85.12990216013264,85.90660646263454
54.1702,86.73413059177983,85.97020117679139,86.299,86.0013023206405,85.31797107922054,86.08904003603973
54.9581,86.83413059177983,86.03413059177981,86.37066275391891,86.06019474234184,85.3374493753766,86.15460537669085
55.7575,87.13413059177984,86.32606828448236,86.67066275391889,86.33110013829898,85.62536417341806,86.44535418277253
56.5685,87.33413059177983,86.47007578860135,86.87066275391891,86.50130232064049,85.78267549818601,86.62164532280029
57.3914,87.43413059177982,86.53413059177983,86.94213939533782,86.5876495846681,85.82785421200838,86.69700706451924
58.2261,87.49976749445563,86.56934291052977,87.04213939533783,86.64270454526415,85.84373623054586,86.75393444476003
59.073,87.63413059177982,86.71388880828529,87.19965786069426,86.79540156835003,86.02785421200839,86.90687141904472
59.9323,87.93413059177983,86.96901488257477,87.4706627539189,87.06295064819497,86.23626061980556,87.17089188800625
60.804,87.9987679013826,86.96901488257477,87.54213939533781,87.10296234120833,86.29366032750272,87.21875781291455
61.6884,88.29697855137925,87.28348985562856,87.85255658161876,87.3995168926838,86.56295072884835,87.51769769662582
62.5857,88.69976749445561,87.66901488257477,88.27066275391891,87.78617867321397,86.93469519886577,87.91243017671735
63.496,88.89293484643198,87.80801488257477,88.44742345215575,87.97543442200943,87.11054535074703,88.08830774190042
64.4196,89.09976749445562,87.97190174104746,88.67325292680175,88.16736191859799,87.29082228082632,88.28412262653805
65.3566,89.46410009157438,88.33307384428186,89.05426785239868,88.52249661856091,87.63137861240968,88.64596109257799
66.3073,89.69572253390487,88.49741402617937,89.24044289432472,88.70261237382442,87.78798267761158,88.83327084899102
67.2717,89.8997674944556,88.68919762590697,89.47931154262547,88.92314339660089,87.99294629631495,89.04607047672434
68.2502,90.05738637115044,88.83646771551315,89.64571263675128,89.06878749382534,88.11103922194481,89.19521981148743
69.2429,90.23794533627282,88.97439248569995,89.82091863593575,89.23309731158307,88.28113925161153,89.36197923199009
70.2501,90.53822020305813,89.24798487913836,90.1236617548152,89.51794142523613,88.5373085921635,89.64808049278231
71.2719,90.7451957396186,89.4289064871261,90.3355167502408,89.70820611180409,88.71662608581008,89.84388623508082
72.3086,90.94476749445562,89.58488382647415,90.55255658161875,89.88624308812476,88.87981684657836,90.02971832446781
73.3603,91.12203141652583,89.74828852909275,90.71408314243885,90.07620611180408,89.03622618936458,90.2002031205768
74.4274,91.44021091522362,90.01923324806273,91.03374012124718,90.37967447324898,89.31557067531921,90.50144604971719
75.5099,91.7849218511605,90.3499426353802,91.41950136261968,90.72013623424505,89.66015832185599,90.8521307840776
76.6083,92.05954936218285,90.5916145785776,91.63730000842446,90.95920100310244,89.87923845891761,91.09264724120023
77.7226,92.21721091522363,90.72236825352974,91.81408314243885,91.0857826085261,89.99183626389893,91.23706618132394
78.8531,92.28719990782243,90.77287961222818,91.91408314243884,91.17724289883728,90.07011443361668,91.3158758838996
80.0,92.70252592645103,91.15676348088965,92.31408314243885,91.55413813034369,90.43121156980077,91.70658895367812
81.1636,92.88670165831874,91.31334701341696,92.50381977810291,91.75716576868756,90.61407713688425,91.89065078050545
82.3442,93.15585110914824,91.56280098392378,92.76325283265865,91.98443780513514,90.83544806214434,92.13890766419865
83.5419,93.16986434301634,91.57287961222818,92.81408314243885,92.01687800840678,90.85713213612915,92.16545350990576
84.757,93.48438280859871,91.82887961222818,93.10188516202786,92.2974865092383,91.1141805358953,92.44855452768444
85.9899,93.67216750898388,91.98594227708267,93.29714297027114,92.48670650944176,91.2750508390769,92.62909398379212
87.2406,93.9731553427454,92.25588123597583,93.61408314243884,92.78044451186483,91.55482438905753,92.92396860770276
88.5096,94.28869123362404,92.58598518825562,93.91408314243884,93.08422779749276,91.8541499381364,93.23373518463369
89.797,94.5856769056086,92.8284417358864,94.2085275321731,93.37705014496487,92.12396454651795,93.51601869635856
91.1031,94.822,93.06483030471972,94.4927951837843,93.61053165300524,92.33999868305322,93.76016643134685
92.4282,95.0120389524282,93.24183030471974,94.66869192210376,93.78491304021807,92.4956581383869,93.93666440131659
93.7726,95.20100092117536,93.37908163739864,94.85913747890928,93.94455791342234,92.66156852411764,94.10823933368674
95.1366,95.521,93.68973034912847,95.16982632730296,94.24170188121242,92.94164392951026,94.41433895605098
96.5204,95.52838280859872,93.68583030471976,95.18227419720542,94.26370188121243,92.92593559424495,94.42055337414214
97.9243,95.63258982687996,93.77509175449222,95.29747164989685,94.35828839075573,93.02179738477986,94.52182694079312
99.3486,95.699,93.84183030471972,95.38648929892042,94.41970188121242,93.08205086214303,94.5918776676927
100.794,95.53258982687997,93.67509175449223,95.23533388428496,94.26870953846942,92.90102402636109,94.42998739384014
102.26,95.598,93.71027178315617,95.28548929892042,94.30152961026536,92.91569276481181,94.47325933030389
103.747,95.70058982687996,93.77927178315619,95.38646639588399,94.39213717399446,92.9930629478532,94.56401643538302
105.256,95.8279206175288,93.95107010047009,95.58148929892042,94.55916840337088,93.15146798215218,94.72716087871876
106.787,95.9579218511605,94.06709175449221,95.67848929892041,94.65616840337087,93.23138885510984,94.83350444647806
108.34,96.05325011281035,94.16245092578023,95.77390957557478,94.73453757199607,93.31168252628335,94.92353158041765
109.916,95.98767168297996,94.09527178315618,95.71677223759454,94.66805351870532,93.22159067322355,94.85619307379935
111.515,96.20858982687997,94.2872717831562,95.96248929892042,94.90488465408721,93.42721342403269,95.07929410909928
113.137,96.10358982687997,94.18227178315618,95.85748929892043,94.74182398647419,93.26618193262864,94.95556172162566
114.783,96.0299218511605,94.16198039010679,95.79279499755904,94.71117140149626,93.21521342403268,94.90435163331463
116.452,95.95609320791937,94.06727178315619,95.74248929892042,94.64668679674514,93.12864886197352,94.83286469333298
118.146,95.87350635169088,94.00887807482239,95.6599652703937,94.56663197253417,93.03251218638309,94.75301816128484
119.865,95.78435888807788,93.94089761354891,95.62548929892041,94.46265930406216,92.91497415505114,94.67434838129088
121.608,95.69127428284548,93.84127178315619,95.51648929892042,94.34213953999232,92.7910126539749,94.56686735139736
123.377,95.73558572115124,93.9139190646753,95.5869568044579,94.41348430267817,92.85068692953601,94.62967460077469
125.171,95.58444322111782,93.79657168297862,95.46742719551898,94.29013953999234,92.67299959995066,94.49396222262027
126.992,95.51779786373064,93.77351507282047,95.46348929892042,94.23030113800512,92.62868692953602,94.45474276390068
128.839,95.27610894824204,93.52425663636183,95.1768554528115,93.9865981248902,92.32969683616264,94.19257240944684
130.713,95.26635140868503,93.58098514879552,95.22051625003016,93.97295160339344,92.2888423664895,94.20296349836204
132.615,95.05247688160557,93.40018693551781,95.02429476693692,93.8114911087355,92.08173340297296,94.01013797166054
134.543,94.91525531231706,93.31316827772159,94.92737682562463,93.67276086174209,91.9192435113678,93.88837239890617
136.5,94.76747659087063,93.201594144691,94.79716825266968,93.52879692646978,91.74082592034964,93.74827501212971
138.486,94.60217617719167,93.082594144691,94.661148597314,93.37058258754806,91.55057506310125,93.59685635516692
140.5,94.34856311078659,92.87379290580515,94.44696381950334,93.1220094169041,91.26287828177661,93.35806064957336
142.544,94.09852459109732,92.6787228470586,94.21950609672729,92.88427139495212,90.97499347854188,93.12139712274856
144.617,93.86611735544855,92.49409216110872,94.0144508162505,92.64502196017276,90.68997959188451,92.89705132546331
146.721,93.69591500262857,92.34201586981938,93.87076518141541,92.46495960028786,90.45680089258659,92.7276591337112
148.855,93.53659817895428,92.22201586981937,93.72886974760996,92.2943902137365,90.22522379558362,92.5695004507051
151.02,93.29510375867841,92.00820217077188,93.50902081506977,92.02743849372331,89.90332845338287,92.32474800657181
153.217,93.12405346499328,91.84720217077185,93.3623901601278,91.83663925786223,89.64726674249627,92.1486777480109
155.445,93.00003996845362,91.71913169180579,93.2378349462964,91.6651171191069,89.42291611021236,92.00376761274143
157.706,92.89385468501598,91.5907855649709,93.12416172665732,91.50925385149833,89.1939252747164,91.86885404078129
160.0,92.74844167945491,91.43798811189451,92.98737247659324,91.32589663083587,88.95848009988212,91.7077524569136
162.327,92.62854684148105,91.24185234505245,92.8320594329636,91.11771287200554,88.68297930662972,91.53157732181516
164.688,92.49250345867698,91.03583064427565,92.68001308138874,90.89907582704608,88.42997298637452,91.3511571085914
167.084,92.46478868842188,90.92258719283592,92.61565914381129,90.80260109151703,88.26546860272553,91.27143114982364
169.514,92.50899702018684,90.88991975551917,92.64052850905625,90.77537293543577,88.18970221344551,91.2715279268869
171.98,92.56372584531803,90.83252818277947,92.66520397154969,90.75128385877872,88.13965185849159,91.27333269972146
174.481,92.57041048673196,90.76136773471218,92.6485498984037,90.7010807441753,88.05208491470782,91.24039658389651
177.019,92.66265522071546,90.76332700460743,92.71356801909587,90.72978244066523,88.05519035366667,91.28930271689791
179.594,92.75070648734166,90.7694216435136,92.7840919657923,90.7759283562504,88.0697882339658,91.34373222341564
182.206,92.97800936617746,90.92152777300028,92.99659962459809,90.9576330217099,88.21473926774131,91.53809450378999
184.856,93.14963358878212,91.03484169000271,93.15356801909587,91.0947668589821,88.32540276542773,91.68385317363698
187.545,93.35540091590781,91.18589487362198,93.36845214686207,91.27913358151686,88.47278889600875,91.87370665770813
190.273,93.57492483874292,91.3698902497726,93.5867761412,91.4805777358286,88.642107132458,92.07911991221727
193.041,93.84272584531804,91.59952230720496,93.86313207369933,91.73743219365984,88.84477677285312,92.33510851699288
195.849,94.02330470414299,91.762107903746,94.06159962459809,91.92291307272767,88.98084491234692,92.51464235979809
198.697,94.15300964593808,91.87223243533168,94.19312508047972,92.03408625291382,89.04428713947942,92.63250897030358
201.587,94.31131039670196,92.01974268015259,94.3785996245981,92.20675077733975,89.13291465531461,92.7932654245472
204.52,94.44826065581464,92.16708361890464,94.53509521474604,92.34142820268363,89.20440628473776,92.93160993328873
207.494,94.52726828008024,92.25410757608533,94.64428985361639,92.43860013290686,89.22739686157708,93.01917805245903
210.512,94.60283773401272,92.33788022538828,94.73797638665701,92.52300620751316,89.20006275306076,93.09445630779781
213.574,94.65738110345532,92.41027787833882,94.8255248769793,92.58708582556446,89.16339994859729,93.1559851841286
216.681,94.68930966433726,92.46157481603545,94.88199286237621,92.63662407419505,89.11295075099201,93.19499420645505
219.833,94.69879213551471,92.47879738688894,94.90565957364794,92.65011643912037,89.00491264828975,93.20162130613282
223.03,94.66532160934204,92.48079738688895,94.90765957364795,92.64144227274959,88.86770453924042,93.18128752671014
226.274,94.61239689083396,92.4697118039759,94.89254337563622,92.61583342945386,88.70853853291175,93.14385819711
229.565,94.61601779968245,92.45819044824766,94.88525843368024,92.60353522577256,88.55525904508815,93.1276734410783
232.905,94.54276719438468,92.43615088468752,94.85539167446129,92.56651764518031,88.36737913208103,93.07483051416823
236.292,94.46203156369376,92.36974792673917,94.78391548539561,92.4956866259448,88.15423209672399,92.99230785124158
239.729,94.44276719438471,92.35894867563766,94.77548478147017,92.47918917506925,87.98251064511501,92.96844549500817
243.216,94.40275277906194,92.33159205671788,94.73072071627276,92.44686333521139,87.81430521469711,92.92255122856564
