Freq "Side Wall Bounce"
20.0 61.52061596602971
20.2909 62.20332056887466
20.586 62.88132056887463
20.8855 63.40332056887462
21.1893 64.10332056887464
21.4975 64.57319315786464
21.8102 65.09440137993889
22.1274 65.51215220040987
22.4492 65.86868220761815
22.7758 66.19968220761814
23.1071 66.4015901415244
23.4432 66.51892224304555
23.7841 66.61892224304555
24.1301 66.72992224304554
24.4811 67.11892224304555
24.8372 67.9340826579542
25.1984 68.9533658504491
25.5649 70.09341101008323
25.9368 71.17848749516293
26.3141 71.9108921591595
26.6968 72.42620522616623
27.0851 72.71620522616625
27.4791 72.91442663662518
27.8788 72.95958150416386
28.2843 73.28035540236736
28.6957 73.95909119314665
29.1131 74.79509119314666
29.5365 75.62132748948832
29.9661 76.46761772041704
30.402 76.87475096182472
30.8442 77.21391406312682
31.2929 77.2689140631268
31.748 77.44158428982422
32.2098 77.67176213434365
32.6783 77.9981908789902
33.1536 78.42426896913415
33.6359 78.78164533717437
34.1251 79.17252909360434
34.6215 79.42893907362854
35.125 79.81002074810496
35.6359 80.14152909360433
36.1543 80.48643233502698
36.6802 80.795020663854
37.2137 80.96202394416275
37.755 81.15306247691106
38.3041 81.3245317456325
38.8613 81.51375389720683
39.4265 81.84440335773581
40.0 81.85124443416817
40.5818 82.06754143194613
41.1721 82.39960268075474
41.771 82.512348705497
42.3785 82.8312452824296
42.9949 83.01836211421458
43.6203 83.29096855345912
44.2548 83.49096855345914
44.8985 83.79096855345912
45.5515 83.91115360887501
46.2141 84.1312452824296
46.8863 84.35124443416817
47.5683 84.55124443416818
48.2602 84.55796995722247
48.9621 84.7317015445204
49.6743 84.95216329580097
50.3968 85.15216329580096
51.1299 85.35216329580095
51.8736 85.55216329580097
52.6281 85.83216838470398
53.3936 86.09327087409963
54.1702 86.29327087409962
54.9581 86.35216329580095
55.7575 86.6230686917581
56.5685 86.79327087409963
57.3914 86.87961813812723
58.2261 86.9346730987233
59.073 87.08737012180917
59.9323 87.3549192016541
60.804 87.39493089466745
61.6884 87.69148544614295
62.5857 88.07814722667311
63.496 88.26740297546854
64.4196 88.4593304720571
65.3566 88.81446517202005
66.3073 88.99458092728355
67.2717 89.21511195006003
68.2502 89.36075604728447
69.2429 89.52506586504218
70.2501 89.80990997869526
71.2719 90.0001746652632
72.3086 90.17821164158389
73.3603 90.3681746652632
74.4274 90.6716430267081
75.5099 91.01210478770417
76.6083 91.25116955656156
77.7226 91.37775116198523
78.8531 91.4692114522964
80.0 91.84610668380282
81.1636 92.04913432214667
82.3442 92.27640635859427
83.5419 92.30884656186592
84.757 92.58945506269744
85.9899 92.7786750629009
87.2406 93.07241306532396
88.5096 93.3761963509519
89.797 93.669018698424
91.1031 93.90250020646437
92.4282 94.0768815936772
93.7726 94.23652646688149
95.1366 94.53367043467154
96.5204 94.55567043467154
97.9243 94.65025694421487
99.3486 94.71167043467156
100.794 94.56067809192855
102.26 94.59349816372449
103.747 94.68410572745358
105.256 94.85113695683
106.787 94.94813695683001
108.34 95.0265061254552
109.916 94.96002207216446
111.515 95.19685320754633
113.137 95.03379253993333
114.783 95.0031399549554
116.452 94.93865535020429
118.146 94.8586005259933
119.865 94.75462785752127
121.608 94.63410809345146
123.377 94.7054528561373
125.171 94.58210809345145
126.992 94.52226969146426
128.839 94.2785666783493
130.713 94.26492015685255
132.615 94.10345966219462
134.543 93.96472941520122
136.5 93.82076547992891
138.486 93.6625511410072
140.5 93.41397797036325
142.544 93.17623994841125
144.617 92.9369905136319
146.721 92.75692815374697
148.855 92.58635876719565
151.02 92.31940704718244
153.217 92.12860781132136
155.445 91.95708567256601
157.706 91.80122240495746
160.0 91.617865184295
162.327 91.40968142546467
164.688 91.19104438050519
167.084 91.09456964497615
169.514 91.06734148889491
171.98 91.04325241223785
174.481 90.99304929763443
177.019 91.02175099412437
179.594 91.06789690970955
182.206 91.24960157516901
184.856 91.38673541244121
187.545 91.57110213497599
190.273 91.77254628928773
193.041 92.02940074711896
195.849 92.2148816261868
198.697 92.32605480637295
201.587 92.49871933079886
204.52 92.63339675614276
207.494 92.730568686366
210.512 92.81497476097228
213.574 92.87905437902357
216.681 92.92859262765418
219.833 92.94208499257948
223.03 92.9334108262087
226.274 92.90780198291299
229.565 92.89550377923167
232.905 92.85848619863944
236.292 92.78765517940391
239.729 92.77115772852837
243.216 92.73883188867052
246.754 92.66575196917414
250.343 92.5814187451904
253.984 92.4986721681221
257.678 92.41910157607367
261.426 92.34780780475293
265.229 92.31087056576942
269.087 92.30471956816343
273.001 92.2384861761292
276.972 92.18734990430988
281.0 92.14616811749158
285.088 92.07849484907831
289.234 92.04631950757336
293.441 92.03357570440019
297.709 92.03378094907673
302.04 91.98707884837067
306.433 91.9453557195254
310.89 91.88439989511947
315.412 91.83080809612696
320.0 91.79811881256478
324.655 91.79096972294151
329.377 91.72397526453194
334.168 91.64522232856905
339.028 91.5664063365889
343.959 91.49347865560765
348.962 91.46439689084994
354.038 91.41621580810403
359.188 91.37813849770679
364.412 91.31205972680245
369.713 91.28288475862885
375.09 91.25280002876802
380.546 91.33161692028068
386.081 91.37793434631902
391.697 91.44485338236377
397.394 91.48542459049261
403.175 91.55404980104137
409.039 91.64660282273657
414.989 91.78955443725361
421.025 91.90062430681489
427.149 92.00345728583716
433.362 92.07883011825453
439.665 92.15276899004562
446.06 92.23693798850502
452.548 92.24816598630538
459.131 92.19692288729169
465.809 92.04257446323871
472.584 91.83403704188876
479.458 91.58710419436386
486.432 91.26459607962315
493.507 90.84033880750556
500.686 90.37830526692414
507.968 89.92520330771345
515.357 89.52280169181856
522.853 89.21892579482693
530.458 88.92280037336845
538.174 88.61356530956304
546.002 88.36615911760954
553.943 88.13803518343494
562.001 87.92978905373705
570.175 87.7975148160473
578.469 87.73306359685795
586.883 87.80862445632451
595.419 87.93856530025721
604.08 88.08081471386814
612.866 88.1332050501373
621.78 88.11064875209999
630.824 87.99611513560646
640.0 87.85281207913448
649.309 87.78156392289179
658.753 87.90153288562661
668.335 88.16323044369543
678.056 88.48950553436907
687.919 88.76218850598801
697.925 88.89895894356235
708.077 88.90526895138412
718.376 88.824602131745
728.825 88.68176277354938
739.426 88.62151753993327
750.181 88.74441612448332
761.093 88.9406076381077
772.163 89.18678753197663
783.394 89.46730751282685
794.789 89.706467157342
806.349 89.91259756700511
818.078 90.0965239491986
829.977 90.23575348789468
842.05 90.31222528248671
854.298 90.36256844719514
866.724 90.39856552733657
879.33 90.51013128725499
892.12 90.67207625524016
905.097 90.73305450063575
918.262 90.63071096794981
931.618 90.24429374177697
945.169 89.54697606994712
958.917 88.65257083969884
972.864 87.86275683080845
987.015 87.47694901990101
1001.37 87.53414820428478
1015.94 87.7942556592471
1030.71 87.9750452937391
1045.71 88.04251193896229
1060.92 88.06894205765214
1076.35 88.07620877134823
1092.0 88.07345159354146
1107.89 88.06322128626657
1124.0 88.08799157139734
1140.35 88.14375061539577
1156.94 88.16002018366746
1173.77 88.02885674682078
1190.84 87.81137741982984
1208.16 87.58563029228227
1225.73 87.33820477704555
1243.56 87.14404262996732
1261.65 86.98627024163832
1280.0 86.895522394714
1298.62 86.99571290621347
1317.51 87.16312002907947
1336.67 87.22185341876052
1356.11 87.18069229257782
1375.84 87.17388999053857
1395.85 87.14995122974399
1416.15 87.03056630471144
1436.75 86.87718035258223
1457.65 86.82706069019885
1478.85 86.91196600855979
1500.36 87.05674494483671
1522.19 87.20988358113898
1544.33 87.41570741668207
1566.79 87.55447804346895
1589.58 87.65282621814688
1612.7 87.72529620403697
1636.16 87.88299534746787
1659.95 88.01779790431493
1684.1 88.060619987734
1708.6 88.09492015229193
1733.45 88.1334522566716
1758.66 88.12209803552831
1784.24 88.25672004949273
1810.19 88.55013219428983
1836.52 88.66981840844858
1863.24 88.64654320249463
1890.34 88.519966079363
1917.83 88.21655607043586
1945.73 87.91072978832769
1974.03 87.73041296625077
2002.74 87.53540529857361
2031.87 87.28410720568792
2061.43 86.96120013404992
2091.41 86.54722540380133
2121.83 86.19990387487172
2152.69 86.11060909576511
2184.01 86.2237966985847
2215.77 86.4265135621245
2248.0 86.61503774123946
2280.7 86.77388745394862
2313.87 86.93050371074798
2347.53 87.01128077773423
2381.68 87.03263391904405
2416.32 86.96793488861078
2451.46 86.93438146548797
2487.12 87.00742776561202
2523.3 87.0417947437112
2560.0 86.98537277047802
2597.24 86.88683063928406
2635.01 86.83093800221205
2673.34 86.8697928503243
2712.23 86.99349507865489
2751.68 87.04425391187551
2791.7 87.01076123239186
2832.31 86.85444408141504
2873.5 86.63776177203854
2915.3 86.4456211251599
2957.7 86.29468037461712
3000.72 86.12343757642822
3044.37 85.8087660420538
3088.65 85.47484355898443
3133.58 85.32236349789184
3179.16 85.34212666375981
3225.4 85.44840690532278
3272.31 85.64654251043564
3319.91 85.80734686962568
3368.2 86.02408588361746
3417.19 86.29945090717385
3466.89 86.5109262986186
3517.32 86.46661924732769
3568.48 86.3731148801375
3620.39 86.5080779758222
3673.05 86.62014619548724
3726.47 86.49595264286346
3780.67 86.37219585875337
3835.67 86.32738292717187
3891.46 86.25101306158277
3948.06 86.18858419936014
4005.49 86.11172622482454
4063.75 86.00193404319938
4122.86 86.0207694874097
4182.82 86.17913256804175
4243.66 86.33369414963803
4305.39 86.5149775233812
4368.01 86.62595833528745
4431.55 86.64058207490821
4496.01 86.58142570650574
4561.4 86.59266506997113
4627.75 86.6528625936905
4695.06 86.6008625396483
4763.35 86.44224509255085
4832.64 86.302924821392
4902.93 86.18804992616012
4974.24 86.04488565561145
5046.6 85.94788907702399
5120.0 85.86721637301338
5194.47 85.82911650364835
5270.03 85.88374297359678
5346.68 85.91118999218021
5424.45 85.84361307375735
5503.35 85.7429451411924
5583.4 85.72727549233481
5664.61 85.78016918731333
5747.01 85.69391422063859
5830.6 85.7154073929935
5915.41 85.54107148290751
6001.45 85.39745380756283
6088.74 85.38648486070346
6177.3 85.28826689231983
6267.15 85.29900958978081
6358.31 85.31717755974373
6450.8 85.28152287955109
6544.62 85.42051267892742
6639.82 85.39955323079563
6736.4 85.53934558812709
6834.38 85.5664629165642
6933.79 85.6799957124149
7034.64 85.76631372387894
7136.96 85.78581918504335
7240.77 85.81731699675501
7346.09 85.8557512904272
7452.94 85.86988880922112
7561.35 85.89061970878538
7671.33 85.90349314527582
7782.91 85.99367716962489
7896.12 86.09819595952762
8010.97 86.18363249609904
8127.49 86.30610784229933
8245.71 86.39463566716746
8365.65 86.4485544871298
8487.33 86.36404105148426
8610.78 86.30498298707887
8736.03 86.25493013655675
8863.09 86.27554811906234
8992.01 86.27571406583907
9122.8 86.2510053557529
9255.5 86.16764404332258
9390.12 86.0773420236865
9526.7 86.20280775654109
9665.27 86.38257052440504
9805.86 86.54138408002748
9948.49 86.4467663691328
10093.2 86.20902227412783
10240.0 86.03873382688936
10388.9 86.07263775038481
10540.1 86.27810055324228
10693.4 86.51955243604965
10848.9 86.75028899724352
11006.7 86.8158720048657
11166.8 86.58476339772325
11329.2 85.47633268351197
11494.0 84.57768596507182
11661.2 85.6012345998244
11830.8 86.39271583752168
12002.9 86.68251128414609
12177.5 86.52200847541195
12354.6 85.9392965460405
12534.3 85.19475508337172
12716.6 84.2951012891103
12901.6 83.31285949147788
13089.2 82.97846590227127
13279.6 83.15948436341655
13472.8 83.33771174449802
13668.8 83.36110526181531
13867.6 83.14054158886461
14069.3 82.7529949803991
14273.9 82.43007822781419
14481.5 81.93517444680762
14692.2 81.29411124597979
14905.9 81.08807846521648
15122.7 81.38361674986405
15342.7 81.61832524524877
15565.8 81.80365687403058
15792.2 81.98290115429751
16021.9 81.98896546654295
16255.0 81.73086099149059
16491.4 81.23504729401257
16731.3 80.45170379516017
16974.7 79.11988792439246
17221.6 77.10697339614262
17472.1 75.09777401906238
17726.2 74.42220591041973
17984.0 74.8935850056665
18245.6 76.18996302817901
18511.0 77.59659479761578
18780.2 78.70548779654422
19053.4 79.13261247541877
19330.5 78.80867831315513
19611.7 77.98820252596946
19897.0 76.74801497600971
