Freq,Floor Bounce,Ceiling Bounce,Front Wall Bounce,Side Wall Bounce,Rear Wall Bounce,Total Early Reflection
20.6,50.722148753231565,50.98595320326827,50.492795843482455,51.19589950155331,58.529076927165605,53.802094920091534
21.2,51.67645699816761,52.03760730894531,51.46576080274086,52.27303871349001,59.50023482237357,54.7919969250908
21.8,52.60417561921271,53.05991296664949,52.41186444298178,53.32121511142698,60.444526647581924,55.75492539031181
22.4,53.97049132863013,54.24652994985267,53.762996810419835,54.51474441488212,61.196987072927655,56.72713762517408
23.0,55.485640707103286,55.4801302649863,55.250144655848956,55.75189039130804,61.8641492206056,57.71425406574586
23.6,56.7845892121842,56.55138144074074,56.52814440074535,56.851289298931945,62.60259679358205,58.67305700749732
24.3,57.71037010158035,57.357810973001975,57.449675883364634,57.753207559094065,63.71200749447375,59.67282435844143
25.0,58.55709876011797,58.13405655013456,58.2899194662872,58.60744863222604,64.69682145171994,60.58220769343782
25.8,59.13036041645678,58.94451450449877,58.83947763518141,59.40124621091908,65.14236395877464,61.14420929057955
26.5,59.697337640503875,59.67458234974602,59.392425261636205,60.11711217862445,65.56580763244642,61.67882833831956
27.2,60.5839413542282,60.55853898339022,60.29160514035871,60.98636420761315,66.15933299875208,62.42314298646721
28.0,61.60724947567988,61.56217027280849,61.328225961862614,61.974852380652365,66.82704092509705,63.27581843661521
29.0,63.019613586692614,62.87316921645987,62.75352168177734,63.27206627249586,67.6688574057442,64.4084373801926
30.0,64.27962641828165,64.14486693491385,64.02625618153651,64.53203192551466,68.56261237324892,65.5205109455203
30.7,65.10638335708477,65.01147560357384,64.86174333869151,65.39097646099758,69.1949452376486,66.2823905309698
31.5,65.65528080374148,65.45861729420541,65.40182158438519,65.80308834378931,69.5076352838838,66.7012317148505
32.5,66.40627788852233,66.11142692683175,66.14518095782532,66.42563397422268,69.97655427491905,67.30936799236002
33.5,67.45513582831319,67.17075383509122,67.19965187930173,67.49290593138821,70.77072234258223,68.27139506811025
34.5,68.46458840434698,68.17758317263979,68.2148624179353,68.50485534670936,71.51458001050277,69.18918204493242
35.5,69.42294179491779,69.13265417070025,69.1787231876378,69.46319490085692,72.22899473887709,70.06609291085276
36.5,70.31653026447233,70.02724272709612,70.07736646964172,70.35884344864958,72.91901371863288,70.89510058284172
37.5,71.12320982325043,70.83802182322859,70.88833879707059,71.17092282196464,73.55935491835847,71.65181785900468
38.7,72.03947408323263,71.76124753636222,71.80876518998889,72.09673451898216,74.305107117568,72.5194914799541
40.0,72.97639362109989,72.70585373871472,72.74851858399707,73.04540864678327,75.08173937166194,73.4126213732364
41.2,73.78601181279917,73.51980118322892,73.55946243526192,73.86295968048098,75.75037333366413,74.1837467576134
42.5,74.5726918387666,74.30932296455593,74.3482876025091,74.65281350996501,76.39942491452435,74.93285097437148
43.7,75.22610922404428,74.96379349264035,75.00236002820574,75.30957006011175,76.94429082551419,75.5570392737195
45.0,75.87111179179065,75.60742005175187,75.64747282296022,75.95567535016481,77.47908501298981,76.17197058822684
46.2,76.4050013312516,76.13910647439096,76.18075479041569,76.49003413025001,77.92296608916699,76.6813125731903
47.5,76.92579693825007,76.65811564837281,76.7009660305687,77.01125849769745,78.35636869196851,77.17867687990763
48.7,77.36848322300541,77.09934300500512,77.14348593537686,77.45352530226883,78.72366011517813,77.60134233465338
50.0,77.82657085546154,77.55433482311598,77.60136185948524,77.90933915092356,79.10265605109898,78.0380509534607
51.5,78.33918297211683,78.06360965867243,78.11374391325819,78.41948350062364,79.52816724742999,78.52744597122548
53.0,78.81632878407966,78.53846933782576,78.59076514542086,78.89479232392578,79.92943215038638,78.98481216799426
54.5,79.209647462599,78.93051853786295,78.98417175073311,79.28686294281863,80.25583569517568,79.36113290937983
56.0,79.52280195394411,79.24905970344055,79.29970798597799,79.6018934194869,80.51096590783327,79.66188688712789
58.0,79.78563298272024,79.54989952383615,79.57682629580263,79.88202331709208,80.71624109759233,79.92380845141665
60.0,80.10554271928495,79.87217944340847,79.89984851111276,80.19958147166155,80.95211755535964,80.22424187407749
61.5,80.4215541344327,80.17005982954414,80.21181203088571,80.50218256384106,81.18979805261421,80.51507119701452
63.0,80.7318351612062,80.462363929071,80.51805185560427,80.79919594818658,81.4235872206474,80.80086106562273
65.0,80.99196908653006,80.71551776813254,80.77862020410136,81.05089493079993,81.60674552606213,81.04044066580902
67.0,81.14203200317517,80.86698698790492,80.93162054643746,81.197512538382,81.69538172749006,81.17670764596517
69.0,81.23705522039491,80.95787646964332,81.02675130859681,81.28785376203302,81.73552122797712,81.25772742672096
71.0,81.52282175886486,81.22890323590707,81.30776180577733,81.56478894101652,81.9664055837386,81.52585751777436
73.0,81.73682885707703,81.42810974898818,81.5173790454378,81.76902876067781,82.12359312237275,81.72176856798532
75.0,81.86269443817983,81.54023186202029,81.63966684006182,81.88486242104392,82.19207181205212,81.82981718999204
77.5,81.71214347997436,81.37982482897517,81.4886916377434,81.7236565161935,81.9722124614038,81.66019781522398
80.0,81.75609893526254,81.41234896325346,81.53198596134362,81.7549153979736,81.94378006694264,81.68383824747112
82.5,81.97534397243992,81.61753294607378,81.750241798898,81.95853036265704,82.08342828787731,81.88027572306505
85.0,82.09045754093015,81.7151108160521,81.86265669136809,82.05686457154381,82.12346356158237,81.97250102238247
87.5,81.83681602751597,81.44220743530722,81.60455473015111,81.78802099979855,81.8126741317028,81.69947331233404
90.0,81.78056805815523,81.39487137648574,81.56012226555693,81.72503178356395,81.67981772351173,81.63023933194494
92.5,81.82418103812516,81.42306423514542,81.6026214905299,81.75420439495399,81.65951519415275,81.65489359298412
95.0,81.89726208063199,81.46710046728684,81.66712679450018,81.8087376779058,81.67733269549788,81.70595568266837
97.5,81.77504497414478,81.32770737774732,81.54025759973356,81.67215434978816,81.51505846520628,81.56868653274725
100.0,81.7400214520035,81.29353115251992,81.50752425947441,81.63069621855188,81.45123706630436,81.52728678230825
103.0,81.71331444773055,81.2682889519746,81.48441866953365,81.59799015394127,81.4004868722051,81.4956319405147
106.0,81.67328982533138,81.22569555815416,81.44729833603026,81.54976382340357,81.33498169192882,81.44904554919621
109.0,81.64993893176307,81.19400181032164,81.42718337084436,81.50840339093902,81.25372062570464,81.40984382278444
112.0,81.66741741221993,81.18962836996023,81.44292700933468,81.49713938077458,81.18111421252318,81.39967535706899
115.0,81.60457929673315,81.1052294284484,81.37120648642367,81.42141379263063,81.10439129280292,81.32566352772633
118.0,81.54026820106584,81.0133843557848,81.29680816452091,81.34154422792153,81.02807602833248,81.24862595684507
122.0,81.49312306143966,80.91628929158918,81.24164177422809,81.25170742980161,80.88218310876161,81.16304141956324
125.0,81.41865568456744,80.81239729908208,81.16188456139894,81.1520565270622,80.74254135573075,81.0646373959686
128.0,81.36640987249382,80.7314274410771,81.10268493655059,81.07593582675268,80.64487396230449,80.992271468911
132.0,81.36032080658102,80.6647752024778,81.08860919623042,81.02035689019816,80.51538928232706,80.94048394999832
136.0,81.35542135247317,80.65849640992698,81.09284254915059,81.00377450749126,80.42497064541645,80.91945357379912
140.0,81.30337671762005,80.64129970251346,81.05634929477598,80.96508720301823,80.35093976941337,80.8760465619918
145.0,81.07790738716896,80.45355402894886,80.83635862180644,80.75701928221437,80.2179358547511,80.67892842956968
150.0,80.9644015655199,80.2664827544113,80.70387183007448,80.58664884417976,80.01974902539699,80.5208284505992
155.0,80.97380777839606,80.17464273549943,80.69560061054615,80.5268673602873,79.88514252125339,80.4680543338742
160.0,81.08890925705468,80.2536517890758,80.81915186352872,80.62101504287062,79.93098628931229,80.56191423711233
165.0,81.04208887654458,80.19263031232039,80.78483470576904,80.53563778992297,79.76007672504542,80.48607210631566
170.0,81.1078671483327,80.29905837124933,80.86981410611527,80.61452358061555,79.73225158427621,80.55059373599032
175.0,80.93649978360281,80.18146498231282,80.70539882505369,80.47964370067766,79.69916164138301,80.42144222937824
180.0,80.70808653379547,79.94635586544238,80.48051448236312,80.2291723719846,79.50247972955174,80.1934503182428
185.0,80.60711024520683,79.8085009536267,80.39516369383963,80.05835723419052,79.2013921683783,80.0412480996673
190.0,80.69998241264022,79.90649879661038,80.51568484196201,80.10291186694731,79.04492700853062,80.09131123277977
195.0,80.92963233897474,80.1769930814515,80.75215705557979,80.33777546612124,79.30587976188346,80.33628928637843
200.0,80.83653442615454,80.10701797529292,80.66251430999455,80.24282712134485,79.26079920758552,80.2556511385527
206.0,80.62696055411119,79.8843461440092,80.44634806530506,80.0015813398453,79.01301431090094,80.02972833143448
212.0,80.4911715253586,79.67673988115064,80.28991774978105,79.7896306443542,78.67921558101905,79.82951992159933
218.0,80.46941031201062,79.54170553377666,80.2466677758076,79.66772968979491,78.41986082944128,79.72552996705463
224.0,80.50662168152662,79.42793687005359,80.26136815702314,79.55991301105206,78.15414414002107,79.65646620573372
230.0,80.85328360904445,79.74084449029118,80.60791810856527,79.89282705261478,78.0659019689876,79.93494147331832
236.0,80.9021467139822,79.79548913670851,80.64163968862074,79.97778539047604,78.14159620615048,79.992053012364
243.0,80.62867451245549,79.48422198603612,80.32838748577895,79.71660500215232,78.2711927345616,79.75961569563715
250.0,80.80389346122641,79.44051074222924,80.47441747751135,79.75901680540802,78.13479315797808,79.8179757191591
258.0,80.89845860748802,79.53940156785559,80.62421111542012,79.85388498842082,77.97868154752753,79.8932175799065
265.0,80.86139428051271,79.62486182496188,80.60335393761822,79.94368896060851,78.17018386213495,79.93785206816698
272.0,80.5110614785584,79.36792456697161,80.27091860126016,79.61486465814174,78.1486588846845,79.65847655600624
280.0,80.22472025978432,79.02564188848676,79.99506735193533,79.1879009215418,77.71351014710423,79.3157286847145
290.0,80.54297308774638,79.1600920950931,80.29107154804987,79.3300114746759,77.11451498963065,79.4431174037259
300.0,80.65915182421162,79.34386920284597,80.39283476739374,79.4783706341063,77.17606610070591,79.56849601137958
307.0,80.42881621859819,79.1455947573007,80.17163413560733,79.26107654372422,77.25715920471995,79.38600015146069
315.0,80.64551909557183,79.29328053909957,80.40846098956074,79.46948999295078,77.3453350899665,79.57738302647526
325.0,80.76517052126944,79.05345398319572,80.48531672684884,79.3871014183582,77.4242950571833,79.57709001805873
335.0,80.92110875309187,78.94554571154022,80.59668248152504,79.39084127862874,77.73927326795362,79.66732167157231
345.0,81.20791123266677,79.14386415558634,80.86677112017941,79.59614811476844,78.16124925453268,79.93758900909664
355.0,81.41505274974024,79.1193732071793,81.03077871765639,79.5625214608247,78.32458982084894,80.04632305091943
365.0,81.45946192584913,78.82562212151852,81.0185306094223,79.3193010378963,78.09009704872803,79.93515710060079
375.0,81.74785413484823,78.93056238382786,81.39331515573899,79.59533094139833,77.37263701933716,80.09672400806244
387.0,82.06027494663597,79.34376931776359,81.82008583267435,80.02196035792856,76.87517514186392,80.39765893907735
400.0,82.15756842731925,79.66259569010998,81.86041502057765,80.39275726081154,76.75632213577205,80.54762973349801
412.0,81.79134118789737,79.44730773508118,81.4649330868035,80.14601104350118,76.79673640241874,80.2568998986892
425.0,81.43210984789427,79.17134757714386,81.22601752148027,79.81319358907177,76.49938016690878,79.95426173633223
437.0,81.55739658909009,79.2925549965105,81.45412745552028,80.14188711803759,75.8274372023868,80.08132846535132
450.0,80.98286863138198,78.91058253077273,80.84322232542453,79.8900011939873,76.29825566390525,79.68277212730307
462.0,80.96286291548003,78.57406959597992,80.89025158222084,79.50939913834854,75.63849570481226,79.49910110944087
475.0,80.91789582758469,78.60141445553934,80.88808295627315,79.53349971208546,75.35677601626722,79.47274239746785
487.0,80.84160286216208,78.72985536574386,80.81309401380526,79.607981552636,75.25341399312957,79.4596786027324
500.0,80.75892201986592,78.7594242443758,80.67868737152014,79.40839658903633,74.82981252127713,79.33319215918229
515.0,80.94156995765563,78.6333413948637,80.8906479745901,79.62833044069224,75.6424203280095,79.52730858794033
530.0,81.05737098795548,78.68399325176514,81.12836574706205,79.80829410017198,75.66027558217725,79.67165095453957
545.0,80.81741183380318,78.59109598888689,81.07402879368172,79.67549439977459,75.52226715118407,79.537843825917
560.0,80.70350161363845,78.42993969681919,81.08007143700004,79.443898537553,75.23254598335318,79.41337245299513
580.0,81.13226309239528,78.3576738604434,81.43970637076909,79.43174253226768,74.65306006054524,79.5859639866219
600.0,80.83449955069997,78.34888498782081,81.10881194201987,79.3462691260849,74.56592422842871,79.37804527833775
615.0,81.12913945493868,78.45135737914906,81.2570789094709,79.1556203453918,74.50623241499461,79.48239831095357
630.0,81.11141185619424,78.03280678654234,81.2881697618853,78.91339172755737,74.48427997644815,79.37732324199135
650.0,81.18061587654928,77.81358276586745,81.41432403928368,78.82116615142263,74.35826862498466,79.3820443186608
670.0,81.05742447618293,77.78600063917334,81.51995828220926,78.86158094498403,74.13792228178269,79.36920769152226
690.0,81.02526534866318,77.85916457124115,81.71115016192977,78.95971957926115,74.17833220071805,79.45342380344427
710.0,81.38328220824958,78.0240669442858,82.07202555419126,79.04841099939372,74.56289953909368,79.74062288878962
730.0,81.0259288790036,77.68354415625853,81.95533307427367,78.49064887946756,74.15042239304962,79.4331852104963
750.0,81.13757141811075,78.3608342542171,82.13349324832312,78.88570025813206,74.3757066310652,79.70068783553621
775.0,80.581453293521,78.12995361600674,81.54041764339651,78.22571085912095,73.2568092352078,79.13329001306307
800.0,80.38963368040396,78.2029647837207,81.59751274251558,78.20409626720864,72.45193537380321,79.07068148212946
825.0,80.16418463910883,78.30408155602963,81.69850393581473,78.45626724729709,72.31979853044784,79.10122510779023
850.0,79.53425593907045,77.9808206492925,81.29398743653122,78.2629501000648,72.15903562281788,78.70207527558053
875.0,79.10994163009128,77.81483803067164,81.15784504908332,78.23051745438823,72.13388722316463,78.5170366055843
900.0,79.49531714204319,78.22352968678636,81.95873004844732,79.08659107227872,72.14032525651048,79.13654461126065
925.0,79.43741152857339,78.06490384814941,81.74103496260449,79.00433201215915,72.74779524537632,79.02600785666738
950.0,79.1950088404337,78.07427775314856,81.72196696071656,79.12158026524669,72.41213240793971,78.97671558331906
975.0,78.9523216061659,78.14538614075629,81.75506772252616,79.26329202105482,72.0094989594566,78.96403382978805
1000.0,78.83141981931519,78.1741882325939,81.698819172896,79.27439725987927,72.15314670779588,78.93193777721153
1030.0,78.50905065913311,78.3053034857082,81.4063746789957,79.12591327660738,71.71252006634505,78.7329461485463
1060.0,78.49822377128676,78.37314194928707,81.43900876536468,78.66928086551758,71.5222909511936,78.65237463397666
1090.0,78.48683483284879,78.33984583229035,81.42709156257654,78.40538888578435,71.55693799663686,78.58891628404618
1120.0,78.40197753951576,78.11436465218398,81.49395982697594,78.34418508304513,71.53629123123582,78.54421354581997
1150.0,78.29229135556868,77.7003702401256,81.82390834343249,78.32930427523992,71.27676189324545,78.57396564675743
1180.0,78.50176794331766,77.63131628063805,82.03040895269243,78.416104545871,71.61595883416719,78.71963286113454
1220.0,78.53578028178588,77.12439358718305,82.16565945092215,78.22676120133629,71.42705164439204,78.6684791851775
1250.0,78.25315165778228,77.01546198689937,82.0858916371137,77.93248679678179,71.12102653334408,78.4991409066025
1280.0,77.97054874935837,77.14181060205951,81.93210404883635,77.68389944479088,70.82095693525032,78.34076775241184
1320.0,78.28461493182336,77.54673122626126,81.7501044160404,77.89877446000364,70.56931860079598,78.41211365292628
1360.0,78.83276619548559,77.75257293759965,81.86032891217371,77.96815465797377,70.35807583720587,78.6093816618335
1400.0,78.792450135793,78.02557786775593,81.57652068615555,77.41979280827614,70.41046410202297,78.44048774838977
1450.0,78.59770106979725,77.48949273265752,81.82960752233164,77.50235290166091,69.93838712763389,78.41382931448918
1500.0,78.50096699584789,77.18905950533527,81.68875034457915,77.50534734989425,69.68638271246581,78.27749098429042
1550.0,78.5770477898963,77.0316275282462,81.12554683092814,77.03474362928125,69.30508565356563,77.94033872762766
1600.0,78.6412167755241,76.85262424912952,80.80610513697695,76.52018149458841,69.10321175281105,77.70833170888272
1650.0,78.84648048469633,77.21499630183361,80.87840424125663,76.42160703659802,69.06501096287322,77.83453733657775
1700.0,79.10491502536551,77.30919483187968,81.16168476675689,76.8203369049427,69.08918500413056,78.08960873593894
1750.0,79.1052989264029,76.31263200201583,81.42049780773901,77.35312672410276,69.29315945353456,78.1387191364825
1800.0,78.68240303922984,76.27804905112274,81.3500219077174,77.39438517394572,69.67071681513708,78.0193313761843
1850.0,78.19947075025401,76.35020129884602,80.5909563453482,76.98472735110427,69.36948356950823,77.51868784549319
1900.0,78.30825092161017,75.64809805332051,80.34423228418665,76.78665345251223,69.09538412177949,77.3002873200721
1950.0,78.53503881302554,74.75132942075355,80.48723649982854,76.90580505018845,69.14469533112491,77.32971446267918
2000.0,78.49838498250354,74.16628146026152,80.85402065471236,77.368565110614,69.64411281910243,77.51848139692389
2060.0,78.30695429154126,74.44337103010473,81.14132301519933,77.62584897411818,69.61037117370114,77.67336021468701
2120.0,77.94895511561086,74.7196756930715,80.98116997560385,77.54668036087715,69.5772445554936,77.53225572917759
2180.0,77.80335960545254,75.01059844163633,80.61382795033497,77.40861596454704,69.57222891642284,77.34494746422949
2240.0,77.71431087032506,75.11592089499048,80.48907375663022,77.51195129345514,69.2865117105854,77.29733100500424
2300.0,77.47279635139328,75.174646331504,80.90983659436657,77.99947968329998,68.46299524222351,77.51612806812827
2360.0,77.14916172414806,74.12020348917619,80.7901070906966,77.85070497155576,68.4651551992788,77.25312284789887
2430.0,77.05864409673718,74.92027773791153,80.97815105703303,78.10130321015994,68.99035201419628,77.47596514175191
2500.0,77.05386692402935,76.50548760698248,80.93677994194373,78.40591612034038,69.5088686556396,77.74882357485215
2580.0,76.59873811738242,77.23904139571579,80.5974685763287,78.60378163055584,69.46237286101929,77.70470520877103
2650.0,75.74870746610027,76.69422656619025,80.36145024095954,78.58370054114228,68.72494498733222,77.3654119329382
2720.0,75.6327214587126,77.56853723194361,80.23906280252073,78.12273224008088,68.70067984100035,77.35101232890113
2800.0,75.6078747830555,77.90585005148476,81.0407853920161,78.4533197568268,68.39422457947084,77.81243301092665
2900.0,75.43380308992934,77.80890592835455,80.41382747965133,78.47239936108703,68.19985232141255,77.51701715797317
3000.0,75.06801462220993,77.97792181250023,79.66602961852428,77.87579558548707,67.60137919508884,77.06835569527989
3070.0,75.14299217992178,77.96961288860594,79.69414683034972,77.76639140477364,67.1617865692594,77.05060014452563
3150.0,75.48188831512323,77.7267981952433,79.9752375782865,77.96937965941856,66.95090192886009,77.18704134992797
