Freq "Ceiling Bounce"
20.6 50.98595320326827
21.2 52.03760730894531
21.8 53.05991296664949
22.4 54.24652994985267
23.0 55.4801302649863
23.6 56.55138144074074
24.3 57.357810973001975
25.0 58.13405655013456
25.8 58.94451450449877
26.5 59.67458234974602
27.2 60.55853898339022
28.0 61.56217027280849
29.0 62.87316921645987
30.0 64.14486693491385
30.7 65.01147560357384
31.5 65.45861729420541
32.5 66.11142692683175
33.5 67.17075383509122
34.5 68.17758317263979
35.5 69.13265417070025
36.5 70.02724272709612
37.5 70.83802182322859
38.7 71.76124753636222
40.0 72.70585373871472
41.2 73.51980118322892
42.5 74.30932296455593
43.7 74.96379349264035
45.0 75.60742005175187
46.2 76.13910647439096
47.5 76.65811564837281
48.7 77.09934300500512
50.0 77.55433482311598
51.5 78.06360965867243
53.0 78.53846933782576
54.5 78.93051853786295
56.0 79.24905970344055
58.0 79.54989952383615
60.0 79.87217944340847
61.5 80.17005982954414
63.0 80.462363929071
65.0 80.71551776813254
67.0 80.86698698790492
69.0 80.95787646964332
71.0 81.22890323590707
73.0 81.42810974898818
75.0 81.54023186202029
77.5 81.37982482897517
80.0 81.41234896325346
82.5 81.61753294607378
85.0 81.7151108160521
87.5 81.44220743530722
90.0 81.39487137648574
92.5 81.42306423514542
95.0 81.46710046728684
97.5 81.32770737774732
100.0 81.29353115251992
103.0 81.2682889519746
106.0 81.22569555815416
109.0 81.19400181032164
112.0 81.18962836996023
115.0 81.1052294284484
118.0 81.0133843557848
122.0 80.91628929158918
125.0 80.81239729908208
128.0 80.7314274410771
132.0 80.6647752024778
136.0 80.65849640992698
140.0 80.64129970251346
145.0 80.45355402894886
150.0 80.2664827544113
155.0 80.17464273549943
160.0 80.2536517890758
165.0 80.19263031232039
170.0 80.29905837124933
175.0 80.18146498231282
180.0 79.94635586544238
185.0 79.8085009536267
190.0 79.90649879661038
195.0 80.1769930814515
200.0 80.10701797529292
206.0 79.8843461440092
212.0 79.67673988115064
218.0 79.54170553377666
224.0 79.42793687005359
230.0 79.74084449029118
236.0 79.79548913670851
243.0 79.48422198603612
250.0 79.44051074222924
258.0 79.53940156785559
265.0 79.62486182496188
272.0 79.36792456697161
280.0 79.02564188848676
290.0 79.1600920950931
300.0 79.34386920284597
307.0 79.1455947573007
315.0 79.29328053909957
325.0 79.05345398319572
335.0 78.94554571154022
345.0 79.14386415558634
355.0 79.1193732071793
365.0 78.82562212151852
375.0 78.93056238382786
387.0 79.34376931776359
400.0 79.66259569010998
412.0 79.44730773508118
425.0 79.17134757714386
437.0 79.2925549965105
450.0 78.91058253077273
462.0 78.57406959597992
475.0 78.60141445553934
487.0 78.72985536574386
500.0 78.7594242443758
515.0 78.6333413948637
530.0 78.68399325176514
545.0 78.59109598888689
560.0 78.42993969681919
580.0 78.3576738604434
600.0 78.34888498782081
615.0 78.45135737914906
630.0 78.03280678654234
650.0 77.81358276586745
670.0 77.78600063917334
690.0 77.85916457124115
710.0 78.0240669442858
730.0 77.68354415625853
750.0 78.3608342542171
775.0 78.12995361600674
800.0 78.2029647837207
825.0 78.30408155602963
850.0 77.9808206492925
875.0 77.81483803067164
900.0 78.22352968678636
925.0 78.06490384814941
950.0 78.07427775314856
975.0 78.14538614075629
1000.0 78.1741882325939
1030.0 78.3053034857082
1060.0 78.37314194928707
1090.0 78.33984583229035
1120.0 78.11436465218398
1150.0 77.7003702401256
1180.0 77.63131628063805
1220.0 77.12439358718305
1250.0 77.01546198689937
1280.0 77.14181060205951
1320.0 77.54673122626126
1360.0 77.75257293759965
1400.0 78.02557786775593
1450.0 77.48949273265752
1500.0 77.18905950533527
1550.0 77.0316275282462
1600.0 76.85262424912952
1650.0 77.21499630183361
1700.0 77.30919483187968
1750.0 76.31263200201583
1800.0 76.27804905112274
1850.0 76.35020129884602
1900.0 75.64809805332051
1950.0 74.75132942075355
2000.0 74.16628146026152
2060.0 74.44337103010473
2120.0 74.7196756930715
2180.0 75.01059844163633
2240.0 75.11592089499048
2300.0 75.174646331504
2360.0 74.12020348917619
2430.0 74.92027773791153
2500.0 76.50548760698248
2580.0 77.23904139571579
2650.0 76.69422656619025
2720.0 77.56853723194361
2800.0 77.90585005148476
2900.0 77.80890592835455
3000.0 77.97792181250023
3070.0 77.96961288860594
3150.0 77.7267981952433
3250.0 77.41937765058368
3350.0 77.2619804384502
3450.0 76.77377101650085
3550.0 76.2390921174333
3650.0 75.70119789316027
3750.0 75.24314979610554
3870.0 75.16663046114223
4000.0 75.08010746701375
4120.0 75.34838743344926
4250.0 75.2968485768231
4370.0 75.56467191396325
4500.0 75.8249457558358
4620.0 75.86618395424088
4750.0 75.77960521259062
4870.0 76.00174729789366
5000.0 76.11833204076045
5150.0 76.07529848433593
5300.0 75.99333425624016
5450.0 76.21168753560475
5600.0 76.2851293567643
5800.0 76.32799714735275
6000.0 76.35974166124025
6150.0 76.31200051861799
6300.0 76.20056304241906
6500.0 76.01461791184863
6700.0 75.81904433212583
6900.0 75.47727641151435
7100.0 75.26573033941712
7300.0 75.08984679749491
7500.0 74.87064809022267
7750.0 74.56055201694002
8000.0 74.40018156116072
8250.0 74.23491378059322
8500.0 74.04833657892551
8750.0 73.86055916038478
9000.0 73.63604406514737
9250.0 73.38538237109657
9500.0 73.13132283053243
9750.0 72.88182262815211
10000.0 72.64205312269154
10300.0 72.42489640060886
10600.0 72.32179488687382
10900.0 72.12567831691665
11200.0 71.6652384801258
11500.0 71.26940980663882
11800.0 71.01871035051906
12200.0 70.93907960518767
12500.0 70.87816340079242
12800.0 70.77128465970557
13200.0 70.70941618113308
13600.0 70.72604284503241
14000.0 70.75717145671521
14500.0 70.91993183483974
15000.0 70.95928727747568
15500.0 70.8845581939888
16000.0 70.49329268331589
16500.0 70.07954218887257
17000.0 69.65397925921064
17500.0 69.19935081257034
18000.0 68.39718930585185
18500.0 67.83461108883272
19000.0 69.04176893077666
19500.0 68.70502502152958
