Freq "Front Wall Bounce"
20.6 50.12517126120399
21.2 51.09813622046239
21.8 52.044239860703314
22.4 53.39537222814137
23.0 54.88252007357046
23.6 56.16051981846688
24.3 57.08205130108617
25.0 57.922294884008735
25.8 58.471853052902944
26.5 59.02480067935774
27.2 59.92398055808026
28.0 60.96060137958413
29.0 62.38589709949888
30.0 63.658631599258015
30.7 64.49411875641306
31.5 65.03419700210672
32.5 65.77755637554685
33.5 66.83202729702326
34.5 67.84723783565684
35.5 68.81109860535933
36.5 69.70974188736325
37.5 70.52071421479214
38.7 71.44114060771042
40.0 72.38089400171862
41.2 73.19183785298343
42.5 73.98066302023064
43.7 74.63473544592728
45.0 75.27984824068176
46.2 75.81313020813722
47.5 76.33334144829024
48.7 76.7758613530984
50.0 77.23373727720677
51.5 77.74611933097974
53.0 78.22314056314238
54.5 78.61654716845466
56.0 78.93208340369954
58.0 79.20920171352417
60.0 79.5322239288343
61.5 79.84418744860724
63.0 80.1504272733258
65.0 80.41099562182289
67.0 80.56399596415899
69.0 80.65912672631835
71.0 80.94013722349888
73.0 81.14975446315934
75.0 81.27204225778335
77.5 81.12106705546493
80.0 81.16436137906516
82.5 81.38261721661954
85.0 81.49503210908964
87.5 81.23693014787266
90.0 81.19249768327846
92.5 81.23499690825145
95.0 81.29950221222171
97.5 81.17263301745511
100.0 81.13989967719594
103.0 81.11679408725519
106.0 81.07967375375179
109.0 81.0595587885659
112.0 81.0753024270562
115.0 81.00358190414521
118.0 80.92918358224244
122.0 80.87401719194962
125.0 80.79425997912047
128.0 80.73506035427212
132.0 80.72098461395196
136.0 80.72521796687214
140.0 80.68872471249752
145.0 80.46873403952797
150.0 80.33624724779602
155.0 80.32797602826768
160.0 80.45152728125024
165.0 80.41721012349059
170.0 80.5021895238368
175.0 80.33777424277523
180.0 80.11288990008465
185.0 80.02753911156117
190.0 80.14806025968356
195.0 80.38453247330132
200.0 80.29488972771608
206.0 80.0787234830266
212.0 79.92229316750257
218.0 79.87904319352913
224.0 79.89374357474468
230.0 80.2402935262868
236.0 80.27401510634228
243.0 79.9607629035005
250.0 80.10679289523289
258.0 80.25658653314166
265.0 80.23572935533974
272.0 79.90329401898168
280.0 79.62744276965687
290.0 79.9234469657714
300.0 80.02521018511526
307.0 79.80400955332887
315.0 80.04083640728228
325.0 80.11769214457036
335.0 80.22905789924657
345.0 80.49914653790094
355.0 80.66315413537792
365.0 80.65090602714383
375.0 81.02569057346052
387.0 81.45246125039588
400.0 81.49279043829917
412.0 81.09730850452503
425.0 80.8583929392018
437.0 81.08650287324183
450.0 80.47559774314608
462.0 80.52262699994237
475.0 80.52045837399469
487.0 80.44546943152679
500.0 80.31106278924167
515.0 80.52302339231163
530.0 80.76074116478358
545.0 80.70640421140327
560.0 80.71244685472158
580.0 81.0720817884906
600.0 80.74118735974142
615.0 80.88945432719245
630.0 80.92054517960683
650.0 81.04669945700523
670.0 81.15233369993081
690.0 81.34352557965128
710.0 81.70440097191279
730.0 81.58770849199519
750.0 81.76586866604465
775.0 81.17279306111803
800.0 81.22988816023711
825.0 81.33087935353626
850.0 80.92636285425276
875.0 80.79022046680485
900.0 81.59110546616886
925.0 81.37341038032604
950.0 81.35434237843809
975.0 81.3874431402477
1000.0 81.33119459061756
1030.0 81.03875009671724
1060.0 81.07138418308621
1090.0 81.05946698029807
1120.0 81.12633524469747
1150.0 81.45628376115403
1180.0 81.66278437041396
1220.0 81.79803486864368
1250.0 81.71826705483524
1280.0 81.5644794665579
1320.0 81.38247983376192
1360.0 81.49270432989526
1400.0 81.2088961038771
1450.0 81.46198294005319
1500.0 81.32112576230068
1550.0 80.75792224864968
1600.0 80.43848055469849
1650.0 80.51077965897817
1700.0 80.79406018447844
1750.0 81.05287322546054
1800.0 80.98239732543892
1850.0 80.22333176306975
1900.0 79.97660770190818
1950.0 80.11961191755009
2000.0 80.4863960724339
2060.0 80.77369843292087
2120.0 80.61354539332538
2180.0 80.2462033680565
2240.0 80.12144917435175
2300.0 80.5422120120881
2360.0 80.42248250841813
2430.0 80.61052647475456
2500.0 80.56915535966526
2580.0 80.22984399405023
2650.0 79.99382565868108
2720.0 79.87143822024227
2800.0 80.67316080973764
2900.0 80.04620289737286
3000.0 79.2984050362458
3070.0 79.32652224807126
3150.0 79.60761299600803
3250.0 79.36981717449989
3350.0 79.15485208938073
3450.0 79.21133593645955
3550.0 79.3051774726221
3650.0 79.37904423596234
3750.0 79.38279291002861
3870.0 79.1491793904223
4000.0 79.6515836170718
4120.0 79.20925843494399
4250.0 79.29708472859521
4370.0 78.94466401580799
4500.0 78.64825565912827
4620.0 78.69265242611422
4750.0 78.64558460501837
4870.0 78.2765879125488
5000.0 77.80988819908782
5150.0 77.51462429949723
5300.0 77.74030538380455
5450.0 77.90258680956099
5600.0 78.20270579702756
5800.0 77.88138214541225
6000.0 78.02553755987942
6150.0 78.36187062389594
6300.0 78.7059187205291
6500.0 79.20457798526937
6700.0 79.35243907925133
6900.0 79.24529725962448
7100.0 79.41616581747284
7300.0 79.54886569573472
7500.0 79.49173336260812
7750.0 79.60029815985617
8000.0 79.85988944554494
8250.0 79.749588397188
8500.0 79.61810798465008
8750.0 79.56823373809208
9000.0 79.5222044830511
9250.0 79.41306146489218
9500.0 79.20749500495913
9750.0 79.09624073189792
10000.0 79.0723232398583
10300.0 79.15950995028403
10600.0 79.36242882555159
10900.0 79.6822901351592
11200.0 79.95472278314428
11500.0 80.09710836457664
11800.0 80.12982114414832
12200.0 80.0294353677077
12500.0 79.790029278012
12800.0 79.56395843429539
13200.0 79.3758512728856
13600.0 79.28520150288698
14000.0 79.16560595081675
14500.0 78.9022458345099
15000.0 78.59470528243678
15500.0 78.23171117217065
16000.0 78.16842358929992
16500.0 78.3875879013414
17000.0 78.41447329801409
17500.0 78.41245462259262
18000.0 78.24702151578627
18500.0 77.95971276721723
19000.0 77.79671416239923
19500.0 77.87135899588873
