Freq "Side Wall Bounce"
20.6 50.82827491927482
21.2 51.90541413121154
21.8 52.953590529148514
22.4 54.14711983260365
23.0 55.38426580902957
23.6 56.48366471665348
24.3 57.38558297681563
25.0 58.23982404994757
25.8 59.0336216286406
26.5 59.749487596345986
27.2 60.6187396253347
28.0 61.6072277983739
29.0 62.90444169021741
30.0 64.16440734323619
30.7 65.02335187871911
31.5 65.43546376151086
32.5 66.05800939194421
33.5 67.12528134910974
34.5 68.1372307644309
35.5 69.09557031857847
36.5 69.99121886637111
37.5 70.80329823968617
38.7 71.72910993670368
40.0 72.67778406450479
41.2 73.49533509820252
42.5 74.28518892768655
43.7 74.94194547783329
45.0 75.58805076788634
46.2 76.12240954797154
47.5 76.643633915419
48.7 77.08590071999036
50.0 77.54171456864509
51.5 78.05185891834518
53.0 78.52716774164732
54.5 78.91923836054016
56.0 79.23426883720846
58.0 79.51439873481361
60.0 79.83195688938306
61.5 80.13455798156261
63.0 80.43157136590811
65.0 80.68327034852145
67.0 80.82988795610352
69.0 80.92022917975457
71.0 81.19716435873804
73.0 81.40140417839933
75.0 81.51723783876545
77.5 81.35603193391505
80.0 81.38729081569512
82.5 81.59090578037855
85.0 81.68923998926533
87.5 81.4203964175201
90.0 81.35740720128548
92.5 81.38657981267552
95.0 81.44111309562733
97.5 81.30452976750969
100.0 81.26307163627341
103.0 81.2303655716628
106.0 81.18213924112511
109.0 81.14077880866056
112.0 81.12951479849612
115.0 81.05378921035216
118.0 80.97391964564306
122.0 80.88408284752315
125.0 80.78443194478373
128.0 80.70831124447422
132.0 80.65273230791966
136.0 80.63614992521279
140.0 80.59746262073976
145.0 80.3893946999359
150.0 80.2190242619013
155.0 80.15924277800882
160.0 80.25339046059217
165.0 80.1680132076445
170.0 80.24689899833709
175.0 80.1120191183992
180.0 79.86154778970614
185.0 79.69073265191206
190.0 79.73528728466884
195.0 79.97015088384278
200.0 79.8752025390664
206.0 79.63395675756684
212.0 79.42200606207574
218.0 79.30010510751644
224.0 79.19228842877358
230.0 79.52520247033631
236.0 79.61016080819758
243.0 79.34898041987385
250.0 79.39139222312956
258.0 79.48626040614234
265.0 79.57606437833005
272.0 79.24724007586327
280.0 78.82027633926334
290.0 78.96238689239742
300.0 79.11074605182783
307.0 78.89345196144576
315.0 79.10186541067232
325.0 79.01947683607975
335.0 79.02321669635026
345.0 79.22852353248997
355.0 79.19489687854623
365.0 78.95167645561783
375.0 79.22770635911986
387.0 79.65433577565011
400.0 80.02513267853307
412.0 79.7783864612227
425.0 79.44556900679332
437.0 79.77426253575912
450.0 79.52237661170885
462.0 79.14177455607008
475.0 79.16587512980699
487.0 79.24035697035754
500.0 79.04077200675788
515.0 79.26070585841377
530.0 79.44066951789351
545.0 79.30786981749613
560.0 79.07627395527453
580.0 79.06411794998921
600.0 78.97864454380642
615.0 78.7879957631133
630.0 78.5457671452789
650.0 78.45354156914416
670.0 78.49395636270555
690.0 78.59209499698268
710.0 78.68078641711526
730.0 78.12302429718909
750.0 78.5180756758536
775.0 77.85808627684249
800.0 77.83647168493017
825.0 78.08864266501861
850.0 77.89532551778633
875.0 77.86289287210978
900.0 78.71896649000026
925.0 78.63670742988067
950.0 78.75395568296823
975.0 78.89566743877636
1000.0 78.9067726776008
1030.0 78.75828869432891
1060.0 78.30165628323913
1090.0 78.03776430350588
1120.0 77.97656050076667
1150.0 77.96167969296145
1180.0 78.04847996359253
1220.0 77.85913661905784
1250.0 77.56486221450334
1280.0 77.31627486251243
1320.0 77.53114987772517
1360.0 77.60053007569529
1400.0 77.05216822599769
1450.0 77.13472831938245
1500.0 77.13772276761578
1550.0 76.6671190470028
1600.0 76.15255691230992
1650.0 76.05398245431955
1700.0 76.45271232266423
1750.0 76.9855021418243
1800.0 77.02676059166726
1850.0 76.6171027688258
1900.0 76.41902887023376
1950.0 76.53818046790998
2000.0 77.00094052833553
2060.0 77.25822439183973
2120.0 77.1790557785987
2180.0 77.04099138226856
2240.0 77.14432671117666
2300.0 77.63185510102151
2360.0 77.48308038927729
2430.0 77.73367862788147
2500.0 78.03829153806193
2580.0 78.23615704827738
2650.0 78.2160759588638
2720.0 77.75510765780241
2800.0 78.08569517454833
2900.0 78.10477477880856
3000.0 77.5081710032086
3070.0 77.39876682249519
3150.0 77.60175507714011
3250.0 77.60733446464263
3350.0 77.1460372297732
3450.0 77.12418657641429
3550.0 77.0223765882536
3650.0 76.93413905512226
3750.0 76.89387560765464
3870.0 76.60261198278697
4000.0 77.01237079823714
4120.0 76.84393024491823
4250.0 76.70493500467862
4370.0 76.55761884001497
4500.0 76.4166846987819
4620.0 76.33649091737051
4750.0 76.39781261851785
4870.0 76.36744143350955
5000.0 75.95183793245646
5150.0 75.51084701119409
5300.0 75.68280040055826
5450.0 75.72725272991097
5600.0 75.94689627264655
5800.0 75.90727002601062
6000.0 75.61589835163869
6150.0 75.27311275465816
6300.0 74.94744469353363
6500.0 75.13574405585484
6700.0 74.28651522939862
6900.0 74.02324381131925
7100.0 73.93342846061385
7300.0 73.79733729453802
7500.0 73.62811331609551
7750.0 73.81633155439977
8000.0 73.81769424836982
8250.0 73.69629831058116
8500.0 73.6683700448855
8750.0 73.63729486802298
9000.0 73.54111830839369
9250.0 73.34849372776641
9500.0 73.04309054217826
9750.0 72.69497440789031
10000.0 72.3929197790464
10300.0 72.11948591610745
10600.0 71.95485445104151
10900.0 71.84639937415174
11200.0 71.61175434445725
11500.0 71.36337369671917
11800.0 71.13675478803549
12200.0 70.93313106789307
12500.0 70.84732879836093
12800.0 70.69372008962046
13200.0 70.5797633691483
13600.0 70.59754203754457
14000.0 70.70958254977813
14500.0 70.86050614311416
15000.0 70.87265339514991
15500.0 70.694598581797
16000.0 70.33855036163038
16500.0 70.17956190926357
17000.0 70.11987785654244
17500.0 70.05518455633894
18000.0 69.84603849623458
18500.0 69.49083455619152
19000.0 69.08362320856268
19500.0 68.91605234751545
