Freq,On Axis,Listening Window,Sound Power,Early Reflections,Early Reflections DI,Sound Power DI,DI offset
20.5078,49.0406409090909,48.42513227636378,58.58088981885278,55.85906198913368,32.566070287230104,29.844242457511,40
21.9727,53.14634090909091,53.11947343248447,61.95260316529756,59.393591747123324,33.725881685361145,31.16687026718691,40
23.4375,58.83754090909089,58.80599097071597,64.45712858273255,62.410665719035464,36.395325251680504,34.34886238798342,40
24.9023,62.44624090909089,62.4115930849983,66.4726601931015,64.83515322668971,37.57643985830859,35.9389328918968,40
26.3672,65.65404090909088,65.66639644012514,69.21911078124761,67.74743084708841,37.91896559303673,36.44728565887753,40
27.832,68.5361409090909,68.53793057251958,71.1419647997928,69.98838290061171,38.549547671907874,37.39596577272678,40
29.2969,70.6763409090909,70.6894062207876,73.04991230515941,71.9856078726766,38.70379834811101,37.639493915628194,40
30.7617,72.7282409090909,72.7503638566586,74.8161350058154,73.8676855523542,38.88267830430439,37.9342288508432,40
32.2266,74.2103409090909,74.2379017950326,76.09024205576263,75.22584920519729,39.01205258983531,38.14765973926997,40
33.6914,75.3026409090909,75.33102092231407,76.95506271402182,76.18308300393835,39.14793791837572,38.375958208292246,40
35.1562,76.03844090909091,76.06861894508862,77.54373391779106,76.83449541109471,39.23412353399391,38.52488502729756,40
36.6211,76.52634090909089,76.56272495452842,77.98211084559946,77.29674573798304,39.265979216545375,38.580614108928955,40
38.0859,76.8034409090909,76.84049372234965,78.14890280886937,77.50997746860315,39.330516253746495,38.69159091348028,40
39.5508,77.21514090909089,77.24664037110139,78.29746236714735,77.77084613221756,39.475794238883836,38.949178003954046,40
41.0156,77.5619409090909,77.59434316894256,78.6216265606777,78.10419906014175,39.490144108800806,38.97271660826486,40
42.4805,77.8806409090909,77.91250083853174,78.84641496683238,78.37172745506025,39.54077338347149,39.06608587169936,40
43.9453,78.1921409090909,78.22383968315857,79.07645187756147,78.6386839267978,39.58515575636078,39.147387805597106,40
45.4102,78.5060409090909,78.53862158871993,79.35805106358757,78.93434483365344,39.60427675506649,39.18057052513237,40
46.875,78.78024090909089,78.81338400735238,79.59180077567432,79.18695641846587,39.626427588886514,39.22158323167807,40
48.3398,79.14974090909088,79.18200186682601,79.90533177680585,79.52538187748326,39.65661998934276,39.27667009002016,40
51.2695,79.69084090909091,79.72219277799722,80.34952665551221,80.01797185898793,39.70422091900929,39.372666122485015,40
52.7344,79.9868409090909,80.01628314744168,80.5703166490632,80.27207448679694,39.744208660644745,39.44596649837848,40
54.1992,80.26974090909091,80.29874640537831,80.81629418862038,80.53363503659035,39.765111368787956,39.482452216757935,40
55.6641,80.5417409090909,80.57036323883182,81.06158543950934,80.78985388760286,39.78050935122896,39.50877779932247,40
58.5938,81.0646409090909,81.09113906669766,81.49273525257715,81.26391912497489,39.827219941722774,39.598403814120516,40
60.0586,81.3386409090909,81.36378534826152,81.72520272888916,81.5142219993669,39.84956334889462,39.63858261937236,40
62.9883,81.78964090909089,81.81164719494625,82.07924880486132,81.91327924825426,39.89836794669199,39.732398390084924,40
64.4531,81.9011409090909,81.92147828093154,82.12689501596243,81.99263867245676,39.928839608474775,39.794583264969106,40
67.3828,82.07534090909091,82.09857457818686,82.3078889519485,82.17521316102106,39.92336141716579,39.79068562623836,40
68.8477,82.0775409090909,82.09916653892336,82.26395471956532,82.1526553061967,39.94651123272665,39.83521181935804,40
71.7773,82.0982409090909,82.12015847629367,82.3187453104805,82.18847448270076,39.93168399359291,39.80141316581317,40
74.707,82.1915409090909,82.20437283062068,82.1683075966619,82.15345367861387,40.05091915200681,40.03606523395878,40
77.6367,81.8130409090909,81.83333909146423,81.91865318971182,81.84481164549328,39.988527445970945,39.91468590175241,40
79.1016,81.6151409090909,81.63825713361841,81.79761781522059,81.68771220593867,39.95054492767974,39.84063931839782,40
82.0312,81.5480409090909,81.56667920737377,81.65829045484908,81.57535991504122,39.99131929233255,39.90838875252469,40
84.9609,81.4887409090909,81.5040893309468,81.57987713442083,81.50249418564835,40.00159514529845,39.92421219652597,40
87.8906,81.6814409090909,81.68184249571054,81.50000145735133,81.54521131352523,40.13663118218531,40.18184103835921,40
90.8203,81.6902409090909,81.698396478376,81.57440248151379,81.59764561574103,40.10075086263497,40.12399399686221,40
95.2148,81.57134090909089,81.57648898873718,81.5026061468929,81.49185359632104,40.084635392416146,40.07388284184428,40
98.1445,81.6893409090909,81.68499371767192,81.46454221303078,81.52296913357468,40.16202458409724,40.22045150464113,40
101.074,81.83224090909091,81.82421161015122,81.44051868519158,81.58811340718935,40.23609820296187,40.38369292495965,40
105.469,81.8347409090909,81.82613469372521,81.46338573690787,81.60280674765667,40.22332794606854,40.36274895681734,40
108.398,81.8282409090909,81.81918434212012,81.45993785259414,81.59638155668397,40.22280278543616,40.35924648952599,40
112.793,81.7439409090909,81.73794819134683,81.46503277201585,81.55319023153433,40.1847579598125,40.272915419330985,40
117.188,81.64214090909088,81.62086699910398,81.17234515114409,81.3270913443029,40.29377565480108,40.448521847959896,40
120.117,82.0177409090909,81.99334991515215,81.44230017477527,81.65856829006178,40.33478162509037,40.55104974037688,40
124.512,82.07944090909089,82.06175628868534,81.63693475618348,81.79561644236826,40.26613984631709,40.424821532501866,40
128.906,82.0758409090909,82.05248513496242,81.51181791555054,81.72502240233807,40.327462732624355,40.54066721941189,40
133.301,81.98284090909088,81.96456241865485,81.38363781493813,81.62751133651611,40.33705108213874,40.580924603716724,40
139.16,81.7499409090909,81.732397197284,81.20359945129829,81.41361096048364,40.318786236800364,40.52879774598571,40
143.555,81.6311409090909,81.59419610907496,80.96843369814749,81.19981422425552,40.39438188481944,40.625762410927464,40
147.949,81.96654090909091,81.92781505610667,81.1093104904159,81.46012631838569,40.46768873772098,40.81850456569077,40
153.809,81.5913409090909,81.5654602808928,80.83067842084705,81.1552000544198,40.410260226473,40.73478186004574,40
159.668,81.04204090909091,81.00286182250603,80.39003663874162,80.62742503363111,40.37543678887492,40.612825183764414,40
165.527,81.25754090909088,81.17248813314724,80.09609707548339,80.52655201402008,40.64593611912716,41.076391057663855,40
171.387,81.88284090909092,81.84571882164194,80.74690245912477,81.24805182320674,40.5976669984352,41.09881636251717,40
177.246,81.6866409090909,81.63377823514172,80.69373552897237,81.09737869057149,40.53639954457023,40.94004270616935,40
183.105,81.7668409090909,81.71487169021547,80.82276816639468,81.18006673330002,40.53480495691545,40.89210352382079,40
188.965,81.74134090909091,81.68294843450028,80.76140336591287,81.1275313960955,40.55541703840477,40.921545068587406,40
196.289,81.59444090909089,81.5162058920542,80.4315156254652,80.89221573377732,40.62399015827688,41.08469026658901,40
203.613,81.65004090909092,81.56467870893786,80.15100858448521,80.7785094988462,40.78616921009166,41.41367012445265,40
210.938,81.94674090909089,81.86401772865332,80.24758396517217,81.00601827117903,40.85799945747429,41.616433763481155,40
218.262,82.2428409090909,82.17302925841317,80.63395380571814,81.36064964040622,40.81237961800694,41.53907545269503,40
225.586,82.1661409090909,82.08653344547155,80.59996580147636,81.29081948956222,40.79571395590932,41.48656764399519,40
232.91,82.0993409090909,82.0139704735304,80.50451934046178,81.18007516914712,40.83389530438329,41.50945113306862,40
241.699,82.06434090909089,81.94888056544414,80.10698396797359,80.96088451668531,40.98799604875883,41.84189659747055,40
250.488,82.77754090909089,82.6497716337153,80.17775897519655,81.4195805838629,41.23019104985241,42.47201265851875,40
259.277,83.1161409090909,83.04808953565473,80.68559880237046,81.93318326482782,41.11490627082691,42.36249073328426,40
268.066,82.7462409090909,82.68635451449849,81.01953902774112,81.84961033936771,40.836744175130775,41.66681548675737,40
276.855,82.51864090909089,82.40127255547637,80.17645128253103,81.29695177563848,41.10432077983789,42.224821272945334,40
287.109,82.5746409090909,82.4863815276718,80.21424533622088,81.35955478524582,41.126826742425976,42.27213619145091,40
297.363,82.7373409090909,82.67309492680384,80.27743682420677,81.55954282822047,41.11355209858337,42.39565810259707,40
307.617,82.4662409090909,82.37936050328669,80.50564833867266,81.43288553976902,40.94647496351767,41.873712164614034,40
319.336,82.2184409090909,82.10792523480738,79.88267858364377,80.99639784410651,41.11152739070087,42.225246651163616,40
329.59,82.4337409090909,82.26810850144152,79.85404237080697,81.03283719018664,41.23527131125488,42.41406613063455,40
341.309,82.2284409090909,82.10976123605307,79.66216792152257,80.9110922290268,41.19866900702627,42.44759331453051,40
353.027,82.8014409090909,82.62049776147025,79.38192894757472,81.05016642454605,41.5703313369242,43.238568813895526,40
366.211,82.4945409090909,82.38601778438111,79.81100860393956,81.09488384735086,41.29113393703025,42.575009180441555,40
379.395,82.22674090909089,82.05983821730426,79.38516283278418,80.70634376650327,41.353494450800994,42.674675384520086,40
392.578,82.2078409090909,82.0661611196407,79.22679688282693,80.60878631422027,41.45737480542043,42.839364236813765,40
405.762,82.1930409090909,81.93970396283571,78.90466025559266,80.28739166659985,41.65231229623586,43.03504370724305,40
420.41,82.6549409090909,82.4157569444237,78.82920154109486,80.69544721643739,41.72030972798632,43.586555403328845,40
435.059,82.4499409090909,82.14563039148514,78.4289270787354,80.14193086733933,42.003699524145816,43.71670331274974,40
451.172,82.51784090909088,82.25667371924106,78.50962833415355,80.2819750327519,41.97469868648916,43.74704538508752,40
465.82,82.6094409090909,82.33893259446299,78.63006040806873,80.43937042619994,41.899562168263046,43.70887218639426,40
483.398,83.26864090909088,82.88665559077931,78.49533636147918,80.50039372555916,42.38626186522015,44.39131922930014,40
499.512,82.8680409090909,82.61807821721983,78.22155604087733,80.37774904159366,42.24032917562617,44.3965221763425,40
517.09,83.73564090909089,83.47539660642008,78.7928321662806,81.06159733721643,42.41379926920365,44.68256444013947,40
536.133,83.33224090909088,83.04711471400064,78.5830886263237,80.7732617448195,42.27385296918115,44.46402608767694,40
555.176,83.1536409090909,82.85509651011537,78.28672428542323,80.5014676902128,42.35362881990257,44.56837222469214,40
574.219,83.7453409090909,83.47590475653806,78.52189194166228,81.02166356414013,42.45424119239793,44.95401281487578,40
594.727,82.97244090909089,82.70605728022191,78.12242026869764,80.44493336888146,42.26112391134045,44.583637011524274,40
615.234,83.4088409090909,83.12078549774911,78.04716403996314,80.47736222639841,42.6434232713507,45.073621457785976,40
637.207,82.78274090909092,82.65608735757093,77.7619016751304,80.37473219162509,42.28135516594584,44.89418568244052,40
659.18,82.8619409090909,82.53416567605521,77.58203823243191,80.04490061937483,42.48926505668038,44.9521274436233,40
682.617,82.8285409090909,82.60807060974318,77.58809953264512,79.98642241772176,42.621648192021425,45.01997107709806,40
707.52,82.4949409090909,82.17345414416341,77.0210315244596,79.6288514634653,42.54460268069812,45.15242261970381,40
732.422,82.28024090909089,81.98763590202181,76.98131827087333,79.57505384179943,42.41258206022238,45.00631763114848,40
757.324,82.2675409090909,81.87082625032772,76.86882225547596,79.12103072174384,42.74979552858389,45.00200399485176,40
785.156,82.1973409090909,81.91101561183717,76.86339498737414,79.51487933410101,42.39613627773616,45.047620624463036,40
811.523,81.96644090909089,81.46922143538917,76.41606717126183,78.91201870923457,42.5572027261546,45.05315426412734,40
840.82,81.9012409090909,81.55027664438919,76.35960003354107,79.02949122107752,42.520785423311665,45.190676610848115,40
870.117,81.8809409090909,81.32236001689472,75.83075996408077,78.60039251404974,42.721967502844976,45.49160005281395,40
900.879,81.5835409090909,81.1096850879836,75.81320982814549,78.5352850124074,42.57440007557621,45.29647525983812,40
933.105,81.59104090909089,81.10382267283974,75.23526052964144,78.12297898358052,42.98084368925922,45.868562143198304,40
965.332,81.5058409090909,81.02320954994046,75.31853531374668,78.1024215694455,42.920787980494964,45.70467423619378,40
1000.49,81.8370409090909,81.3511314839223,75.22247562713511,78.0172419688424,43.3338895150799,46.12865585678719,40
1035.64,81.55394090909088,81.20681170748311,75.35503420932373,78.25681480216794,42.949996905315174,45.85177749815938,40
1072.27,81.7737409090909,81.25799577754505,75.32287393170009,78.00142790121316,43.256567876331886,45.93512184584496,40
1108.89,81.3221409090909,80.95517968881946,75.02814465972054,77.83904418178089,43.116135507038564,45.92703502909892,40
1148.44,82.1205409090909,81.4949159841531,75.34723959788413,78.1725095456602,43.32240643849289,46.14767638626897,40
1189.45,81.98104090909088,81.42171063058406,75.29541277498754,78.14467326469831,43.27703736588575,46.12629785559652,40
1230.47,82.53604090909091,81.92429254909565,75.57670569631917,78.40471070240761,43.51958184668804,46.34758685277649,40
1274.41,83.21074090909092,82.35233978061306,75.77756062206318,78.77759422991298,43.57474555070009,46.57477915854989,40
1319.82,83.2029409090909,82.63921423304285,75.92456827410602,78.90866694586192,43.730547287180926,46.71464595893683,40
1366.7,83.4413409090909,82.68020011033782,75.93284639357167,78.84070212174838,43.83949798858944,46.747353716766156,40
1413.57,83.0706409090909,82.27070791089788,75.53393626355675,78.61381568591455,43.65689222498334,46.73677164734113,40
1463.38,82.4593409090909,81.88053859362027,75.26723285382064,78.38852110851421,43.49201748510606,46.61330573979963,40
1516.11,82.90094090909089,82.22152872150538,75.36207357602107,78.57583376717783,43.64569495432755,46.859455145484304,40
1568.85,83.5020409090909,82.50318759752604,75.47801908489731,78.74259605650313,43.760591541022904,47.025168512628724,40
1624.51,83.1418409090909,82.23302017785045,75.36033619131182,78.53710940677028,43.695910771080165,46.87268398653863,40
1681.64,82.8441409090909,81.96921566686446,75.35272241971278,78.33715074816017,43.63206491870429,46.61649324715168,40
1741.7,83.45314090909089,82.3257456453122,75.29387797619508,78.53172742342225,43.79401822188994,47.03186766911712,40
1803.22,82.93264090909089,82.18229617304654,75.45816072885343,78.64316383040163,43.539132342644905,46.72413544419311,40
1866.21,82.3310409090909,81.47014019517772,75.25990624165074,78.13490399176625,43.33523620341147,46.21023395352698,40
1932.13,82.3814409090909,81.86263630976968,75.46740741234835,78.41021962898427,43.45241668078542,46.39522889742133,40
1999.51,82.5852409090909,82.03956068506743,75.61181444949202,78.64714068414584,43.39242000092159,46.42774623557541,40
2069.82,81.9478409090909,81.42896041156465,75.22372086142667,78.47438445514165,42.954575956423,46.205239550137975,40
2143.07,81.0859409090909,80.66136385418149,74.93736908753536,78.11654592457158,42.544817929609906,45.72399476664613,40
2219.24,81.86494090909092,81.2239058080818,75.09585534547664,78.32764424459707,42.89626156348473,46.12805046260516,40
2296.88,81.6392409090909,81.18193036603927,75.13912208104261,78.53249818870144,42.64943217733783,46.04280828499665,40
2378.91,81.3803409090909,80.7223055533391,75.00039525797958,78.39096539227255,42.33134016106655,45.72191029535952,40
2462.4,81.2693409090909,81.04129204879199,74.97085576831806,78.42692621522397,42.614365833568016,46.07043628047393,40
2548.83,81.49684090909089,81.19571153955934,74.97439431974502,78.56893409358914,42.626777445970205,46.221317219814324,40
2639.65,81.2317409090909,81.03642041576722,74.90344222046875,78.42160967867325,42.614810737093975,46.13297819529848,40
2731.93,81.0770409090909,80.90790826090311,74.59637025825005,78.23684045435715,42.67106780654596,46.311538002653066,40
2828.61,81.4802409090909,81.06724338773333,74.48587630041354,78.25422814297677,42.813015244756556,46.58136708731979,40
2928.22,81.14284090909089,80.97809896855215,74.34958062966352,78.12279821337663,42.85530075517552,46.628518338888625,40
3030.76,80.6195409090909,80.68623670812202,73.84283107430714,77.73053527331406,42.95570143480796,46.84340563381488,40
3137.7,80.35474090909089,80.60070290423714,73.65889117517605,77.56488884675164,43.035814057485496,46.94181172906109,40
3249.02,81.2992409090909,80.99109001557945,73.65383452031452,77.5768978559157,43.41419215966374,47.33725549526493,40
3363.28,81.43094090909089,80.73413144955953,73.54471290468301,77.47829783098383,43.25583361857569,47.18941854487652,40
3481.93,82.3436409090909,81.48479811724975,73.87997589352942,77.88918876160109,43.59560935564866,47.60482222372033,40
3604.98,81.92554090909088,81.23641070989437,73.7234219124419,77.68491102334526,43.55149968654911,47.512988797452465,40
3732.42,82.39234090909092,81.53500883256562,73.73502132965247,77.81302578287112,43.7219830496945,47.799987502913154,40
3864.26,81.8404409090909,81.22244975719259,73.53436441493726,77.50211673855901,43.72033301863358,47.688085342255334,40
4000.49,82.1652409090909,81.31384276287584,73.32669132762774,77.45640508052391,43.85743768235193,47.987151435248094,40
4141.11,81.7154409090909,80.99314446804532,73.19347710934385,77.27322905657932,43.71991541146599,47.79966735870147,40
4287.6,81.98044090909092,81.10942025262268,73.21152754486641,77.34526522662505,43.76415502599764,47.89789270775627,40
4438.48,81.97794090909089,80.99611216598153,73.1833312616319,77.24889692328937,43.747215242692164,47.81278090434962,40
4595.21,81.46914090909091,80.8426306185834,73.14566564811531,77.20173214406258,43.640898474520824,47.69696497046809,40
4756.35,82.02404090909089,81.16290051152659,73.19863142970082,77.38759483763995,43.775305673886635,47.96426908182576,40
4924.8,81.5643409090909,80.78718377532094,72.91539185516866,77.18992714800454,43.5972566273164,47.871791920152276,40
5097.66,81.57724090909089,80.96938599743112,72.99669665205532,77.22477430448846,43.744611692942655,47.9726893453758,40
5277.83,82.11384090909091,81.24101677808268,73.10203322316505,77.44119270137422,43.79982407670846,48.13898355491763,40
5463.87,82.3147409090909,81.3890543106833,73.19960091265874,77.44308684408621,43.9459674665971,48.18945339802457,40
5657.23,82.2248409090909,81.28748402354542,73.07308365464552,77.30842222523167,43.97906179831375,48.2144003688999,40
5856.45,82.0394409090909,81.2153943859287,73.11219254768085,77.29986636996402,43.91552801596468,48.103201838247855,40
6062.99,82.0211409090909,81.23741377760639,73.26299321780938,77.41684873540807,43.820565042198325,47.97442055979701,40
6276.86,82.04374090909089,81.12345583108196,73.17170002596237,77.43135064407441,43.69210518700754,47.95175580511959,40
6498.05,81.8592409090909,81.04249345977075,73.25669866278392,77.4365016599814,43.60599179978935,47.785794796986835,40
6726.56,81.8235409090909,81.03901285228264,73.31933271427815,77.46744970534822,43.57156314693442,47.71968013800449,40
6963.87,81.7289409090909,80.90751254709701,73.3108940582408,77.43924924834594,43.46826329875107,47.59661848885621,40
7209.96,81.0819409090909,80.51637510852889,73.14386850513789,77.19372254285317,43.322652565675725,47.372506603391,40
7464.84,80.7674409090909,80.13774664299306,72.88811588958475,76.92280155595687,43.2149450870362,47.24963075340831,40
7727.05,81.2355409090909,80.27618056645937,72.40777023217754,76.65384121967736,43.62233934678201,47.86841033428183,40
7999.51,81.86224090909091,80.7668925184747,72.57441041548094,76.92489406962241,43.841998448852294,48.192482102993765,40
8282.23,82.0179409090909,80.80312826228793,72.49575819536689,76.90809073826163,43.89503752402629,48.30737006692104,40
