Freq,On Axis,Listening Window,Sound Power,Early Reflections,Early Reflections DI,Sound Power DI,DI offset
20.5078,50.724500000000006,50.33388973822491,56.4626071613026,54.28905232200472,36.04483741622019,33.87128257692231,40
21.9727,49.82560000000001,49.51808898599907,57.44060110814837,55.01693565931316,34.50115332668591,32.0774878778507,40
23.4375,53.4401,53.17297456074215,58.503699644683195,56.5247102968232,36.648264263918946,34.66927491605895,40
24.9023,56.762,56.56363668248184,60.289672919446645,58.7226841593513,37.84095252313054,36.2739637630352,40
26.3672,58.467100000000016,58.306614795677575,61.35116410979737,60.00344677152549,38.303168024152086,36.95545068588021,40
27.832,60.79829999999998,60.64527025744161,63.00694605438488,61.886337910275245,38.758932347166365,37.638324203056726,40
29.2969,62.26599999999999,62.13229642727302,64.4148507131014,63.32567125401957,38.80662517325345,37.71744571417162,40
30.7617,63.891400000000004,63.793375954690305,66.02348463784574,64.96152153320583,38.83185442148448,37.769891316844564,40
32.2266,65.6329,65.55509326425188,67.4615380308334,66.53112930955055,39.02396395470133,38.093555233418485,40
33.6914,66.7825,66.72839318675028,68.70936304579948,67.75364297466444,38.97475021208584,38.019030140950804,40
35.1562,68.4125,68.36813893182104,70.0572487778931,69.22014137908931,39.147997552731724,38.31089015392794,40
36.6211,69.773,69.74191655793297,71.31229164314155,70.53003707404585,39.21187948388712,38.42962491479142,40
38.0859,71.0935,71.07097590978135,72.52967648816107,71.79549373637181,39.27548217340954,38.54129942162028,40
39.5508,72.2336,72.21910638855495,73.61653838409208,72.91018435977155,39.3089220287834,38.60256800446287,40
41.0156,73.4557,73.4501208972786,74.74967623632,74.08961538399082,39.36050551328778,38.700444660958595,40
42.4805,74.044,74.03387305626991,75.08685106382455,74.53257317296556,39.501299883304355,38.94702199244536,40
43.9453,75.0132,75.00994889438866,76.08293630763211,75.5218102157045,39.48813867868415,38.92701258675655,40
45.4102,75.8874,75.8897657383792,76.92141162460561,76.38002985224412,39.509735886135076,38.968354113773586,40
46.875,76.7474,76.75127527453078,77.72580180961015,77.20765625797495,39.54361901655584,39.02547346492064,40
48.3398,77.3042,77.31605737471183,78.35573041087505,77.80958376359177,39.50647361112006,38.96032696383678,40
51.2695,78.5404,78.55566806997008,79.41989889766245,78.95681631209666,39.59885175787342,39.13576917230763,40
52.7344,79.0312,79.04728208116802,79.85768212186655,79.42003528227279,39.62724679889523,39.189599959301475,40
54.1992,79.50809999999998,79.52727989695958,80.32974733673714,79.89663917731376,39.630640719645825,39.19753256022244,40
55.6641,79.9985,80.01853624642456,80.78812017077837,80.37091512383817,39.647621122586386,39.23041607564619,40
58.5938,80.7077,80.7308658360145,81.45157012753167,81.05794497983489,39.672920856179616,39.279295708482834,40
60.0586,81.04670000000002,81.06927195894312,81.72971389846658,81.3642269500115,39.70504500893162,39.339558060476534,40
62.9883,81.6451,81.66952884928753,82.28394609891973,81.94065412424911,39.72887472503842,39.3855827503678,40
64.4531,81.9493,81.97397526730951,82.55650558972239,82.22822409086805,39.74575117644146,39.41746967758712,40
67.3828,82.40699999999998,82.43230319718995,82.97188330914842,82.66269057035898,39.76961262683098,39.46041988804153,40
68.8477,82.55879999999999,82.58529941619594,83.11958423581741,82.81267181901332,39.77262759718262,39.465715180378524,40
71.7773,83.0754,83.10168204410897,83.59057913983807,83.30598867471413,39.79569336939484,39.5111029042709,40
74.707,83.6274,83.65250135693162,84.0588566814116,83.81519953877063,39.837301818160995,39.593644675520025,40
77.6367,83.96800000000002,83.9937145926803,84.38067448608905,84.14617009435756,39.84754449832275,39.61304010659126,40
79.1016,84.1111,84.13732013530483,84.51950284260886,84.2872826791859,39.850037456118926,39.617817292695975,40
82.0312,84.405,84.42893546390734,84.73662541286207,84.54105099101075,39.88788447289659,39.69231005104527,40
84.9609,84.7219,84.74513312907138,85.02542807487883,84.84202329151698,39.903109837554396,39.719705054192545,40
87.8906,84.9119,84.93656193756365,85.23543411488149,85.03985551261157,39.896706424952086,39.70112782268217,40
90.8203,85.2054,85.22114253052071,85.3348736440977,85.23077464235786,39.99036788816285,39.88626888642301,40
95.2148,85.4012,85.42949916595009,85.7803696442642,85.55758662867309,39.871912537277,39.64912952168589,40
98.1445,85.6919,85.71075575636573,85.90767193498576,85.7616975538956,39.94905820247013,39.80308382137997,40
101.074,85.3923,85.42739032928328,85.87881509722715,85.6082984679358,39.81909186134749,39.54857523205614,40
105.469,85.9051,85.92574520296387,86.08191121094069,85.95757232390284,39.96817287906103,39.84383399202318,40
108.398,86.3114,86.31832100616278,86.29127858717318,86.25850157193652,40.059819434226256,40.027042418989595,40
112.793,86.76499999999999,86.75785663420474,86.49890320495842,86.58267748800321,40.17517914620153,40.25895342924632,40
117.188,86.8365,86.82710344421315,86.4951072885199,86.60912369104656,40.21797975316659,40.33199615569325,40
120.117,87.0361,87.02970800354103,86.62356460622019,86.78121520970603,40.248492793835,40.40614339732085,40
124.512,86.94409999999999,86.95569972056003,86.82953618277864,86.84547466535149,40.110225055208545,40.126163537781395,40
128.906,86.5431,86.56312242574818,86.74372156950687,86.59471063985103,39.968411785897146,39.8194008562413,40
133.301,86.7194,86.73021045069176,86.77722726311784,86.69486110793608,40.03534934275568,39.95298318757392,40
139.16,86.738,86.74479925719243,86.70337609173487,86.66702684472482,40.07777241246761,40.04142316545756,40
143.555,86.5504,86.55492556557681,86.62975136116124,86.52748554669664,40.02744001888017,39.92517420441557,40
147.949,86.63320000000002,86.62520029674305,86.46223537102381,86.47945366681988,40.14574662992317,40.16296492571924,40
153.809,86.69320000000002,86.67842096763053,86.33955901519322,86.44558612216858,40.23283484546195,40.33886195243731,40
159.668,86.6953,86.67902333924292,86.33106465805838,86.43683998395784,40.24218335528508,40.34795868118454,40
165.527,86.708,86.70030075308843,86.4840355910636,86.53003795640656,40.17026279668187,40.216265162024825,40
171.387,86.55440000000002,86.53492835469264,86.29965918709249,86.35087775413845,40.18405060055419,40.23526916760015,40
177.246,86.66900000000001,86.63581121581927,86.08649753090052,86.2972572022564,40.33855401356287,40.54931368491876,40
183.105,86.2274,86.19833597866443,85.74680452567063,85.8906538740953,40.307682104569125,40.451531452993805,40
188.965,85.9162,85.88962010830096,85.50683162748945,85.6258748469409,40.26374526136006,40.38278848081151,40
196.289,86.1911,86.15157165835859,85.483937713764,85.75861950481915,40.39295215353944,40.667633944594584,40
203.613,85.9719,85.91609192812435,85.25997546556694,85.49795689667707,40.41813503144728,40.65611646255741,40
210.938,85.9575,85.91391896423997,85.04474938547344,85.413762263731,40.50015670050897,40.86916957876653,40
218.262,85.48499999999999,85.44038608841552,84.93049693237087,85.09253882363947,40.34784726477605,40.50988915604465,40
225.586,85.2792,85.23514862541195,84.80638976444045,84.94612678560159,40.28902183981036,40.4287588609715,40
232.91,85.4607,85.40140792158465,84.50479242055226,84.89263908115839,40.50876884042626,40.896615501032386,40
241.699,84.643,84.62097740795892,84.08385843455305,84.28168451498235,40.33929289297657,40.53711897340587,40
250.488,82.0477,82.0593493497694,83.55875913488256,82.72163979061331,39.337709559156096,38.50059021488684,40
259.277,84.85419999999999,84.60689304379237,84.33847407621275,84.15759507867512,40.44929796511725,40.26841896757962,40
268.066,86.56,86.36306413583875,84.39883065433972,85.26396642889804,41.09909770694071,41.964233481499036,40
276.855,86.1276,85.98499821783098,83.99886134484987,84.92134031380965,41.063657904021326,41.986136872981106,40
287.109,85.9699,85.80452772502842,83.84707186534973,84.7547093488533,41.049818376175125,41.95745585967869,40
297.363,85.6876,85.5530881097045,83.67362210595984,84.54024884711362,41.01283926259089,41.87946600374467,40
307.617,85.9077,85.7773365312218,83.63301929917189,84.66194896029852,41.11538757092329,42.144317232049914,40
319.336,85.5325,85.38173937296585,83.28978505399803,84.25734204713903,41.12439732582682,42.09195431896782,40
329.59,85.6942,85.55447897167836,83.0858516555162,84.28026704928783,41.274211922390535,42.46862731616217,40
341.309,85.3084,85.15240187541971,82.90680570698723,83.99164641999124,41.16075545542847,42.245596168432485,40
353.027,85.1906,85.03234265017241,82.48019511783042,83.74829456914642,41.284048081025986,42.55214753234199,40
366.211,84.8683,84.7351962484653,82.2576552279487,83.47311453180549,41.26208171665981,42.4775410205166,40
379.395,85.4543,85.3144766204123,82.50791119865275,83.91555666918656,41.398919951225736,42.806565421759544,40
392.578,85.4115,85.29911365187836,82.64438714486096,83.99750722182966,41.30160643004869,42.6547265070174,40
405.762,86.262,86.15282489682542,83.49257002550397,84.87730490588305,41.27551999094237,42.660254871321456,40
420.41,86.8795,86.70489281488554,83.42979117266745,85.14441653728447,41.56047627760107,43.27510164221809,40
435.059,85.9138,85.76090667361744,82.77017260615656,84.31678213310907,41.44412454050837,42.99073406746088,40
451.172,86.3654,86.24774276024574,82.96066464419548,84.70847392688525,41.539268833360495,43.28707811605027,40
465.82,86.5457,86.35141384037652,82.85378991548086,84.70351680979196,41.64789703058456,43.49762392489566,40
483.398,86.6284,86.48296720903964,83.05317360990158,84.84546540383613,41.63750180520351,43.429793599138065,40
499.512,85.952,85.82628827534923,82.70045495007088,84.36689011763248,41.45939815771675,43.12583332527835,40
517.09,86.7174,86.57454103595208,83.0489238844155,84.93179668781555,41.64274434813653,43.52561715153658,40
536.133,85.69570000000002,85.48956062627906,82.22632860523561,83.88695695131482,41.60260367496424,43.26323202104345,40
555.176,86.7804,86.61297826356154,82.63969924849016,84.70401307923552,41.90896518432602,43.973279015071384,40
574.219,86.87559999999999,86.73256611019937,83.0931159417067,84.95689918663179,41.775666923567584,43.63945016849267,40
594.727,86.8513,86.68700873715676,83.11064457595917,84.9344924498742,41.75251628728256,43.57636416119759,40
615.234,87.00229999999999,86.85910903693548,83.15486897526226,85.13855433302211,41.720554703913365,43.70424006167322,40
637.207,87.1223,86.93191127482004,83.4073139643388,85.3162647524833,41.61564652233673,43.52459731048124,40
659.18,86.90540000000001,86.56388486543055,82.88003939933566,84.73689021047736,41.8269946549532,43.683845466094894,40
682.617,87.0085,86.64884868252466,82.67917574861428,84.69579322950014,41.95305545302452,43.969672933910374,40
707.52,87.2099,86.88404444871546,82.83376978649194,84.87405548028357,42.009988968431884,44.050274662223515,40
732.422,86.8497,86.58408635338522,82.52784289466328,84.60691968678503,41.97716666660018,44.05624345872194,40
757.324,86.8118,86.45423418595726,82.48014373718496,84.59871213028399,41.855522055673276,43.9740904487723,40
785.156,87.9386,87.49867472217834,83.20231093329969,85.4316231192248,42.06705160295354,44.29636378887865,40
811.523,86.8098,86.31574587320186,81.84700521753305,84.5111418683745,41.80460400482737,44.46874065566881,40
840.82,86.5494,86.34417017099089,82.40763726089742,84.70366766217948,41.64050250881141,43.936532910093476,40
870.117,88.4188,87.79157137570763,83.0279654442638,85.12820368952134,42.66336768618629,44.763605931443834,40
900.879,86.3105,86.29701318263031,82.33267603427129,84.3137337515022,41.98327943112811,43.96433714835902,40
933.105,86.78230000000002,86.83856030901447,82.70154063420263,84.5081678225955,42.33039248641897,44.13701967481184,40
965.332,88.1689,87.71119338912634,83.19655939097932,85.24553969991896,42.46565368920737,44.51463399814702,40
1000.49,86.7203,86.27699343815041,81.93693033699225,84.68385256108128,41.59314087706913,44.340063101158165,40
1035.64,86.57649999999998,86.02058269981745,82.42717391398156,84.41167790762162,41.60890479219583,43.59340878583589,40
1072.27,86.9042,86.51314186287141,82.14949163300118,85.06119721460706,41.451944648264345,44.36365022987023,40
1108.89,86.552,86.43361937044666,82.46513517472138,85.31624043673605,41.11737893371061,43.96848419572528,40
1148.44,84.9426,85.15254788890198,81.63431452399999,84.74559011215787,40.40695777674411,43.51823336490199,40
1189.45,85.89760000000001,85.8088564891141,81.50896128872009,84.35306319082761,41.455793298286494,44.29989520039402,40
1230.47,85.578,85.21369968600877,81.08247469683114,84.150861553598,41.06283813241076,44.131224989177625,40
1274.41,86.6058,86.00233872024111,80.7981933856393,84.08283379689355,41.91950492334756,45.20414533460182,40
1319.82,87.43119999999999,86.64835100098168,80.72267268987416,84.2466039633884,42.40174703759328,45.92567831110752,40
1366.7,88.01480000000001,87.39707174042184,80.99416732560023,84.81422287718974,42.5828488632321,46.402904414821606,40
1413.57,88.5481,87.82890504305138,80.91275807373822,84.98918636209845,42.83971868095293,46.91614696931316,40
1463.38,88.5801,87.96794881561698,81.00815797992746,84.75249994413663,43.21544887148035,46.95979083568952,40
1516.11,88.09019999999998,87.47930967631787,80.77449526010486,84.12424675800867,43.3550629183092,46.70481441621301,40
1568.85,87.22969999999998,86.53881576768033,79.81936433127552,82.98519447172829,43.55362129595204,46.71945143640481,40
1624.51,87.14670000000001,86.32172205758269,79.29578385443055,82.39568063661193,43.92604142097076,47.02593820315214,40
1681.64,87.7336,86.63613891135417,79.75167458577346,82.73253634769404,43.90360256366013,46.88446432558071,40
1741.7,88.3317,87.38856144079035,80.51477439355968,83.40378849675619,43.98477294403416,46.87378704723068,40
1803.22,87.7799,87.34878826608981,80.56853497932782,83.40413281931076,43.94465544677905,46.78025328676199,40
1866.21,88.0221,87.12336907231592,80.04134961375703,82.90912566513155,44.21424340718437,47.08201945855889,40
1932.13,87.5649,86.68428433233242,79.5884693907313,82.64305574690287,44.04122858542955,47.09581494160112,40
1999.51,87.3665,86.37144821425505,79.32507472431158,82.29224666423244,44.07920155002262,47.04637348994348,40
2069.82,87.873,86.86160872307907,79.55954371830498,82.59529104683583,44.26631767624325,47.30206500477409,40
2143.07,88.2349,87.31815864000244,79.60804368839138,82.81290789005021,44.505250749952225,47.71011495161106,40
2219.24,87.59130000000002,86.59884652267988,78.83660715637338,82.03808283204441,44.56076369063547,47.7622393663065,40
2296.88,85.9711,85.09387113086481,77.7962943117842,80.7774467209225,44.316424409942314,47.29757681908062,40
2378.91,84.9756,84.27788522704437,77.4794433043028,80.6112581985318,43.666627028512565,46.79844192274156,40
2462.4,85.8243,85.38200564284088,78.470037006986,81.72090418412276,43.66110145871812,46.911968635854876,40
2548.83,86.3065,86.03119467561619,79.11938751858887,82.4921615507106,43.539033124905586,46.911807157027326,40
2639.65,85.7188,85.59677643591067,79.14571513930679,82.78683527739999,42.80994115851068,46.45106129660388,40
2731.93,84.6992,84.84589645078754,78.90900068750179,82.94008050264611,41.905815948141424,45.93689576328575,40
2828.61,85.5194,85.09132059059064,79.0609110881804,83.20859937873459,41.88272121185605,46.03040950241024,40
2928.22,86.72829999999999,86.36302926177379,79.62435651665834,83.63003725215248,42.73299200962131,46.73867274511545,40
3030.76,86.9237,86.48461243712885,79.37208036894754,83.50829105218735,42.9763213849415,47.11253206818131,40
3137.7,86.6676,86.14496293182486,78.80031903218187,83.24209324419603,42.90286968762884,47.34464389964299,40
3249.02,85.9145,85.33973542216472,78.26472824940922,82.545002875797,42.794732546367726,47.075007172755505,40
3363.28,84.1779,83.99912594838162,77.31319789023865,81.29277808299804,42.70634786538358,46.68592805814296,40
3481.93,82.1369,83.1863745462781,76.49405454876954,80.25278633699034,42.93358820928776,46.69231999750856,40
3604.98,81.8734,83.17201737830163,76.30668292535809,80.18348452089852,42.988532857403115,46.86533445294354,40
3732.42,83.76849999999999,84.00974204235912,76.60684403676748,80.56873532623733,43.44100671612179,47.40289800559164,40
3864.26,84.46940000000001,84.12223904026308,76.32783253769607,80.67959276982435,43.44264627043873,47.794406502567014,40
4000.49,84.0184,83.21144604283248,75.51365035741995,79.91987794330716,43.29156809952532,47.69779568541253,40
4141.11,84.7868,83.81261152246915,75.6059821225233,79.78475019801286,44.027861324456296,48.206629399945854,40
4287.6,85.1451,84.14202046053404,75.61717256233412,79.9371831668454,44.20483729368864,48.52484789819992,40
4438.48,85.5791,84.33353976029554,75.47578404974104,79.81960205414447,44.51393770615107,48.8577557105545,40
4595.21,85.2561,84.07960497084765,75.08173394170711,79.48712335094227,44.592481619905385,48.99787102914054,40
4756.35,85.5661,84.64886816203814,75.44171049643154,79.75829368419217,44.89057447784597,49.2071576656066,40
4924.8,86.9198,85.77076874263705,76.09490486141033,80.5367928719728,45.23397587066424,49.67586388122672,40
5097.66,87.1319,86.13609751064286,76.38809015004006,80.76292421552783,45.37317329511502,49.7480073606028,40
5277.83,87.6634,86.18162034270864,76.44929507221605,81.15402529858562,45.02759504412302,49.732325270492595,40
5463.87,87.9811,86.62334695383969,76.88374038356598,81.61888649427745,45.00446045956224,49.73960657027371,40
5657.23,87.8822,86.2578141042496,76.58834442743402,81.07121121496553,45.186602889284075,49.66946967681558,40
5856.45,87.6481,85.99301383508758,76.27932602100114,80.72901839933814,45.263995435749436,49.71368781408644,40
6062.99,88.6584,86.72731591746047,76.94796992784072,81.43677670996956,45.29053920749091,49.779345989619756,40
6276.86,88.2954,86.53926160754344,77.00330585570539,81.49368617491366,45.045575432629775,49.535955751838046,40
6498.05,88.3227,86.5759078542218,77.0860551001561,81.63502272930063,44.94088512492117,49.489852754065694,40
6726.56,89.2174,87.48042789390148,77.80247485006981,82.27158837918942,45.208839514712054,49.677953043831664,40
6963.87,88.3368,87.14296387290308,77.73858728164512,82.22020341626553,44.92276045663755,49.40437659125796,40
7209.96,88.81909999999999,87.4335738156497,78.07364623026352,82.6274630463382,44.80611076931149,49.359927585386174,40
7464.84,88.6462,87.36446242681158,77.98333832882469,82.70973894885316,44.65472347795843,49.3811240979869,40
7727.05,88.1097,86.7745374005317,77.50433136507283,82.44786212536476,44.326675275166934,49.27020603545887,40
7999.51,88.99459999999999,87.37615311980323,77.55512494657843,82.50932778107553,44.86682533872771,49.8210281732248,40
8282.23,89.2754,87.52368708227198,77.45537935127786,82.50773716790654,45.015949914365436,50.06830773099412,40
8573.73,90.0423,88.10548608157792,78.00211623990188,83.1651041971904,44.94038188438752,50.10336984167604,40
8876.95,90.0084,87.82953234939576,77.79989372041278,82.85845205087794,44.97108029851782,50.02963862898298,40
9188.96,90.3894,88.17869829207046,78.28604028988825,83.14431554582967,45.034382746240794,49.892658002182216,40
9514.16,89.5617,87.5815982299842,78.08173907830582,82.72387876123244,44.85771946875175,49.49985915167838,40
9849.61,89.6524,87.47040487374424,78.07951862657724,82.92493400759828,44.54547086614596,49.390886247167,40
10196.8,89.7805,87.70297829233847,78.2914205973109,83.28578025025202,44.417198042086454,49.41155769502757,40
10555.7,89.8856,87.8654715123565,78.10560673047894,83.23170178663828,44.633769725718224,49.75986478187757,40
10927.7,89.9373,87.90911686139114,77.88123360126413,83.2099649424544,44.699151918936735,50.02788326012701,40
11313.0,89.9862,87.92293123918363,77.80624149605396,83.3270318197787,44.59589941940493,50.11668974312967,40
11712.9,90.7667,88.38652009076228,77.80175619664502,83.7255623394148,44.66095775134748,50.58476389411726,40
12126.0,90.82510000000002,88.12137242962676,77.44527669223832,83.45960759778718,44.66176483183958,50.67609573738844,40
