Freq,On Axis,Listening Window,Sound Power,Early Reflections,Early Reflections DI,Sound Power DI,DI offset
20.5078,50.315630303030275,49.92502004125515,56.05373746433287,53.88018262503502,36.04483741622013,33.87128257692228,40
21.9727,49.41673030303028,49.10921928902934,57.03173141117867,54.60806596234343,34.50115332668591,32.07748787785067,40
23.4375,53.03123030303027,52.76410486377242,58.094829947713464,56.11584059985347,36.648264263918946,34.66927491605895,40
24.9023,56.35313030303027,56.15476698551214,59.880803222476914,58.31381446238157,37.84095252313057,36.273963763035226,40
26.3672,58.05823030303026,57.897745098707844,60.942294412827664,59.59457707455579,38.30316802415206,36.95545068588018,40
27.832,60.38943030303028,60.23640056047188,62.59807635741515,61.477468213305514,38.758932347166365,37.638324203056726,40
29.2969,61.85713030303026,61.72342673030329,64.00598101613167,62.91680155704984,38.80662517325345,37.71744571417162,40
30.7617,63.48253030303027,63.38450625772059,65.61461494087602,64.55265183623608,38.83185442148451,37.769891316844564,40
32.2266,65.22403030303028,65.14622356728215,67.05266833386368,66.1222596125808,39.023963954701344,38.09355523341847,40
33.6914,66.37363030303027,66.31952348978054,68.30049334882976,67.34477327769473,38.97475021208581,38.019030140950775,40
35.1562,68.00363030303026,67.95926923485132,69.64837908092338,68.81127168211958,39.14799755273174,38.31089015392794,40
36.6211,69.36413030303027,69.33304686096324,70.90342194617182,70.12116737707612,39.21187948388712,38.42962491479142,40
38.0859,70.68463030303027,70.66210621281162,72.12080679119134,71.38662403940208,39.27548217340954,38.54129942162028,40
39.5508,71.82473030303026,71.81023669158523,73.20766868712235,72.5013146628018,39.30892202878343,38.60256800446288,40
41.0156,73.04683030303028,73.04125120030886,74.34080653935025,73.6807456870211,39.36050551328776,38.70044466095861,40
42.4805,73.63513030303028,73.6250033593002,74.67798136685482,74.12370347599584,39.501299883304355,38.94702199244537,40
43.9453,74.60433030303027,74.60107919741893,75.67406661066238,75.11294051873477,39.48813867868415,38.92701258675655,40
45.4102,75.47853030303025,75.48089604140947,76.51254192763587,75.97116015527439,39.509735886135076,38.9683541137736,40
46.875,76.33853030303027,76.34240557756105,77.31693211264042,76.79878656100522,39.54361901655584,39.02547346492064,40
48.3398,76.89533030303028,76.90718767774209,77.94686071390532,77.40071406662203,39.50647361112006,38.96032696383676,40
51.2695,78.13153030303027,78.14679837300037,79.01102920069272,78.54794661512692,39.59885175787345,39.13576917230765,40
52.7344,78.62233030303025,78.63841238419829,79.44881242489683,79.01116558530308,39.627246798895214,39.18959995930146,40
54.1992,79.09923030303027,79.11841019998985,79.92087763976741,79.48776948034401,39.63064071964584,39.19753256022244,40
55.6641,79.58963030303028,79.60966654945483,80.37925047380865,79.96204542686846,39.64762112258637,39.230416075646175,40
58.5938,80.29883030303029,80.32199613904476,81.04270043056195,80.64907528286516,39.6729208561796,39.279295708482806,40
60.0586,80.63783030303027,80.66040226197337,81.32084420149685,80.95535725304177,39.705045008931606,39.33955806047652,40
62.9883,81.23623030303027,81.26065915231781,81.87507640195001,81.53178442727938,39.72887472503844,39.3855827503678,40
64.4531,81.54043030303026,81.56510557033977,82.14763589275265,81.81935439389831,39.74575117644146,39.41746967758712,40
67.3828,81.99813030303027,82.02343350022022,82.5630136121787,82.25382087338926,39.76961262683096,39.46041988804153,40
68.8477,82.14993030303027,82.1764297192262,82.71071453884767,82.40380212204357,39.772627597182634,39.46571518037854,40
71.7773,82.66653030303027,82.69281234713924,83.18170944286832,82.89711897774441,39.795693369394826,39.51110290427091,40
74.707,83.21853030303026,83.24363165996188,83.64998698444187,83.4063298418009,39.83730181816098,39.59364467552001,40
77.6367,83.55913030303027,83.58484489571057,83.97180478911933,83.73730039738781,39.84754449832276,39.61304010659124,40
79.1016,83.70223030303026,83.7284504383351,84.11063314563913,83.87841298221616,39.85003745611894,39.617817292695975,40
82.0312,83.99613030303027,84.02006576693759,84.32775571589235,84.13218129404103,39.88788447289656,39.69231005104524,40
84.9609,84.31303030303027,84.33626343210165,84.61655837790909,84.43315359454726,39.90310983755438,39.71970505419256,40
87.8906,84.50303030303027,84.52769224059392,84.82656441791177,84.63098581564182,39.8967064249521,39.70112782268215,40
90.8203,84.79653030303027,84.81227283355099,84.92600394712798,84.82190494538813,39.990367888162865,39.88626888642301,40
95.2148,84.99233030303026,85.02062946898035,85.37149994729447,85.14871693170335,39.871912537277,39.64912952168588,40
98.1445,85.28303030303027,85.30188605939598,85.49880223801603,85.35282785692586,39.94905820247013,39.80308382137996,40
101.074,84.98343030303027,85.01852063231354,85.46994540025742,85.19942877096605,39.81909186134749,39.54857523205612,40
105.469,85.49623030303027,85.51687550599414,85.67304151397094,85.5487026269331,39.96817287906103,39.84383399202319,40
108.398,85.90253030303026,85.90945130919303,85.88240889020345,85.84963187496678,40.059819434226256,40.02704241898958,40
112.793,86.35613030303027,86.34898693723503,86.09003350798871,86.17380779103348,40.17517914620154,40.25895342924632,40
117.188,86.42763030303027,86.41823374724342,86.08623759155017,86.20025399407685,40.217979753166574,40.33199615569325,40
120.117,86.62723030303027,86.62083830657132,86.21469490925044,86.37234551273629,40.24849279383503,40.406143397320875,40
124.512,86.53523030303027,86.5468300235903,86.42066648580891,86.43660496838177,40.11022505520853,40.126163537781395,40
128.906,86.13423030303028,86.15425272877846,86.33485187253716,86.18584094288131,39.968411785897146,39.8194008562413,40
133.301,86.31053030303026,86.32134075372201,86.36835756614812,86.28599141096635,40.035349342755666,39.95298318757389,40
139.16,86.32913030303027,86.3359295602227,86.29450639476514,86.2581571477551,40.077772412467596,40.04142316545756,40
143.555,86.14153030303027,86.14605586860709,86.22088166419152,86.11861584972691,40.027440018880185,39.92517420441557,40
147.949,86.22433030303027,86.21633059977333,86.05336567405408,86.07058396985016,40.14574662992317,40.16296492571925,40
153.809,86.28433030303027,86.26955127066081,85.93068931822349,86.03671642519883,40.23283484546198,40.33886195243733,40
159.668,86.28643030303027,86.27015364227317,85.92219496108865,86.0279702869881,40.24218335528508,40.34795868118452,40
165.527,86.29913030303027,86.29143105611871,86.07516589409386,86.12116825943681,40.1702627966819,40.216265162024854,40
171.387,86.14553030303027,86.1260586577229,85.89078949012274,85.94200805716874,40.18405060055416,40.23526916760015,40
177.246,86.26013030303027,86.22694151884954,85.67762783393079,85.88838750528669,40.338554013562856,40.54931368491876,40
183.105,85.81853030303027,85.78946628169469,85.33793482870088,85.48178417712556,40.307682104569125,40.451531452993805,40
188.965,85.50733030303027,85.48075041133123,85.09796193051972,85.21700514997116,40.26374526136007,40.38278848081151,40
196.289,85.78223030303027,85.74270196138886,85.07506801679426,85.34974980784943,40.392952153539426,40.6676339445946,40
203.613,85.56303030303027,85.50722223115463,84.8511057685972,85.08908719970732,40.41813503144731,40.656116462557435,40
210.938,85.54863030303028,85.50504926727024,84.63587968850369,85.00489256676126,40.50015670050898,40.869169578766545,40
218.262,85.07613030303027,85.03151639144579,84.52162723540116,84.68366912666973,40.347847264776064,40.509889156044636,40
225.586,84.87033030303027,84.82627892844224,84.39752006747071,84.53725708863186,40.289021839810374,40.42875886097153,40
232.91,85.05183030303027,84.9925382246149,84.09592272358253,84.48376938418866,40.50876884042624,40.89661550103237,40
241.699,84.23413030303027,84.2121077109892,83.6749887375833,83.8728148180126,40.3392928929766,40.537118973405896,40
250.488,81.63883030303029,81.65047965279966,83.14988943791285,82.31277009364356,39.337709559156096,38.50059021488681,40
259.277,84.44533030303027,84.19802334682265,83.929604379243,83.74872538170538,40.44929796511727,40.26841896757965,40
268.066,86.15113030303027,85.95419443886904,83.98996095736997,84.8550967319283,41.09909770694074,41.964233481499065,40
276.855,85.71873030303027,85.57612852086126,83.58999164788015,84.51247061683993,41.063657904021326,41.986136872981106,40
287.109,85.56103030303026,85.39565802805868,83.43820216838002,84.34583965188358,41.0498183761751,41.95745585967866,40
297.363,85.27873030303027,85.14421841273477,83.26475240899009,84.13137915014387,41.0128392625909,41.87946600374468,40
307.617,85.49883030303027,85.36846683425208,83.22414960220215,84.2530792633288,41.115387570923275,42.14431723204993,40
319.336,85.12363030303027,84.97286967599614,82.8809153570283,83.84847235016929,41.12439732582685,42.09195431896784,40
329.59,85.28533030303026,85.14560927470862,82.67698195854646,83.8713973523181,41.27421192239052,42.468627316162156,40
341.309,84.89953030303028,84.74353217845,82.4979360100175,83.5827767230215,41.1607554554285,42.2455961684325,40
353.027,84.78173030303029,84.6234729532027,82.07132542086069,83.33942487217669,41.284048081026,42.552147532342005,40
366.211,84.45943030303027,84.32632655149555,81.84878553097896,83.06424483483575,41.26208171665981,42.4775410205166,40
379.395,85.04543030303029,84.90560692344255,82.09904150168303,83.50668697221684,41.39891995122571,42.806565421759515,40
392.578,85.00263030303026,84.89024395490863,82.23551744789124,83.58863752485993,41.30160643004869,42.654726507017386,40
405.762,85.85313030303027,85.74395519985569,83.08370032853423,84.46843520891332,41.27551999094237,42.660254871321456,40
420.41,86.47063030303025,86.2960231179158,83.02092147569773,84.73554684031474,41.560476277601055,43.27510164221806,40
435.059,85.50493030303025,85.35203697664772,82.36130290918683,83.90791243613933,41.4441245405084,42.99073406746089,40
451.172,85.95653030303026,85.83887306327603,82.55179494722574,84.29960422991553,41.539268833360495,43.28707811605028,40
465.82,86.13683030303027,85.9425441434068,82.44492021851114,84.29464711282225,41.64789703058456,43.49762392489566,40
483.398,86.21953030303027,86.07409751206993,82.64430391293183,84.4365957068664,41.63750180520353,43.429793599138094,40
499.512,85.54313030303027,85.41741857837951,82.29158525310116,83.95802042066272,41.45939815771679,43.12583332527835,40
517.09,86.30853030303027,86.16567133898235,82.64005418744577,84.52292699084583,41.64274434813652,43.52561715153658,40
536.133,85.28683030303027,85.08069092930933,81.81745890826588,83.47808725434508,41.60260367496424,43.26323202104345,40
555.176,86.37153030303028,86.20410856659183,82.23082955152044,84.2951433822658,41.90896518432602,43.973279015071384,40
574.219,86.46673030303027,86.32369641322965,82.68424624473698,84.54802948966207,41.775666923567584,43.63945016849267,40
594.727,86.44243030303025,86.27813904018701,82.70177487898945,84.52562275290445,41.75251628728256,43.57636416119756,40
615.234,86.59343030303027,86.45023933996576,82.74599927829252,84.72968463605238,41.72055470391338,43.70424006167325,40
637.207,86.71343030303026,86.52304157785031,82.99844426736908,84.90739505551359,41.61564652233672,43.52459731048123,40
659.18,86.49653030303027,86.15501516846084,82.47116970236593,84.32802051350761,41.826994654953225,43.68384546609491,40
682.617,86.59963030303027,86.23997898555493,82.27030605164455,84.28692353253041,41.95305545302452,43.969672933910374,40
707.52,86.80103030303027,86.47517475174574,82.42490008952223,84.46518578331386,42.009988968431884,44.050274662223515,40
732.422,86.44083030303027,86.1752166564155,82.11897319769355,84.1980499898153,41.9771666666002,44.05624345872195,40
757.324,86.40293030303027,86.04536448898753,82.07127404021523,84.18984243331425,41.855522055673276,43.9740904487723,40
785.156,87.52973030303028,87.08980502520859,82.79344123632995,85.02275342225506,42.067051602953526,44.29636378887864,40
811.523,86.40093030303026,85.90687617623212,81.43813552056334,84.10227217140478,41.80460400482734,44.46874065566878,40
840.82,86.14053030303029,85.93530047402118,81.99876756392767,84.29479796520974,41.64050250881144,43.936532910093504,40
870.117,88.00993030303027,87.38270167873792,82.61909574729408,84.71933399255161,42.663367686186305,44.763605931443834,40
900.879,85.90163030303026,85.88814348566059,81.92380633730157,83.90486405453248,41.98327943112811,43.96433714835902,40
933.105,86.37343030303028,86.42969061204474,82.29267093723288,84.09929812562575,42.33039248641899,44.13701967481185,40
965.332,87.76003030303025,87.3023236921566,82.78768969400957,84.83667000294922,42.465653689207386,44.51463399814703,40
1000.49,86.31143030303026,85.86812374118067,81.52806064002252,84.27498286411155,41.59314087706912,44.34006310115815,40
1035.64,86.16763030303026,85.61171300284774,82.01830421701182,84.00280821065189,41.608904792195844,43.59340878583592,40
1072.27,86.49533030303027,86.10427216590168,81.74062193603143,84.65232751763735,41.45194464826433,44.363650229870245,40
1108.89,86.14313030303028,86.02474967347695,82.05626547775165,84.90737073976635,41.1173789337106,43.968484195725296,40
1148.44,84.53373030303027,84.74367819193225,81.22544482703027,84.33672041518813,40.40695777674412,43.518233364901974,40
1189.45,85.48873030303027,85.39998679214438,81.10009159175034,83.94419349385788,41.455793298286494,44.29989520039403,40
1230.47,85.16913030303027,84.80482998903902,80.67360499986141,83.74199185662829,41.06283813241073,44.13122498917761,40
1274.41,86.19693030303029,85.59346902327138,80.38932368866956,83.67396409992381,41.919504923347574,45.20414533460182,40
1319.82,87.02233030303027,86.23948130401196,80.31380299290441,83.83773426641865,42.40174703759331,45.925678311107546,40
1366.7,87.60593030303026,86.98820204345209,80.5852976286305,84.40535318021999,42.5828488632321,46.40290441482159,40
1413.57,88.13923030303027,87.42003534608166,80.50388837676847,84.58031666512872,42.83971868095294,46.91614696931319,40
1463.38,88.17123030303027,87.55907911864723,80.59928828295774,84.34363024716691,43.21544887148032,46.95979083568949,40
1516.11,87.68133030303026,87.07043997934815,80.36562556313513,83.71537706103892,43.35506291830923,46.704814416213026,40
1568.85,86.82083030303026,86.12994607071062,79.41049463430579,82.57632477475858,43.55362129595204,46.719451436404825,40
1624.51,86.73783030303026,85.91285236061294,78.88691415746084,81.98681093964218,43.92604142097076,47.02593820315211,40
1681.64,87.32473030303026,86.22726921438442,79.34280488880374,82.3236666507243,43.903602563660115,46.88446432558068,40
1741.7,87.92283030303028,86.97969174382064,80.10590469658996,82.99491879978646,43.98477294403418,46.87378704723068,40
1803.22,87.37103030303027,86.93991856912007,80.15966528235808,82.99526312234102,43.94465544677905,46.78025328676199,40
1866.21,87.61323030303026,86.71449937534621,79.6324799167873,82.50025596816184,44.21424340718437,47.082019458558904,40
1932.13,87.15603030303026,86.27541463536268,79.17959969376159,82.23418604993316,44.04122858542952,47.09581494160109,40
1999.51,86.95763030303027,85.96257851728532,78.91620502734183,81.8833769672627,44.07920155002262,47.04637348994349,40
2069.82,87.46413030303026,86.45273902610936,79.15067402133523,82.18642134986608,44.266317676243276,47.30206500477412,40
2143.07,87.82603030303027,86.90928894303269,79.19917399142165,82.40403819308048,44.50525074995221,47.71011495161105,40
2219.24,87.18243030303027,86.18997682571013,78.42773745940363,81.62921313507466,44.56076369063547,47.7622393663065,40
2296.88,85.56223030303028,84.6850014338951,77.38742461481445,80.36857702395275,44.31642440994234,47.297576819080646,40
2378.91,84.56673030303027,83.86901553007462,77.07057360733307,80.20238850156207,43.66662702851255,46.798441922741546,40
2462.4,85.41543030303026,84.97313594587115,78.06116731001629,81.31203448715304,43.66110145871811,46.91196863585486,40
2548.83,85.89763030303027,85.62232497864646,78.71051782161912,82.08329185374087,43.539033124905586,46.91180715702734,40
2639.65,85.30993030303027,85.18790673894094,78.73684544233706,82.37796558043027,42.80994115851067,46.45106129660388,40
2731.93,84.29033030303026,84.43702675381779,78.50013099053207,82.53121080567638,41.90581594814141,45.93689576328572,40
2828.61,85.11053030303026,84.68245089362091,78.65204139121069,82.79972968176486,41.88272121185605,46.03040950241022,40
2928.22,86.31943030303027,85.95415956480406,79.21548681968862,83.22116755518275,42.73299200962131,46.73867274511544,40
3030.76,86.51483030303027,86.07574274015911,78.9632106719778,83.0994213552176,42.976321384941514,47.11253206818131,40
3137.7,86.25873030303026,85.73609323485512,78.39144933521214,82.83322354722628,42.90286968762884,47.344643899642975,40
3249.02,85.50563030303027,84.93086572519499,77.85585855243949,82.13613317882725,42.79473254636774,47.075007172755505,40
3363.28,83.76903030303026,83.59025625141189,76.90432819326894,80.88390838602831,42.70634786538358,46.68592805814295,40
3481.93,81.72803030303027,82.77750484930837,76.0851848517998,79.84391664002061,42.93358820928776,46.69231999750858,40
3604.98,81.46453030303027,82.76314768133189,75.89781322838836,79.7746148239288,42.98853285740309,46.86533445294353,40
3732.42,83.35963030303027,83.60087234538938,76.19797433979777,80.15986562926761,43.44100671612176,47.40289800559161,40
3864.26,84.06053030303026,83.71336934329334,75.91896284072635,80.27072307285462,43.442646270438715,47.794406502566986,40
4000.49,83.60953030303027,82.80257634586275,75.10478066045023,79.51100824633741,43.291568099525335,47.697795685412515,40
4141.11,84.37793030303027,83.40374182549944,75.19711242555357,79.37588050104313,44.02786132445631,48.20662939994587,40
4287.6,84.73623030303025,83.73315076356431,75.20830286536437,79.52831346987568,44.20483729368863,48.52484789819994,40
4438.48,85.17023030303027,83.92467006332579,75.0669143527713,79.41073235717474,44.513937706151054,48.857755710554486,40
4595.21,84.84723030303027,83.67073527387794,74.6728642447374,79.07825365397255,44.592481619905385,48.99787102914054,40
4756.35,85.15723030303027,84.2399984650684,75.03284079946182,79.34942398722245,44.890574477845945,49.20715766560657,40
4924.8,86.51093030303025,85.36189904566731,75.68603516444061,80.12792317500306,45.23397587066425,49.675863881226704,40
5097.66,86.72303030303027,85.72722781367311,75.97922045307034,80.35405451855812,45.373173295114995,49.74800736060277,40
5277.83,87.25453030303026,85.77275064573891,76.04042537524631,80.74515560161589,45.02759504412302,49.732325270492595,40
5463.87,87.57223030303027,86.21447725686996,76.47487068659623,81.21001679730773,45.004460459562225,49.73960657027372,40
5657.23,87.47333030303028,85.84894440727987,76.17947473046428,80.66234151799581,45.18660288928406,49.669469676815595,40
5856.45,87.23923030303027,85.58414413811784,75.87045632403141,80.32014870236841,45.26399543574942,49.71368781408643,40
6062.99,88.24953030303027,86.31844622049073,76.53910023087099,81.02790701299985,45.29053920749088,49.77934598961974,40
6276.86,87.88653030303027,86.1303919105737,76.59443615873568,81.08481647794392,45.04557543262979,49.53595575183803,40
6498.05,87.91383030303027,86.16703815725207,76.67718540318639,81.22615303233088,44.94088512492118,49.48985275406568,40
6726.56,88.80853030303027,87.07155819693175,77.39360515310008,81.8627186822197,45.208839514712054,49.677953043831664,40
6963.87,87.92793030303025,86.73409417593334,77.3297175846754,81.81133371929582,44.92276045663752,49.40437659125794,40
7209.96,88.41023030303027,87.02470411867996,77.66477653329379,82.21859334936849,44.80611076931147,49.359927585386174,40
7464.84,88.23733030303026,86.95559272984184,77.57446863185497,82.30086925188343,44.65472347795841,49.38112409798687,40
7727.05,87.70083030303027,86.36566770356195,77.09546166810311,82.03899242839503,44.32667527516692,49.27020603545884,40
7999.51,88.58573030303027,86.96728342283349,77.14625524960871,82.10045808410581,44.86682533872768,49.821028173224775,40
