Freq "Early Reflections"
20.5078 54.28905232200472
21.9727 55.01693565931316
23.4375 56.5247102968232
24.9023 58.7226841593513
26.3672 60.00344677152549
27.832 61.886337910275245
29.2969 63.32567125401957
30.7617 64.96152153320583
32.2266 66.53112930955055
33.6914 67.75364297466444
35.1562 69.22014137908931
36.6211 70.53003707404585
38.0859 71.79549373637181
39.5508 72.91018435977155
41.0156 74.08961538399082
42.4805 74.53257317296556
43.9453 75.5218102157045
45.4102 76.38002985224412
46.875 77.20765625797495
48.3398 77.80958376359177
51.2695 78.95681631209666
52.7344 79.42003528227279
54.1992 79.89663917731376
55.6641 80.37091512383817
58.5938 81.05794497983489
60.0586 81.3642269500115
62.9883 81.94065412424911
64.4531 82.22822409086805
67.3828 82.66269057035898
68.8477 82.81267181901332
71.7773 83.30598867471413
74.707 83.81519953877063
77.6367 84.14617009435756
79.1016 84.2872826791859
82.0312 84.54105099101075
84.9609 84.84202329151698
87.8906 85.03985551261157
90.8203 85.23077464235786
95.2148 85.55758662867309
98.1445 85.7616975538956
101.074 85.6082984679358
105.469 85.95757232390284
108.398 86.25850157193652
112.793 86.58267748800321
117.188 86.60912369104656
120.117 86.78121520970603
124.512 86.84547466535149
128.906 86.59471063985103
133.301 86.69486110793608
139.16 86.66702684472482
143.555 86.52748554669664
147.949 86.47945366681988
153.809 86.44558612216858
159.668 86.43683998395784
165.527 86.53003795640656
171.387 86.35087775413845
177.246 86.2972572022564
183.105 85.8906538740953
188.965 85.6258748469409
196.289 85.75861950481915
203.613 85.49795689667707
210.938 85.413762263731
218.262 85.09253882363947
225.586 84.94612678560159
232.91 84.89263908115839
241.699 84.28168451498235
250.488 82.72163979061331
259.277 84.15759507867512
268.066 85.26396642889804
276.855 84.92134031380965
287.109 84.7547093488533
297.363 84.54024884711362
307.617 84.66194896029852
319.336 84.25734204713903
329.59 84.28026704928783
341.309 83.99164641999124
353.027 83.74829456914642
366.211 83.47311453180549
379.395 83.91555666918656
392.578 83.99750722182966
405.762 84.87730490588305
420.41 85.14441653728447
435.059 84.31678213310907
451.172 84.70847392688525
465.82 84.70351680979196
483.398 84.84546540383613
499.512 84.36689011763248
517.09 84.93179668781555
536.133 83.88695695131482
555.176 84.70401307923552
574.219 84.95689918663179
594.727 84.9344924498742
615.234 85.13855433302211
637.207 85.3162647524833
659.18 84.73689021047736
682.617 84.69579322950014
707.52 84.87405548028357
732.422 84.60691968678503
757.324 84.59871213028399
785.156 85.4316231192248
811.523 84.5111418683745
840.82 84.70366766217948
870.117 85.12820368952134
900.879 84.3137337515022
933.105 84.5081678225955
965.332 85.24553969991896
1000.49 84.68385256108128
1035.64 84.41167790762162
1072.27 85.06119721460706
1108.89 85.31624043673605
1148.44 84.74559011215787
1189.45 84.35306319082761
1230.47 84.150861553598
1274.41 84.08283379689355
1319.82 84.2466039633884
1366.7 84.81422287718974
1413.57 84.98918636209845
1463.38 84.75249994413663
1516.11 84.12424675800867
1568.85 82.98519447172829
1624.51 82.39568063661193
1681.64 82.73253634769404
1741.7 83.40378849675619
1803.22 83.40413281931076
1866.21 82.90912566513155
1932.13 82.64305574690287
1999.51 82.29224666423244
2069.82 82.59529104683583
2143.07 82.81290789005021
2219.24 82.03808283204441
2296.88 80.7774467209225
2378.91 80.6112581985318
2462.4 81.72090418412276
2548.83 82.4921615507106
2639.65 82.78683527739999
2731.93 82.94008050264611
2828.61 83.20859937873459
2928.22 83.63003725215248
3030.76 83.50829105218735
3137.7 83.24209324419603
3249.02 82.545002875797
3363.28 81.29277808299804
3481.93 80.25278633699034
3604.98 80.18348452089852
3732.42 80.56873532623733
3864.26 80.67959276982435
4000.49 79.91987794330716
4141.11 79.78475019801286
4287.6 79.9371831668454
4438.48 79.81960205414447
4595.21 79.48712335094227
4756.35 79.75829368419217
4924.8 80.5367928719728
5097.66 80.76292421552783
5277.83 81.15402529858562
5463.87 81.61888649427745
5657.23 81.07121121496553
5856.45 80.72901839933814
6062.99 81.43677670996956
6276.86 81.49368617491366
6498.05 81.63502272930063
6726.56 82.27158837918942
6963.87 82.22020341626553
7209.96 82.6274630463382
7464.84 82.70973894885316
7727.05 82.44786212536476
7999.51 82.50932778107553
8282.23 82.50773716790654
8573.73 83.1651041971904
8876.95 82.85845205087794
9188.96 83.14431554582967
9514.16 82.72387876123244
9849.61 82.92493400759828
10196.8 83.28578025025202
10555.7 83.23170178663828
10927.7 83.2099649424544
11313.0 83.3270318197787
11712.9 83.7255623394148
12126.0 83.45960759778718
12553.7 83.48075526531389
12996.1 82.86208130669962
13454.6 83.85715530103684
13929.2 85.20668561129247
14419.9 84.92425966704198
14928.2 84.16385224253715
15455.6 84.1122349875298
16000.5 83.97863680102469
16564.5 84.01618369100184
17148.9 84.5352591021695
17752.4 85.54147380693014
18379.4 83.77136176231166
19026.9 77.84146727324847
19697.8 79.69783707052298
19999.5 80.11544394156192
