Freq,On Axis,Listening Window,Sound Power,Early Reflections,Early Reflections DI,Sound Power DI,DI offset
22.4,8.49620253164558,8.498254974585919,8.054956264040086,8.293716886698931,30.204538087886988,30.443298710545832,30
23.0,9.49620253164558,9.49825497458589,9.054956264040115,9.29371688669896,30.20453808788693,30.443298710545776,30
23.6,10.396202531645557,10.375721241041376,9.942388790255379,10.17502697938751,30.200694261653865,30.433332450785997,30
24.0,11.096202531645574,11.12093879188906,10.680192853603486,10.91370579112727,30.20723300076179,30.440745938285573,30
25.0,11.896202531645557,11.853586901110972,11.416788950291803,11.656027621359883,30.19755927975109,30.43679795081917,30
25.8,13.596202531645574,13.598254974585885,13.15292446212159,13.386139041369816,30.21211593321607,30.445330512464295,30
26.5,15.396202531645557,15.36492295030537,14.9225280596293,15.163312966070592,30.20160998423478,30.44239489067607,30
27.2,16.796202531645562,16.798254974585902,16.35130064835353,16.586139041369833,30.21211593321607,30.446954326232373,30
28.0,17.99620253164558,18.010003254728375,17.57922046873601,17.810683501325244,30.19931975340313,30.430782785992363,30
29.0,19.096202531645574,19.13184686250817,18.69024170142147,18.93178649236127,30.2000603701469,30.4416051610867,30
30.0,20.096202531645602,20.12093879188909,19.677963523985497,19.91297200017614,30.20796679171295,30.44297526790359,30
30.7,21.596202531645574,21.575721241041393,21.142430800306514,21.37571780590902,30.200003435132373,30.43329044073488,30
31.5,23.396202531645557,23.387262097596206,22.943421514190348,23.178138004697686,30.20912409289852,30.44384058340586,30
32.5,24.796202531645562,24.798254974585902,24.360617890817096,24.59464475889,30.203610215695903,30.437637083768806,30
33.5,25.99620253164558,25.99825497458589,25.560617890817085,25.794644758890016,30.203610215695875,30.437637083768806,30
34.5,27.096202531645574,27.05358690111096,26.61678895029182,26.8560276213599,30.19755927975106,30.43679795081914,30
35.5,28.096202531645574,28.12093879188909,27.677963523985497,27.91297200017617,30.20796679171292,30.44297526790359,30
36.5,29.49620253164558,29.49825497458589,29.051300648353546,29.28613904136982,30.21211593321607,30.446954326232344,30
37.5,30.596202531645574,30.598254974585913,30.160617890817107,30.39464475889001,30.203610215695903,30.437637083768806,30
38.7,31.49620253164558,31.542480231252583,31.102322889293887,31.34183657028943,30.200643660963152,30.440157341958695,30
40.0,32.29620253164556,32.33184686250816,31.89024170142146,32.13178649236126,30.2000603701469,30.4416051610867,30
41.2,33.49620253164558,33.464922950305365,33.02921087215283,33.26881883606559,30.196104114239773,30.435712078152534,30
42.5,34.79620253164556,34.77572124104135,34.32901794363586,34.56809091855921,30.207630322482146,30.44670329740549,30
43.7,35.79620253164556,35.78726209759624,35.34537193357038,35.579825975814785,30.207436121781456,30.441890164025864,30
45.0,36.69620253164557,36.653586901110955,36.217459702831505,36.45677109625025,30.196815804860705,30.43612719827945,30
46.2,37.596202531645574,37.6100032547284,37.179220468736034,37.41068350132521,30.199319753403188,30.430782785992363,30
47.5,38.79620253164556,38.7982549745859,38.35130064835356,38.58613904136983,30.21211593321607,30.446954326232344,30
48.7,39.79620253164556,39.78726209759621,39.343421514190325,39.57813800469769,30.20912409289852,30.443840583405887,30
50.0,40.69620253164557,40.69825497458588,40.25130064835356,40.48613904136981,30.21211593321607,30.446954326232316,30
51.5,41.89620253164556,41.853586901110944,41.40611328290542,41.65021029345134,30.203376607659607,30.44747361820552,30
53.0,42.99620253164558,43.020938791889066,42.581199996602194,42.81154607214579,30.209392719743278,30.43973879528687,30
54.5,44.096202531645574,44.08726209759625,43.63764192212237,43.87759862508766,30.209663472508595,30.449620175473882,30
56.0,45.49620253164558,45.48726209759623,45.03713186406911,45.27759862508766,30.209663472508566,30.45013023352712,30
58.0,47.19620253164557,47.21000325472839,46.77131035523375,47.0033594553601,30.206643799368294,30.43869289949464,30
60.0,48.69620253164557,48.69825497458591,48.254956264040075,48.49371688669895,30.20453808788696,30.443298710545832,30
61.5,50.096202531645574,50.09825497458591,49.65970902459652,49.89560572033987,30.20264925424604,30.43854594998939,30
63.0,51.49620253164558,51.48726209759623,51.03713186406911,51.27759862508766,30.209663472508566,30.45013023352712,30
65.0,52.69620253164557,52.69825497458591,52.25970902459652,52.495605720339896,30.202649254246012,30.43854594998939,30
67.0,54.096202531645574,54.14248023125258,53.70232288929388,53.941836570289425,30.200643660963152,30.440157341958695,30
69.0,55.596202531645574,55.575721241041364,55.14238879025538,55.3750269793875,30.200694261653865,30.433332450785983,30
71.0,56.89620253164557,56.93184686250818,56.49024170142148,56.73178649236128,30.2000603701469,30.4416051610867,30
73.0,58.49620253164558,58.48726209759623,58.03596143911986,58.27759862508765,30.20966347250858,30.45130065847637,30
75.0,59.89620253164557,59.88726209759622,59.435961439119865,59.677598625087654,30.209663472508566,30.451300658476356,30
77.5,61.19620253164557,61.17572124104136,60.742388790255376,60.97502697938749,30.200694261653865,30.433332450785983,30
80.0,62.39620253164557,62.37572124104135,61.94238879025538,62.17502697938751,30.200694261653837,30.43333245078597,30
82.5,63.69620253164557,63.69825497458589,63.26953910152936,63.503133291324204,30.19512168326169,30.428715873056532,30
85.0,65.19620253164557,65.21000325472839,64.77561736595673,65.00994919950227,30.20005405522612,30.434385888771658,30
87.5,66.49620253164555,66.53184686250817,66.09196498174511,66.33272768935645,30.19911917315173,30.439881880763068,30
90.0,67.69620253164557,67.72093879188908,67.27830493134977,67.51368908938487,30.207249702504214,30.442633860539317,30
92.5,68.69620253164557,68.7092200966059,68.27341116219338,68.50611160339112,30.203108493214785,30.43580893441252,30
95.0,69.49620253164557,69.49825497458589,69.055897381243,69.29371688669893,30.20453808788696,30.44235759334289,30
97.5,70.39620253164556,70.3982549745859,69.9489118776561,70.18613904136981,30.212115933216083,30.449343096929795,30
100.0,71.39620253164559,71.39825497458591,70.92742726578633,71.1755268581052,30.22272811648071,30.470827708799575,30
103.0,72.19620253164557,72.18674333204832,71.69196858909497,71.94569095995186,30.241052372096462,30.494774742953354,30
106.0,72.89620253164556,72.92015760345559,72.38014096068035,72.64547267893171,30.274684924523882,30.540016642775242,30
109.0,73.89620253164559,73.80920834829968,73.20922491130297,73.49980127961064,30.30940706868904,30.59998343699671,30
112.0,74.59620253164557,74.54295713841493,73.88760323088594,74.20495287973891,30.338004258676023,30.65535390752899,30
115.0,75.09620253164557,75.05406259025338,74.36111702173072,74.69091976230679,30.36314282794659,30.69294556852266,30
118.0,75.59620253164557,75.52114631514665,74.75186886180717,75.12154733865181,30.399598976494843,30.769277453339484,30
122.0,75.99620253164557,75.90969526984652,75.09843493715653,75.47694997142011,30.43274529842641,30.811260332689997,30
125.0,76.29620253164558,76.22088599306701,75.41322350536655,75.80986711476909,30.411018878297924,30.80766248770047,30
128.0,76.49620253164555,76.44269812046747,75.60847026575827,76.01340185272694,30.429296267740526,30.834227854709198,30
132.0,76.79620253164556,76.66539739948044,75.80430107713136,76.22678924367715,30.438608155803294,30.861096322349084,30
136.0,76.99620253164557,76.84369926468302,75.97344980841578,76.40780174581035,30.43589751887268,30.870249456267246,30
140.0,77.09620253164557,76.96539739948045,76.09177866623573,76.52966041510754,30.43573698437291,30.873618733244726,30
145.0,77.29620253164558,77.07696568649405,76.20294270983155,76.65257130066603,30.424394385828023,30.874022976662502,30
150.0,77.29620253164558,77.16539739948044,76.24842790387102,76.69226985750473,30.473127541975714,30.916969495609422,30
155.0,77.39620253164557,77.1882409547642,76.29280372909442,76.74288694231832,30.445354012445875,30.89543722566978,30
160.0,77.49620253164558,77.23383633759435,76.28692335284403,76.74602803830734,30.48780829928701,30.946912984750327,30
165.0,77.49620253164558,77.24522398985938,76.26355271463864,76.74031690676004,30.50490708309934,30.981671275220748,30
170.0,77.49620253164558,77.21123197791579,76.20940726610043,76.69359233596587,30.517639641949913,31.00182471181536,30
175.0,77.49620253164558,77.17874777849514,76.13071313876719,76.62659030850543,30.55215746998971,31.048034639727945,30
180.0,77.39620253164557,77.14548285720954,76.05031401747037,76.55566926147674,30.589813595732807,31.095168839739173,30
185.0,77.39620253164557,77.12443635461506,75.98482427670967,76.50595206862472,30.618484285990334,31.139612077905383,30
190.0,77.39620253164557,77.1027705061717,75.8902266309115,76.4331263772919,30.669644128879796,31.212543875260195,30
195.0,77.29620253164558,77.02594497697729,75.79731189100276,76.34538376234248,30.680561214634807,31.228633085974522,30
200.0,77.29620253164558,77.0027705061717,75.70650781844428,76.28127847668331,30.721492029488388,31.29626268772742,30
206.0,77.19620253164557,76.91423980045721,75.58172474069515,76.17085346581142,30.74338633464579,31.33251505976206,30
212.0,77.09620253164557,76.8142398004572,75.45559701348175,76.05362120392829,30.760618596528914,31.35864278697545,30
218.0,76.99620253164557,76.76992454460691,75.38438114501142,76.00230792948078,30.76761661512613,31.38554339959549,30
224.0,76.89620253164557,76.70301987725172,75.278863686304,75.91509080360237,30.78792907364935,31.424156190947713,30
230.0,76.79620253164556,76.60301987725171,75.16166847244159,75.81550104224587,30.78751883500584,31.44135140481012,30
236.0,76.69620253164557,76.53507013803663,75.05749652980619,75.7119666789779,30.82310345905873,31.477573608230443,30
240.0,76.59620253164557,76.44671938176026,74.93488458293167,75.59398327472388,30.852736107036378,31.511834798828588,30
250.0,76.49620253164555,76.33507013803663,74.82018637714275,75.49055144837952,30.844518689657107,31.51488376089388,30
258.0,76.39620253164559,76.24521795988032,74.6962263787468,75.38406797271531,30.861149987165007,31.54899158113352,30
265.0,76.19620253164557,76.11221137336915,74.5293878925586,75.22221987351348,30.889991499855668,31.582823480810546,30
272.0,76.09620253164557,75.9782158867939,74.37173226284091,75.08200892464467,30.896206962149236,31.606483623952997,30
280.0,75.89620253164557,75.85558368203748,74.22155437418655,74.95033021797077,30.905253464066703,31.634029307850923,30
290.0,75.79620253164558,75.74295713841492,74.05839549503078,74.82380440778579,30.919152730629136,31.684561643384143,30
300.0,75.79620253164558,75.6772226687887,73.90442329995217,74.71135410692922,30.96586856185948,31.77279936883653,30
307.0,75.69620253164557,75.58774565049951,73.76851585463503,74.61757968814707,30.97016596235244,31.819229795864487,30
315.0,75.69620253164557,75.5656550671901,73.64434506098222,74.53547927422353,31.03017579296656,31.921310006207875,30
325.0,75.69620253164557,75.5656550671901,73.57219680768732,74.50362288729644,31.06203217989365,31.993458259502773,30
335.0,75.79620253164558,75.66616449238427,73.56908990614862,74.58203631376752,31.08412817861675,32.09707458623565,30
345.0,75.99620253164557,75.84346923287676,73.61953618104943,74.69952302150328,31.143946211373475,32.22393305182733,30
355.0,76.19620253164557,76.06616449238427,73.72716132362056,74.86585583257683,31.200308659807447,32.33900316876371,30
365.0,76.49620253164555,76.25709235111755,73.82468734407294,75.03242810781197,31.224664243305583,32.43240500704461,30
375.0,76.69620253164557,76.46868275190361,73.89560056457933,75.18563660339557,31.28304614850805,32.57308218732429,30
387.0,76.89620253164557,76.63735331284141,73.90552496426355,75.27713384635997,31.36021946648144,32.731828348577864,30
400.0,76.99620253164557,76.74926727379092,73.87273706911735,75.32162648445566,31.427640789335257,32.87653020467357,30
412.0,77.09620253164557,76.81851584487016,73.81086209688984,75.32838601782605,31.490129827044115,33.00765374798033,30
425.0,76.99620253164557,76.75495200544368,73.64121061159517,75.22771848881142,31.527233516632265,33.113741393848514,30
437.0,76.99620253164557,76.76731554816753,73.51756270979855,75.1732188881497,31.594096660017826,33.24975283836898,30
450.0,76.89620253164557,76.69338927049473,73.33080372825698,75.04301072696381,31.65037854353092,33.36258554223775,30
462.0,76.79620253164556,76.58159589990514,73.1235061194614,74.8727627035703,31.708833196334837,33.45808978044374,30
475.0,76.59620253164557,76.4391178010869,72.92071299397671,74.71350804180663,31.72560975928026,33.51840480711019,30
487.0,76.49620253164555,76.37232061822907,72.76012469440596,74.59894166069341,31.773378957535655,33.61219592382311,30
500.0,76.39620253164559,76.3038577572202,72.66252189801922,74.52791711395722,31.775940643262985,33.64133585920098,30
515.0,76.39620253164559,76.29832081024325,72.62177709274299,74.5077283365126,31.790592473730655,33.676543717500266,30
530.0,76.39620253164559,76.31753985048587,72.63816677973028,74.55843842981014,31.759101420675734,33.67937307075559,30
545.0,76.49620253164555,76.39150444292386,72.71430875455975,74.65504606193916,31.7364583809847,33.67719568836411,30
560.0,76.59620253164557,76.56591872092693,72.86989276640598,74.83294735934653,31.732971361580397,33.69602595452095,30
580.0,76.69620253164557,76.64402897743565,72.95781425067959,74.92815868992676,31.715870287508892,33.68621472675606,30
600.0,76.79620253164556,76.73447444017876,73.04654335920583,75.05592140024044,31.678553039938322,33.68793108097293,30
615.0,76.99620253164557,76.85982441964838,73.14304932976684,75.17421627598047,31.685608143667906,33.71677508988154,30
630.0,77.09620253164557,76.92845338090083,73.17858397286629,75.24694912702618,31.68150425387465,33.74986940803454,30
650.0,77.19620253164557,77.00644902182029,73.18610045661812,75.29704363704846,31.709405384771827,33.82034856520217,30
670.0,77.29620253164558,77.01756620266482,73.0653551053234,75.22823361417633,31.78933258848849,33.95221109734142,30
690.0,77.39620253164557,77.05313445355954,72.96499478818413,75.17920192447714,31.873932529082396,34.08813966537541,30
710.0,77.29620253164558,76.94564081135228,72.7615395179733,75.01618267289199,31.92945813846029,34.18410129337897,30
730.0,77.29620253164558,76.91851177671768,72.5774530752262,74.88204710463609,32.03646467208159,34.34105870149148,30
750.0,77.29620253164558,76.86657084622765,72.37098768819617,74.72905072128547,32.13752012494217,34.49558315803148,30
775.0,77.19620253164557,76.79861274796006,72.1470276801008,74.54303095064121,32.255581797318854,34.65158506785926,30
800.0,76.99620253164557,76.61160876640601,71.86087788075491,74.28684609773288,32.32476266867313,34.750730885651095,30
825.0,76.99620253164557,76.5488630191651,71.69231431857408,74.14205290422319,32.406810114941905,34.85654870059102,30
850.0,76.89620253164557,76.44330427460656,71.50669480885902,73.96406443388669,32.47923984071987,34.93660946574754,30
875.0,76.79620253164556,76.29668753654418,71.27489587693924,73.75069390575867,32.54599363078552,35.02179165960494,30
900.0,76.69620253164557,76.20907935564952,71.08250544069539,73.56642289060902,32.6426564650405,35.126573914954136,30
925.0,76.69620253164557,76.16481433557284,70.91471826557724,73.42450495796423,32.74030937760861,35.25009606999561,30
950.0,76.69620253164557,76.17244976542462,70.78872003432342,73.34354050167516,32.82890926374945,35.3837297311012,30
975.0,76.89620253164557,76.33225175805462,70.79470591524644,73.40112530377215,32.93112645428248,35.537545842808186,30
1000.0,77.09620253164557,76.52338825779775,70.82833604047349,73.509048177067,33.01434008073075,35.69505221732426,30
1030.0,77.19620253164557,76.63429018559982,70.81097888621483,73.58062525851649,33.05366492708333,35.823311299385,30
1060.0,77.19620253164557,76.61215053033273,70.67296696239293,73.55812012426078,33.054030406071945,35.93918356793979,30
1090.0,77.09620253164557,76.49140827119707,70.3961165595498,73.39649805941734,33.094910211779734,36.09529171164728,30
1120.0,76.89620253164557,76.26831178367974,70.0839171819498,73.17651198383483,33.09179979984491,36.184394601729934,30
1150.0,76.69620253164557,76.10269972946294,69.82581263690403,72.99877219630326,33.10392753315968,36.27688709255891,30
1180.0,76.49620253164555,75.96796155563987,69.59795611254053,72.83236117117151,33.13560038446836,36.370005443099345,30
1220.0,76.49620253164555,75.92019872304495,69.46468295451214,72.77395906335238,33.14623965969257,36.455515768532806,30
1250.0,76.59620253164557,75.97064984282221,69.45455712194034,72.80223320809417,33.16841663472805,36.51609272088187,30
1280.0,76.69620253164557,76.07421380538395,69.52459317154964,72.9034383925826,33.17077541280135,36.54962063383431,30
1320.0,76.89620253164557,76.1836091654038,69.61741166270119,73.04143897404167,33.142170191362126,36.56619750270261,30
1360.0,76.99620253164557,76.26005585190777,69.65941620433951,73.12841002126018,33.131645830647585,36.60063964756826,30
1400.0,76.99620253164557,76.25449277416895,69.63828619269665,73.15162398589742,33.102868788271536,36.6162065814723,30
1450.0,76.89620253164557,76.15606158973262,69.51049574297153,73.0944861912744,33.06157539845822,36.64556584676109,30
1500.0,76.79620253164556,76.0229532602229,69.34548532085516,73.02390799049955,32.999045269723354,36.677467939367745,30
1550.0,76.59620253164557,75.87769372136397,69.17190842411758,72.92306647941582,32.954627241948145,36.70578529724639,30
1600.0,76.59620253164557,75.93509405310759,69.18557599323229,72.99798794040107,32.937106112706516,36.7495180598753,30
1650.0,76.69620253164557,76.02414389797997,69.24073463202213,73.09626662906048,32.92787726891949,36.78340926595784,30
1700.0,76.89620253164557,76.17544860519286,69.3328779208367,73.23019460993707,32.94525399525578,36.84257068435616,30
1750.0,77.09620253164557,76.31952435523468,69.4209605044744,73.35236312778599,32.967161227448685,36.89856385076028,30
1800.0,77.19620253164557,76.37575063698415,69.42589041656906,73.39308537383324,32.982665263150906,36.94986022041509,30
1850.0,77.09620253164557,76.26306107598789,69.23589552953182,73.20524322736571,33.05781784862218,37.027165546456075,30
1900.0,76.69620253164557,75.89837363193304,68.78048034598686,72.75697290535925,33.14140072657379,37.11789328594618,30
1950.0,76.09620253164557,75.30337897703811,68.10288386954345,72.09037710001365,33.21300187702445,37.20049510749466,30
2000.0,76.09620253164557,75.28332812829302,67.95540595125667,71.94225897550712,33.341069152785906,37.327922177036356,30
2060.0,76.79620253164556,75.96038567015714,68.51501036391404,72.51133871277534,33.449046957381796,37.44537530624309,30
2120.0,77.09620253164557,76.28361604403567,68.7085145240994,72.70820726949171,33.57540877454396,37.57510151993627,30
2180.0,76.99620253164557,76.08295556972098,68.36430340137761,72.37978247413297,33.70317309558801,37.71865216834337,30
2240.0,76.59620253164557,75.65022264556491,67.86471431094509,71.8820850922841,33.76813755328081,37.78550833461982,30
2300.0,76.09620253164557,75.1425357786885,67.31314783208681,71.34401676932325,33.79851900936525,37.829387946601685,30
2360.0,75.89620253164557,74.95588531288641,67.13795339740405,71.15981368732848,33.79607162555793,37.81793191548236,30
2400.0,76.09620253164557,75.1546226498782,67.34183805511167,71.37819618927404,33.77642646060417,37.81278459476654,30
2500.0,76.19620253164557,75.3180328326781,67.50939972978489,71.55245436241015,33.765578470267954,37.80863310289321,30
2580.0,76.09620253164557,75.2180328326781,67.35162478357393,71.43597456865658,33.78205826402153,37.86640804910418,30
2650.0,75.69620253164557,74.8162974986207,66.90305331486094,71.05437912022292,33.76191837839778,37.91324418375976,30
2720.0,75.59620253164557,74.80166517363055,66.80443347519206,71.01693791672264,33.784727256907914,37.9972316984385,30
