Freq "Early Reflections"
22.4 8.293716886698931
23.0 9.29371688669896
23.6 10.17502697938751
24.0 10.91370579112727
25.0 11.656027621359883
25.8 13.386139041369816
26.5 15.163312966070592
27.2 16.586139041369833
28.0 17.810683501325244
29.0 18.93178649236127
30.0 19.91297200017614
30.7 21.37571780590902
31.5 23.178138004697686
32.5 24.59464475889
33.5 25.794644758890016
34.5 26.8560276213599
35.5 27.91297200017617
36.5 29.28613904136982
37.5 30.39464475889001
38.7 31.34183657028943
40.0 32.13178649236126
41.2 33.26881883606559
42.5 34.56809091855921
43.7 35.579825975814785
45.0 36.45677109625025
46.2 37.41068350132521
47.5 38.58613904136983
48.7 39.57813800469769
50.0 40.48613904136981
51.5 41.65021029345134
53.0 42.81154607214579
54.5 43.87759862508766
56.0 45.27759862508766
58.0 47.0033594553601
60.0 48.49371688669895
61.5 49.89560572033987
63.0 51.27759862508766
65.0 52.495605720339896
67.0 53.941836570289425
69.0 55.3750269793875
71.0 56.73178649236128
73.0 58.27759862508765
75.0 59.677598625087654
77.5 60.97502697938749
80.0 62.17502697938751
82.5 63.503133291324204
85.0 65.00994919950227
87.5 66.33272768935645
90.0 67.51368908938487
92.5 68.50611160339112
95.0 69.29371688669893
97.5 70.18613904136981
100.0 71.1755268581052
103.0 71.94569095995186
106.0 72.64547267893171
109.0 73.49980127961064
112.0 74.20495287973891
115.0 74.69091976230679
118.0 75.12154733865181
122.0 75.47694997142011
125.0 75.80986711476909
128.0 76.01340185272694
132.0 76.22678924367715
136.0 76.40780174581035
140.0 76.52966041510754
145.0 76.65257130066603
150.0 76.69226985750473
155.0 76.74288694231832
160.0 76.74602803830734
165.0 76.74031690676004
170.0 76.69359233596587
175.0 76.62659030850543
180.0 76.55566926147674
185.0 76.50595206862472
190.0 76.4331263772919
195.0 76.34538376234248
200.0 76.28127847668331
206.0 76.17085346581142
212.0 76.05362120392829
218.0 76.00230792948078
224.0 75.91509080360237
230.0 75.81550104224587
236.0 75.7119666789779
240.0 75.59398327472388
250.0 75.49055144837952
258.0 75.38406797271531
265.0 75.22221987351348
272.0 75.08200892464467
280.0 74.95033021797077
290.0 74.82380440778579
300.0 74.71135410692922
307.0 74.61757968814707
315.0 74.53547927422353
325.0 74.50362288729644
335.0 74.58203631376752
345.0 74.69952302150328
355.0 74.86585583257683
365.0 75.03242810781197
375.0 75.18563660339557
387.0 75.27713384635997
400.0 75.32162648445566
412.0 75.32838601782605
425.0 75.22771848881142
437.0 75.1732188881497
450.0 75.04301072696381
462.0 74.8727627035703
475.0 74.71350804180663
487.0 74.59894166069341
500.0 74.52791711395722
515.0 74.5077283365126
530.0 74.55843842981014
545.0 74.65504606193916
560.0 74.83294735934653
580.0 74.92815868992676
600.0 75.05592140024044
615.0 75.17421627598047
630.0 75.24694912702618
650.0 75.29704363704846
670.0 75.22823361417633
690.0 75.17920192447714
710.0 75.01618267289199
730.0 74.88204710463609
750.0 74.72905072128547
775.0 74.54303095064121
800.0 74.28684609773288
825.0 74.14205290422319
850.0 73.96406443388669
875.0 73.75069390575867
900.0 73.56642289060902
925.0 73.42450495796423
950.0 73.34354050167516
975.0 73.40112530377215
1000.0 73.509048177067
1030.0 73.58062525851649
1060.0 73.55812012426078
1090.0 73.39649805941734
1120.0 73.17651198383483
1150.0 72.99877219630326
1180.0 72.83236117117151
1220.0 72.77395906335238
1250.0 72.80223320809417
1280.0 72.9034383925826
1320.0 73.04143897404167
1360.0 73.12841002126018
1400.0 73.15162398589742
1450.0 73.0944861912744
1500.0 73.02390799049955
1550.0 72.92306647941582
1600.0 72.99798794040107
1650.0 73.09626662906048
1700.0 73.23019460993707
1750.0 73.35236312778599
1800.0 73.39308537383324
1850.0 73.20524322736571
1900.0 72.75697290535925
1950.0 72.09037710001365
2000.0 71.94225897550712
2060.0 72.51133871277534
2120.0 72.70820726949171
2180.0 72.37978247413297
2240.0 71.8820850922841
2300.0 71.34401676932325
2360.0 71.15981368732848
2400.0 71.37819618927404
2500.0 71.55245436241015
2580.0 71.43597456865658
2650.0 71.05437912022292
2720.0 71.01693791672264
2800.0 71.51691478838366
2900.0 71.90741144003592
3000.0 71.78988728813222
3070.0 71.51448312870922
3150.0 71.42851536451907
3250.0 71.45685360282738
3350.0 71.22599197682771
3450.0 70.84221069291904
3550.0 70.57391817272308
3650.0 70.5657567670728
3750.0 70.57756374708079
3870.0 70.8146099378217
4000.0 71.19474384036032
4120.0 71.28726701212607
4250.0 70.85555636477424
4370.0 70.61441786029607
4500.0 70.75991402591843
4620.0 70.67923301186794
4750.0 70.36044207036967
4870.0 69.88494343417622
5000.0 69.12540739685137
5150.0 68.62056074656019
5300.0 68.9398231576138
5450.0 69.7201578174479
5600.0 69.89375387038002
5800.0 69.32944805518515
6000.0 68.37761427879055
6150.0 67.9838126751276
6300.0 68.31987295178898
6500.0 68.91247082127856
6700.0 69.12860360058099
6900.0 69.11275042491074
7100.0 69.24992376169567
7300.0 69.41278231815193
7500.0 69.40006328496266
7750.0 69.66928923144545
8000.0 69.98932740540498
8250.0 70.52035904182983
8500.0 70.86869416236443
8750.0 71.1050954191149
9000.0 72.207659125035
9250.0 73.54247865061437
9500.0 74.18275402289483
9750.0 73.32154099771057
10000.0 71.75702959542106
10300.0 70.6752961655186
10600.0 71.09348832253684
10900.0 72.90990868894845
11200.0 73.99345006311262
11500.0 74.36122448423697
11800.0 72.93544217690227
12200.0 71.34671566285768
12500.0 72.43348231935686
12800.0 73.72411684931267
13200.0 73.54404153061873
13600.0 72.72839262415455
14000.0 71.73420806472059
14500.0 71.01198377318713
15000.0 70.16791052649315
15500.0 69.49662340654189
16000.0 68.83072057881651
16500.0 69.08491126776194
17000.0 69.93039484327484
17500.0 69.4151620190615
18000.0 67.55888442459467
18500.0 65.36257248148446
19000.0 63.386240044172965
19500.0 63.124135612194465
