Freq "Sound Power"
22.4 63.7298581331204
23.0 61.735155384801416
23.6 58.62335608173082
24.0 59.18692115778073
25.0 60.43142096165592
25.8 61.42453901633347
26.5 62.11762503465489
27.2 61.492028716953754
28.0 60.24576213867063
29.0 58.423175117766434
30.0 56.22447358704942
30.7 55.80676195397025
31.5 55.50093634032886
32.5 55.11197090285829
33.5 54.403536152493686
34.5 53.44138486478606
35.5 52.83478618386219
36.5 55.845723690476106
37.5 57.99365773568219
38.7 60.00549373497053
40.0 62.535887219404955
41.2 64.22756391055441
42.5 66.19930550294217
43.7 67.93683152371482
45.0 69.7514375194709
46.2 72.0811132302133
47.5 73.86497508033763
48.7 76.11952363524834
50.0 77.78652872121496
51.5 79.47179822443101
53.0 80.75247023125218
54.5 81.42495775681964
56.0 81.86018176591762
58.0 81.84130503349498
60.0 81.72519156289106
61.5 81.59881490871221
63.0 81.41623941499473
65.0 81.20067443662369
67.0 81.14712127387291
69.0 81.03777732930044
71.0 80.87033841321228
73.0 81.35280199983211
75.0 81.75399229132938
77.5 81.92667803592893
80.0 81.92692757704371
82.5 81.90976375770813
85.0 81.77204850675918
87.5 81.53446567107453
90.0 81.35951653388149
92.5 81.29790499929588
95.0 81.15246471575425
97.5 81.42246982358292
100.0 81.33772944190915
103.0 80.98987091314424
106.0 80.74675979648964
109.0 80.60411127559287
112.0 80.2588106053786
115.0 80.05997984678015
118.0 79.92531565435135
122.0 80.02440415811944
125.0 80.30826646181974
128.0 80.24537794450622
132.0 80.08608870478078
136.0 80.07413126710604
140.0 79.82878656321897
145.0 79.64102042152332
150.0 79.53239513713719
155.0 79.67651610222507
160.0 80.23690219139749
165.0 80.92119755689754
170.0 81.75167670849308
175.0 82.19081732272163
180.0 82.32638785775154
185.0 82.33386769059186
190.0 82.3790138719415
195.0 82.34314418483204
200.0 81.2471255371416
206.0 79.63268036799937
212.0 78.2922462787848
218.0 78.56993918597138
224.0 78.79681422108617
230.0 78.62576412698446
236.0 78.75661406186153
240.0 78.15373563115766
250.0 77.27315535249598
258.0 76.82620667531118
265.0 75.79503307374294
272.0 74.07557632734266
280.0 72.90253070357458
290.0 73.44211776766832
300.0 75.16435387856501
307.0 76.75075676332135
315.0 76.47030692984275
325.0 76.31761334012897
335.0 76.92510654043328
345.0 77.22936121268548
355.0 77.14668399175783
365.0 76.62528265097924
375.0 76.11729951748337
387.0 76.17494423868011
400.0 76.18210691299554
412.0 75.93103403730387
425.0 76.3404085015164
437.0 76.7236800094053
450.0 76.51283304868326
462.0 76.13523602019269
475.0 75.49853576939681
487.0 74.52026917684361
500.0 74.09384835331868
515.0 74.860224883147
530.0 74.67433444959478
545.0 74.14679715855291
560.0 74.27917780854833
580.0 74.36596454454126
600.0 74.100890988824
615.0 73.66516384139939
630.0 73.14950182673333
650.0 73.20813107802651
670.0 72.98509065514142
690.0 72.39419326944248
710.0 71.92123299884938
730.0 71.84708856684514
750.0 72.0148234661706
775.0 71.99477204608306
800.0 72.09264181650441
825.0 72.50835031536906
850.0 73.00518941580488
875.0 73.32758758222465
900.0 73.26501427720933
925.0 73.05146469620111
950.0 72.72760560399081
975.0 72.06415615958524
1000.0 70.74623669936385
1030.0 69.65231332773921
1060.0 69.23392958615752
1090.0 69.67008102426026
1120.0 70.3684606520607
1150.0 70.79306860568134
1180.0 71.03399935656785
1220.0 71.03289680229398
1250.0 71.3953952122701
1280.0 72.17682141305347
1320.0 72.58562934062684
1360.0 72.59870976754041
1400.0 72.63433386926856
1450.0 72.43859144077074
1500.0 71.58145481370323
1550.0 70.86772835518504
1600.0 70.40564624267826
1650.0 70.34058543603304
1700.0 70.62671016763903
1750.0 70.13782580796314
1800.0 69.54940356243647
1850.0 69.76446570863348
1900.0 70.90624114427871
1950.0 71.97926966399827
2000.0 72.32906608360364
2060.0 72.5566809130643
2120.0 73.62647184417607
2180.0 74.60232255515733
2240.0 74.57510502384098
2300.0 74.04382454972655
2360.0 73.9206902419028
2400.0 73.93525581939399
2500.0 73.29495803234188
2580.0 72.71522337504568
2650.0 72.651231051227
2720.0 72.02428230472951
2800.0 71.66406523107588
2900.0 72.06225459167801
3000.0 71.56653591458982
3070.0 71.26351125385072
3150.0 71.42233822351498
3250.0 70.54017052054986
3350.0 71.1541552132273
3450.0 71.94898073135667
3550.0 71.78441819449827
3650.0 72.52704322712187
3750.0 73.11233917554307
3870.0 72.62330482797555
4000.0 72.19949006782916
4120.0 71.50096650879313
4250.0 70.869792007575
4370.0 70.71788351439359
4500.0 71.25965576500971
4620.0 71.10644292599052
4750.0 71.49890368402673
4870.0 70.68621132704527
5000.0 71.05518654536264
5150.0 70.13131904115275
5300.0 70.58704730714237
5450.0 70.7646978770816
5600.0 70.7684654644681
5800.0 70.86273756364005
6000.0 70.29108522160998
6150.0 70.65117921551197
6300.0 71.2989946917532
6500.0 71.54003674551468
6700.0 69.76254944889011
6900.0 69.13652782315108
7100.0 69.50580037847088
7300.0 69.09641916265304
7500.0 69.59375540148616
7750.0 70.68636530212419
8000.0 70.28916427310234
8250.0 69.89121652797098
8500.0 69.1510597333573
8750.0 69.51771847903088
9000.0 72.00202505875986
9250.0 71.3318038330852
9500.0 69.49015122557083
9750.0 68.64703168000783
10000.0 65.63587366408908
10300.0 66.3236007582307
10600.0 66.11859805622464
10900.0 63.19815079379016
11200.0 65.14044649971775
11500.0 67.6052867660158
11800.0 65.69666394411595
12200.0 63.15723164299362
12500.0 62.56509240544746
12800.0 58.73586025025405
13200.0 52.783897763299606
13600.0 56.39687692083929
14000.0 55.54759596622152
14500.0 47.65073899194759
15000.0 57.0290038354628
15500.0 61.344771970518096
16000.0 58.08041640429728
16500.0 57.19317967693648
17000.0 58.20630300862281
17500.0 52.28866364494702
18000.0 45.73838435936172
18500.0 46.94016085026321
19000.0 46.41385036504509
19500.0 44.56704165770917
