Freq,Floor Bounce,Ceiling Bounce,Front Wall Bounce,Side Wall Bounce,Rear Wall Bounce,Total Early Reflection
20.5078,54.74352647900609,54.68460609144485,54.39013823331693,55.89795871740189,65.70577109640998,59.97921144168096
21.9727,59.59326507100069,57.73195280307441,59.07213232436992,58.490428763490215,66.00568778381903,61.46382168618531
23.4375,60.385693343381874,59.186097972714705,59.85739206374468,60.28218264994136,67.87688594964368,63.04922332687103
24.9023,63.56782771548286,62.10954571638099,63.038049295945044,62.9772478946431,68.8905030038801,64.95336441954898
26.3672,65.65914456941896,64.25555937799734,65.16094509435383,65.08998380307644,70.07764083186093,66.63422533615847
27.832,67.54116633084082,66.25157619131681,67.06694671356762,67.03342210729367,71.4391089861809,68.3205517728366
29.2969,69.26089654455114,67.93151488965997,68.72947683708253,68.79040250294035,72.66980000871443,69.8381023578423
30.7617,71.06189196698442,69.79483047135656,70.51990231888799,70.65664976422926,74.13683317624648,71.53115795773948
32.2266,72.79208796461977,71.58131976732469,72.23297347473549,72.46085148801646,75.54314291410418,73.16362159859794
33.6914,74.46225421513324,73.23281421106464,73.8643227642339,74.14087792592616,76.88542310965154,74.71580430152734
35.1562,76.00976002949206,74.74918519493818,75.39733992513891,75.64908628143078,77.92599048163812,76.0884912706691
36.6211,77.45420196302572,76.16506266181928,76.81520599589403,77.09483654775222,79.18515751492727,77.4686116969733
38.0859,79.28471697234706,78.07810366581613,78.71519202704881,78.92140625246368,80.44352317582316,79.16145122408814
39.5508,79.52478987237446,78.22712087437951,78.89748893174898,79.11203844952136,80.63729109938461,79.35519868581699
41.0156,80.39296243363667,79.06487311788172,79.75176247057315,79.96049756405529,81.27529660928224,80.15165752375044
42.4805,80.99003451727681,79.6041731178817,80.31140837927909,80.53354901169071,81.7276006736439,80.69114580673848
43.9453,81.53281406138343,80.09547379469784,80.82798627599182,81.04393560546178,82.10663422094875,81.17372742048792
45.4102,81.91623268239057,80.4401288411748,81.18560003215028,81.41045815616226,82.37175994923642,81.51395341655393
46.875,82.25666246870053,80.73662796405108,81.50643621197523,81.72379777407986,82.57226899129142,81.80482371246448
48.3398,82.58605049742695,81.02696676497858,81.81865198702836,82.03082274520672,82.74229078645737,82.08290708260347
51.2695,83.11108826447344,81.54352878710681,82.34906862397311,82.51389906965534,82.95671637812197,82.52887922551838
52.7344,83.28058067878457,81.66228922804468,82.5002841731885,82.64210205742923,82.97086880534111,82.64463203423684
54.1992,83.41458723634344,81.76443295561073,82.61865010115625,82.75599817483614,83.03029808019978,82.75051111961173
55.6641,83.56027340365192,81.90812070921727,82.76067111135904,82.88987774948673,83.09604695016857,82.8758640755173
58.5938,83.90246881033593,82.19713769664241,83.09421553061283,83.18175370716534,83.21475480406104,83.15153927201378
60.0586,83.94868476066038,82.20163668423304,83.12387067106967,83.2085188935682,83.19026353764737,83.16959516918925
62.9883,84.17130126641686,82.32867960758277,83.31902732978935,83.35675662371227,83.17100693857365,83.30870947039078
64.4531,84.3301200513559,82.4708933174821,83.47791041803195,83.49218301242692,83.21803382879996,83.43869861287479
67.3828,84.67375125508018,82.82578184869858,83.83682727166271,83.84654650599258,83.46179355172762,83.77061598544435
68.8477,84.75388581638472,82.92860132176298,83.92582896280888,83.93180958317858,83.53204434913307,83.85541545673824
71.7773,84.76795013811646,82.96988676299453,83.92325084846347,83.98251229311978,83.69144417588602,83.90529429403715
74.707,85.00309843909294,83.09222601760744,84.12572236279284,84.13022743234026,83.73781511808282,84.06245921566078
77.6367,85.19254337890233,83.23734896003795,84.31466429049674,84.26516013919324,83.69397683941398,84.19116719626092
79.1016,85.2709156390931,83.28802657354892,84.38393170742248,84.32000139780236,83.71946175254278,84.24903679240663
82.0312,85.29105589509349,83.30262628174715,84.38426062181544,84.3422245001496,83.78045754084744,84.27190140153672
84.9609,85.53689878041915,83.3201890309784,84.54788182752152,84.4598550933301,83.90429953055617,84.41712450122164
87.8906,85.906269342748,83.66215748378654,84.95453481553132,84.75264061067914,83.98755732760688,84.72499198395474
90.8203,86.10799223565418,83.8591380844173,85.14747934344666,84.93397682487041,84.07766310943589,84.90135874923152
95.2148,86.09954771431792,83.60638061108054,85.04763287805463,84.84701841349458,84.16407310999331,84.83621236585532
98.1445,86.23125986752191,83.72855020068015,85.2112122345923,84.94427379136835,84.1893666926499,84.94826823971995
101.074,86.36905582785124,83.83787248725754,85.39166915712595,85.01027352972008,83.91885006678667,85.0105616359426
105.469,86.37786332679106,84.02418180434391,85.47975879827791,85.06077351302632,83.90269392209822,85.06872467368265
108.398,86.4515823559398,83.99474356131968,85.51733559097681,85.05355971807863,83.83170496050062,85.08028861691109
112.793,86.44067152920569,83.97623158966361,85.52303017310585,84.97095078687714,83.57048014265831,85.02097891672535
117.188,86.11466519406706,83.57309328506862,85.18563316321247,84.6682218716384,83.24591948861672,84.68520828928332
120.117,86.37613366273173,83.41541851560699,85.31010278277269,84.6564098921009,82.95317538131665,84.72133451370497
124.512,86.81206782136746,83.90230480717084,85.82043148350651,85.18292215724733,83.71710232117745,85.24454478938621
128.906,86.54885766059512,83.87185629858043,85.6617048619272,84.97413021983498,83.56381571927434,85.06621804683478
133.301,86.52859142391881,83.78679669722537,85.6565425629766,84.84265546166112,83.07399411355367,84.95421077271472
139.16,86.37688621731789,83.67291163772765,85.5069493035929,84.76000202652695,82.61801413370233,84.7842181489161
143.555,86.18629581337024,83.31740225158816,85.27346030005843,84.44443362962102,82.41209991033209,84.53168637780796
147.949,86.20326937192915,83.06919910139571,85.28618149982991,84.2555337359618,82.1785480836853,84.43805599259652
153.809,86.22619812328293,83.39480477998417,85.42456954187526,84.46529128605246,82.0970296987306,84.55841909838524
159.668,85.64996934169562,82.68896440976486,84.72230040439482,83.73127020894889,81.11585214747713,83.85630933570941
165.527,85.61679891403021,82.43172907734292,84.66246602049037,83.35709992074325,80.95652308295074,83.7047056580005
171.387,86.08682535892886,82.56632791523816,85.11918318404533,83.7138287234841,80.0792651053215,83.97505354040324
177.246,86.29304884354146,83.36115191338172,85.50390653733143,84.37815839839247,81.37916569853955,84.50026327278215
183.105,86.02604027208795,82.9833093381061,85.22678100706814,83.99986988530156,80.89089693949197,84.17103521846788
188.965,86.15979239898931,82.96279504808602,85.30362323876129,84.00758886506047,80.62763351213765,84.20666933725866
196.289,86.36039789156648,83.1742429856711,85.52812991954367,84.26378602171242,80.75205655121441,84.41912346449523
203.613,85.8951814612713,82.95447727396511,85.14270708826768,83.8745246846072,80.06850284706364,84.00874920571977
210.938,86.18530568374265,82.94066686629425,85.3301278378073,84.061885777469,79.18779194849266,84.12030115300485
218.262,86.38859151148088,83.2383237433963,85.60707305461091,84.64637855923368,79.93206723876487,84.47086503896773
225.586,86.26396711731398,83.36536378678933,85.60093232514798,84.61642619580094,80.58953444980823,84.4941181964116
232.91,86.16698800177356,83.5708692091674,85.50759565086841,84.50396918393913,80.61293395469427,84.45279130647702
241.699,85.78415185025513,83.00408623494596,85.16800496237917,84.27110368081674,80.21482185953674,84.08124120393029
250.488,85.7475172543757,81.885697355745,85.13265228862599,83.75974711974551,79.32596317145915,83.72663552201506
259.277,86.41585158927613,82.92056509357779,85.87822502837473,84.41796217262299,79.36443169096701,84.42188582867779
268.066,86.02856119176569,83.1377153153412,85.62232357365386,84.81878078763077,80.41743103445621,84.42489317411615
276.855,85.65741363062818,82.4818079603687,85.13851475495554,83.71879396095629,80.2751840702757,83.85052421068241
287.109,85.57277235498707,82.33161560773445,85.06363013468665,83.42147719971184,78.39714767291555,83.58607684176543
297.363,86.1850736907844,82.82774218521915,85.67417876065834,83.63761409553781,78.65963653399638,84.08600749749466
307.617,86.52315326405478,83.07986859008172,86.40369379806747,84.70836716617266,79.71333663296446,84.7084857894338
319.336,85.59849800722094,82.63290870807513,85.39868684815865,83.87744934468849,79.31413780806115,83.88289399689056
329.59,85.38049363394951,82.31474006134535,85.18510564836528,83.67700128869002,79.73875142759593,83.70301633147217
341.309,85.79363258890355,82.61279270499851,85.52453036055006,83.53515114469836,78.52752557682015,83.85927352822567
353.027,85.29196358995121,82.2966299786644,85.47058863480667,83.6488337021786,78.93068562554392,83.69283168814638
366.211,85.40949777058506,82.7096893391575,85.72620191135923,84.77160801433497,78.73422944936831,84.09137847293717
379.395,85.1915508434473,82.065296981427,85.78927927320397,84.78309268411972,79.74474804955317,84.0337572942978
392.578,85.29662947187573,81.93368511815282,85.33591232916358,84.17069541569226,79.47144646922885,83.75160693423365
405.762,85.51465176622506,82.12518382241501,85.6808880028169,84.24179530048288,79.9014732937464,83.987618327446
420.41,85.29010576947036,80.83949227451147,85.60770417603882,83.72902128433483,78.80481707438297,83.56047688891574
435.059,85.52334759969274,81.44042600306175,85.73995758913746,84.0300385893966,79.77463650910681,83.86998031334771
451.172,85.65541754208003,80.88453826620021,86.19273734432626,83.9080712682161,78.3618020345931,83.8774851697671
465.82,85.58114081104019,80.80183073351333,86.15698088763514,84.20584953209804,78.40510723277195,83.89941173195336
483.398,85.41299604568165,80.48671733704676,86.11424937251425,84.14845723121105,79.92594656853012,83.89728432839038
499.512,85.32049049695134,79.82192572074857,85.66268055698588,82.95461616588896,78.94691626202675,83.3473730738331
517.09,85.67355323527154,78.47972493538406,86.58867340140307,82.94240757841311,77.74399420236816,83.62491422753499
536.133,85.70332461619383,77.5546871255441,86.33581975210721,83.25246040693602,78.36279116294112,83.57531014309977
555.176,84.2526080080383,78.7597876042388,84.76409139452464,82.07165413750504,77.82471456090143,82.36852135772311
574.219,85.14953420751631,76.87130126775207,85.5077678935922,81.81852157310712,77.40942477750501,82.73457768162477
594.727,85.45248447347558,75.9614584792538,85.67855681744938,81.7253336607673,76.74337295695703,82.81549674478332
615.234,84.49238040281512,77.74422553763794,86.2252485172917,82.30521981396826,77.52986195323521,82.952512295747
637.207,84.75682773429072,79.31707827142864,86.18854591722436,82.23183488147396,77.58165676925861,83.11630826290053
659.18,84.37466623570522,79.25549056916607,85.6528539780242,82.14510254298018,77.03753808382348,82.7416639175075
682.617,83.33190259906898,79.12891240236274,85.7647798155589,82.31423009024074,77.08600428327019,82.53250733959536
707.52,83.78913625105963,78.59839094470327,85.33772786565221,81.60742025044348,75.6681394067045,82.2280718122237
732.422,83.32814490247901,78.61271420224102,85.47200281714571,81.73831450437994,74.89962388278458,82.15107221123152
757.324,82.21257681832243,79.06043427223462,85.25047244314526,82.25817197437141,75.08542256982491,81.9447842769114
785.156,82.7879076881983,78.19640717904758,84.74818162746024,80.50473978088725,74.60061998538669,81.43397723745677
811.523,81.36539894596974,78.67893588877286,84.57447721040579,80.78406637108142,73.58416594318076,81.07237145130533
840.82,81.66754893715256,77.25287805337375,84.41066696091835,80.5835291043348,74.04287161000347,80.90457243959786
870.117,81.69554547521919,78.57814790621696,85.2019856667584,81.15786018033151,74.36467579808013,81.51672362938574
900.879,81.30191294746436,79.27739248718008,85.23705364261812,81.05492062872405,73.38671731599705,81.47924457232556
933.105,80.64024404814245,79.0371385752277,84.67640082270997,79.62797808874146,73.43720691404623,80.81618911985736
965.332,79.71784514821826,79.08258937951778,84.9880926819522,80.03508719655733,72.24761020443135,80.84661669985842
1000.49,78.46206540595975,79.38662012963475,84.09885729678605,79.52352958116172,71.70112190955953,80.15681144487158
1035.64,78.4224874615618,80.22548030221448,84.12027577785881,79.29737277494544,71.62481242866838,80.27523479683103
1072.27,76.78120034160924,79.8059378226936,83.61979213612304,78.87280050144174,71.08524537117373,79.66984366198494
1108.89,78.12536261653936,79.68599821190757,84.3113868233926,79.38221508323342,71.98024032549974,80.25589393664764
1148.44,78.96002406183187,80.73273004295034,84.58672112873693,79.77070193139197,71.9971543289662,80.75767316914585
1189.45,79.33091008145516,82.13969408844356,84.7228440258414,80.08020548848621,71.58318861038427,81.22105562409149
1230.47,79.30353078532029,81.63541921221803,84.72979707257255,79.96485704901737,72.10262232751111,81.09568658922943
1274.41,79.52981826364126,81.56282264807533,84.92872981646909,79.99565663064399,71.49143169100718,81.19341182825917
1319.82,80.27413489326126,82.69491782547216,85.71194163454552,80.54258159878393,72.90637268735854,82.0297807086243
1366.7,79.82440891567697,82.57528460322416,85.27206809925917,81.06748080441942,72.73514687010909,81.82005235275138
1413.57,81.37704308428319,82.45777176580293,85.27697368377594,80.62373980287282,73.87372617767942,81.98829664453187
1463.38,80.1332326104033,82.3347227186669,85.278042287808,81.63454076175431,73.16649174722957,81.91936330181808
1516.11,79.07546020665214,80.23564550949409,84.31083206643072,80.55747170805448,72.52330822159404,80.70260716635327
1568.85,79.13855310030941,81.93449360667447,84.17144396847179,81.71637057215044,73.30410404740572,81.26648742608558
1624.51,81.3590589251105,82.17801298356326,85.3548829527262,82.83285145939357,73.32781864076459,82.34784030565915
1681.64,80.27599854501189,82.32263667634497,84.64788933848634,82.84956349573629,73.25719909970836,81.94668194377435
1741.7,80.15818362302643,82.81039511041136,84.24435404641544,82.61369708034144,72.75467426645255,81.82894146242194
1803.22,78.91076983250993,81.77008961278054,84.15138514223057,82.58746186603098,72.71297161746533,81.38842915440334
1866.21,78.49746551750876,80.72594520929054,84.77765902043821,82.70576470406147,72.6459360724677,81.42539137044974
1932.13,78.04744274165702,78.89058563492173,84.79563691642124,82.42211740269025,72.65424088777064,81.04507860708782
1999.51,78.19727092129968,78.40638207683632,84.53287593392746,82.3144275611369,72.27260334640037,80.83902107223781
2069.82,79.45710656994008,76.56703371859007,85.48882455122153,83.17620732965231,72.86410612960047,81.55117299921706
2143.07,79.7868716268455,74.89791446836674,85.94464682438567,83.07513573628951,72.68293606430181,81.70684332273511
2219.24,79.11653433138004,73.87260971658297,85.68147859798617,82.84445230554947,72.78650749490923,81.38265995382153
2296.88,79.52514006190977,74.44841189703612,85.53995810187703,83.16457311776692,73.74244164257992,81.50136786124146
2378.91,79.71787750044088,75.53442627096612,85.4689901331946,83.30435278075292,73.23013138400528,81.56435303659161
2462.4,80.75265771264013,77.50707548395035,84.56054435399895,82.73274474685866,72.91363866668699,81.25950400257248
2548.83,81.10989320723053,77.64640164906854,85.08615892182877,83.38759589365476,73.39313778832181,81.75998676266276
2639.65,80.36592147451961,78.64881228725562,84.84483175844774,83.23755526774347,72.8930906732582,81.56787487927267
2731.93,79.98839199215423,79.46229147535948,84.25821113346306,82.86953185480597,72.46530571301275,81.24456184484286
2828.61,79.48216128255699,80.52568927886422,84.3933445926891,82.73463332130166,71.97421344729814,81.33591969278781
2928.22,79.93226011368388,80.93766983480683,84.5788748578802,82.78147205263589,71.59889974189545,81.54570204963959
3030.76,80.58131070333093,81.33313218720023,84.1797807916389,82.10744370064909,71.6438383703296,81.39322974561209
3137.7,80.0492192087569,81.947175489808,84.39370983083474,82.33363256778892,71.12313895952882,81.5644810006005
3249.02,80.55186931581191,82.10305249760579,84.39567978532388,82.16038588860958,71.54678436236445,81.641887206394
3363.28,81.2771776703561,82.42766220059424,83.77125600847069,81.96136852301031,71.19248458383983,81.56928260971013
3481.93,81.38129590817539,82.6395131218777,84.25357564526276,82.42938929774873,71.11116319009754,81.90469432442424
3604.98,82.10707076132556,82.5360079444177,83.81780238115736,82.27741628338256,71.42832132564392,81.84952539366735
3732.42,82.38195056881798,82.664082554118,83.83727222955923,82.52826101909551,70.13535704803083,81.98101922631638
3864.26,83.06481475804036,82.24199192833076,84.24657934718905,82.46717662004316,71.13647824410579,82.17715840461948
4000.49,83.46399377237358,82.35914163758515,83.71170605190947,82.26312898286592,70.23053007338629,82.08530565685503
4141.11,83.20551824627697,82.22075269131274,84.66082138468367,82.511700744393,70.61316207708617,82.34640516547914
4287.6,83.07858149015152,82.53669472830742,83.96972579744795,82.19944751381958,70.53665842498935,82.09087345862905
4438.48,83.44403334162689,82.66171900388171,84.5969346852599,82.19960979469208,69.73230149345069,82.40112673276369
4595.21,82.5485918245599,82.77921847754588,84.27297116812402,81.97032194391129,69.5963270626805,82.06000290626126
4756.35,82.5894126999561,82.82825247148826,84.28121581522909,81.41579398646708,68.6938364063575,81.9714403456317
4924.8,82.75147666658746,82.33142427040411,84.10091446672023,81.16922375926795,68.83442437541375,81.79046677670011
5097.66,83.99769331715054,81.9633531354355,84.52744388668674,81.53326869029478,68.79246139112563,82.26213300131253
5277.83,84.39529055409845,81.4798563223982,84.97807038561591,81.55542460776856,68.5684676110519,82.45818248754286
5463.87,84.13835757661221,81.08238042180461,85.45261150880064,81.63365189694883,69.32215374574874,82.51788710041805
5657.23,83.71422249057585,80.98009197805503,85.06129580916435,81.56337236286964,69.70328844933572,82.22144428100079
5856.45,83.53820807454231,81.07661935412075,84.83868273654107,81.39694814424324,68.88971860892185,82.06483857257221
6062.99,84.18922256765897,81.61695805633192,84.84658426841828,81.22231482571782,68.00855698130898,82.312468213754
6276.86,84.53281358157153,81.3089273934166,85.16999649835951,81.08632177917438,67.34263923336427,82.46421863384913
6498.05,84.58267924677129,81.16806580809791,85.22634632937563,81.17431981653066,67.90711462400053,82.4968042632143
6726.56,84.7013803193058,80.92740812762733,85.15777803509071,81.17421301686872,67.73547002027318,82.47447840211352
6963.87,84.52502964675226,80.83192273889169,84.88566465742743,80.84169699934654,66.17499331225069,82.24337731888552
7209.96,84.4947829147956,80.74989342636444,84.75409254867687,80.23976688795071,65.16892390336419,82.08511620886927
7464.84,84.43650694890952,80.86085034609721,84.72877490451344,80.01884280884609,64.8917731054554,82.04268009463836
7727.05,84.43357631897426,80.96594552327988,84.78747901988865,79.86870520435244,65.18597137990234,82.06241840905686
7999.51,84.1023115033211,80.56567377596292,84.71388588882799,79.77965702121548,64.35951101928654,81.8465484093688
8282.23,84.3035434682715,79.89164139433221,84.83744642946867,79.58688393838067,63.108156661433995,81.84402360056896
8573.73,84.02116024799501,79.38849867314,84.8941327492707,79.24660469257334,62.568228663067885,81.66592338276399
8876.95,83.9329297072347,78.94280256631477,84.9249078760659,79.13400123055867,61.65564563041555,81.58317699455246
9188.96,83.79462166841547,78.78133584159895,85.06219499311689,78.89824353654728,60.618932982451,81.5512605028504
9514.16,83.5136439846829,78.52652274956517,85.16939674019196,78.80654344425481,60.77852144856364,81.47230500977511
