Freq,Floor Bounce,Ceiling Bounce,Front Wall Bounce,Side Wall Bounce,Rear Wall Bounce,Total Early Reflection
23.6,61.15628902194078,58.484838970578124,59.441250584886035,58.47870747023272,55.891257428876784,59.01191860731306
24.3,61.1875006243844,58.51248373816999,59.4602371551655,58.49955005251387,55.906786538020285,59.03644005869313
25.0,61.21779632986859,58.53932486770418,59.47879863376316,58.51982750210742,55.92190338515819,59.060292154798844
25.8,61.251475483770335,58.56910372545522,59.499433663939115,58.54232197080454,55.93870257196208,59.08679699222721
26.5,61.28002223948957,58.59448054446406,59.51709761171415,58.561450618204304,55.952982401300815,59.10934681628514
27.2,61.307894457782695,58.619132383842796,59.53434566044652,58.58009798592333,55.966881848303984,59.13133858852474
28.0,61.3388923410964,58.64654287326785,59.55357343430482,58.600852944941195,55.982395870352505,59.15582077669771
29.0,61.37840826601341,58.681683875532116,59.57827911312499,58.627477827885755,56.00230108670779,59.18716053572783
30.0,61.423200910300565,58.72159507733049,59.60641019825259,58.65793135815909,56.02519970326172,59.22282093204865
30.7,61.45635701209267,58.751325393419776,59.62740699754819,58.68062691366099,56.04235295721104,59.249344388713894
31.5,61.494331141112085,58.785342858753054,59.651525712918556,58.70666745412315,56.06198395606633,59.27974805054086
32.5,61.54049492182067,58.82669014094384,59.68097481296854,58.7383127310853,56.0859551718366,59.31675747182939
33.5,61.58526266298675,58.86678307701614,59.709792924888305,58.76906865446986,56.109163108724246,59.35272582079648
34.5,61.62977572382789,58.90670126193726,59.73853752162657,58.799713277812415,56.13235877312731,59.38855488183454
35.5,61.676890695252524,58.9491896256019,59.769264585028864,58.83251864664743,56.157314266145306,59.42670338447479
36.5,61.727438996927646,58.99495297162568,59.80235564629028,58.8679556286104,56.18440293419367,59.467778700728786
37.5,61.77846371703396,59.041236297073496,59.83606950367388,58.90393184813507,56.21191327650777,59.50939216104021
38.7,61.83799166584335,59.09519636503866,59.87568193069869,58.945890186427405,56.24407039828799,59.558018491760635
40.0,61.90090911891839,59.15229064299139,59.91786449501271,58.99031624743556,56.278151072854854,59.60953846356209
41.2,61.960546765858496,59.2066330459394,59.958211278856055,59.03282808239385,56.310893441685735,59.65862350572638
42.5,62.029073948015096,59.26947006324889,60.00502424917191,59.082290921580594,56.3491649749932,59.71538487332684
43.7,62.09266007803444,59.327929402640635,60.04881581562444,59.12838869532375,56.38499913628169,59.76824487959014
45.0,62.15964302984871,59.38948061425927,60.09538402386842,59.17701838202768,56.42279516701667,59.82405662616945
46.2,62.2210622083975,59.445991964021886,60.1384674027334,59.22179430601166,56.45766371800603,59.87539967667415
47.5,62.28940409585272,59.50923198886757,60.18682242260918,59.27214626083031,56.497084209429474,59.93285365098903
48.7,62.354140203927486,59.569411555862956,60.233003146104735,59.32024934757722,56.53491311877012,59.98754204827428
50.0,62.4239002066043,59.63438885367752,60.283336078182145,59.372306222436194,56.57596349230407,60.04670414519977
51.5,62.50259716130188,59.70774480657262,60.34059563435248,59.43122424418533,56.622467647335284,60.11363404098596
53.0,62.58180371747831,59.78190692516287,60.39891764928285,59.491014222317105,56.66988683315866,60.18137027738044
54.5,62.662796522458606,59.85819082667045,60.45916558847772,59.55289052523264,56.71919633681179,60.25107120607581
56.0,62.7434622344778,59.934357236758686,60.519854468236005,59.61490167046422,56.76880424913564,60.32080519933808
58.0,62.8491799634042,60.03439026794547,60.600380850223985,59.69656277329942,56.834305181213026,60.41258992745776
60.0,62.95570292421874,60.135886444273055,60.68273183929722,59.779929846380796,56.90158243110251,60.50579276780813
61.5,63.035368477840166,60.212084439225535,60.74508895681187,59.8428173395766,56.952498117033414,60.57587977806699
63.0,63.11410033910501,60.287579035716334,60.8074661975441,59.90523288651127,57.003251107961475,60.645439299006654
65.0,63.218412063416835,60.3879719629748,60.89101849461109,59.98866352450861,57.071303602418865,60.738079263985114
67.0,63.32266218041647,60.48899382662914,60.975727400701984,60.07306053425056,57.14054158810906,60.83134924245799
69.0,63.42547842340089,60.58897633160696,61.06054110193331,60.15689447408441,57.20960446124796,60.92385924724675
71.0,63.527217197009136,60.688364092534655,61.14553447127861,60.240621152958056,57.27881880665542,61.015934165604406
73.0,63.628167028698954,60.78756925331916,61.23111321860533,60.324620283679636,57.348623208114475,61.10793401526918
75.0,63.72779551799131,60.88589627550898,61.3167976082121,60.4082246473031,57.418325263485684,61.19926748971422
77.5,63.85042530259217,61.00757420751928,61.42379699217146,60.51216909890637,57.50542798093947,61.31243280552988
80.0,63.9710414161858,61.12799789810717,61.5308042240557,60.61550665529285,57.5923920776648,61.42455784356399
82.5,64.08933125978473,61.24674311810509,61.63753082074096,60.71794118206061,57.67900789824006,61.5353204146527
85.0,64.20559118840269,61.36419185839907,61.74408532794759,60.81978546893602,57.76545588732256,61.64498309289546
87.5,64.31948631335545,61.47996140984053,61.85018315661854,60.92056224076637,57.851362470484545,61.75318177107985
90.0,64.43103706115012,61.59411974155498,61.95577535444286,61.02044493587381,57.936796940544625,61.859957488269046
92.5,64.5402845987048,61.70653798251841,62.06072220265382,61.11917201489278,58.02158296594743,61.96521199345399
95.0,64.64708122575699,61.81705875871292,62.16489727313008,61.216685062882746,58.10552440828211,62.06880857046991
97.5,64.75149282618212,61.9257766355217,62.26826438823524,61.31291181368242,58.18864233889485,62.17076938422851
100.0,64.85351643105673,62.032693196001844,62.37074730933573,61.407901845828704,58.270877672585456,62.27107993704195
103.0,64.97285805315023,62.158472786712565,62.492390043397975,61.52020632146767,58.36831741517521,62.38921995334837
106.0,65.08880238045239,62.28163938810272,62.612567359999204,61.63045839214732,58.46421953999413,62.50488664472883
109.0,65.2014131256064,62.40201982716518,62.731169739221286,61.73873062849603,58.55852554845805,62.618054078331355
112.0,65.31074916204714,62.519687320464314,62.848030644945766,61.84494827334889,58.651151597402375,62.72870387489016
115.0,65.41690612483963,62.63464875863481,62.96311955843716,61.94907971820122,58.74200625973084,62.83685312115078
118.0,65.51998020044262,62.746987531477416,63.076400109026594,62.05115048380749,58.83101719770859,62.942543616249466
122.0,65.65266860285848,62.8926536968726,63.22449716301321,62.183945135452134,58.946783110268555,63.07960526577848
125.0,65.7488223274493,62.99884105828269,63.33331899928157,62.28105210391172,59.03133292044012,63.17956536274738
128.0,65.84214724526977,63.10247884313988,63.44011193331511,62.376093109619845,59.11387310896187,63.27711436230845
132.0,65.96235430374023,63.2367642770415,63.579362284722706,62.49956647635149,59.22075360859104,63.40349980972945
136.0,66.07813613231026,63.36667758202468,63.7151074467822,62.61940332668895,59.324038319616605,63.525874393369136
140.0,66.18965594446028,63.492362225643646,63.84718447226864,62.73564109896904,59.42358852339437,63.64428666909066
145.0,66.32322901245573,63.64348552455276,64.0069672679546,62.87588963403515,59.542609079170845,63.786740592650744
150.0,66.45103088112062,63.788388243576094,64.16108070829391,63.01069563389284,59.65578168769406,63.92343933673244
155.0,66.57344390200014,63.927240991413996,64.30964910839208,63.14034747916608,59.76316707979382,64.05463001485865
160.0,66.69101849392693,64.06025092840032,64.45259959276375,63.26493053101731,59.86472516267078,64.18054386357083
165.0,66.80403859655628,64.18762087866578,64.59011426956768,63.38465868968795,59.96057937099795,64.301402449741
170.0,66.91288732065964,64.30937761273894,64.72216847876831,63.49964013998304,60.05061026831876,64.41734896769165
175.0,67.01781716835676,64.42564040985344,64.84883604930299,63.60994341224662,60.134776420975925,64.52851828041588
180.0,67.11917991112628,64.53648486533957,64.97021418999363,63.71580065706398,60.213243851715816,64.63511861116133
185.0,67.21723137769928,64.64222313558345,65.08669280522174,63.81748274768303,60.28629592845422,64.73744845346043
190.0,67.31216200968085,64.74287816734004,65.19834631434996,63.915090803173925,60.35408484177303,64.83562192978853
195.0,67.40416448889731,64.83864593004436,65.30534936206936,64.00887229887347,60.41675619265642,64.92983305994532
200.0,67.49329979853756,64.92942278855078,65.40782394015882,64.09884180381134,60.474253870593486,65.02010780333417
206.0,67.59656376021657,65.03183400398062,65.52497289682306,64.20198372488404,60.536601040961344,65.12336661357199
212.0,67.69592097679045,65.12727195529818,65.63612213257657,64.3001463430508,60.59210037628283,65.22131827415053
218.0,67.79140521247274,65.2158900313149,65.74168044851628,64.39359609409429,60.64099032302609,65.31415684679108
224.0,67.88298745207442,65.29782304330539,65.84184557365488,64.48251057384464,60.68352274524402,65.40199158302048
230.0,67.97070538057717,65.37315299158765,65.93691653453472,64.56707301432388,60.720015634220374,65.48497331456221
236.0,68.05443136967445,65.44192833330587,66.02710216152425,64.64743790636773,60.75067301200197,65.56315594556135
243.0,68.14710617449693,65.51425799659596,66.12663215492462,64.73620451048244,60.779551197948265,65.64858891762151
250.0,68.23450446612122,65.57855595218115,66.22043957192261,64.81985173887622,60.801639039013935,65.72811164856718
258.0,68.32794175250307,65.64266424826222,66.32121195580049,64.909535887776,60.81912928762061,65.81208341862113
265.0,68.40410056028307,65.69089228723858,66.40394666893532,64.98295423942109,60.82795944658929,65.87968111856766
272.0,68.47515311875307,65.73228167420778,66.48191318486059,65.0517835799704,60.83115725991493,65.94205620743924
280.0,68.55051751731354,65.7722147171898,66.56561139057295,65.12519918938679,60.82868842057643,66.00750062242149
290.0,68.63685082348846,65.81288419740298,66.66294646996523,65.20961729574576,60.81775717947892,66.0815657097762
300.0,68.71563347657529,65.84539255563779,66.75286209348067,65.28645098481478,60.79953643074761,66.14819844388323
307.0,68.7667410239267,65.86430029597608,66.81155246779458,65.3358166678465,60.78290167648608,66.1908495569693
315.0,68.82146289847768,65.88296651522812,66.87446062824567,65.38770892591255,60.7602811535663,66.23591194836625
325.0,68.88541195820231,65.90375276387778,66.94751346790292,65.44654524196548,60.72801648435225,66.28780177486092
335.0,68.94523206328681,65.923457603272,67.01471319693214,65.49901000934312,60.692422805518575,66.3355565627869
345.0,69.00139040232547,65.94344749790625,67.07634303013111,65.54521400391768,60.65427590868178,66.37969894438781
355.0,69.05419177982645,65.96480880103609,67.13262286710632,65.58541972397366,60.61434998313679,66.42064911957631
365.0,69.10358028995748,65.98797846352684,67.18387938725182,65.61988202554303,60.57345484107894,66.45860349360562
375.0,69.14916838019225,66.01287451803675,67.2302674836985,65.64867322788317,60.53195477904167,66.49345118307899
387.0,69.19813309180891,66.0442763962513,67.27967336913012,65.67581439034338,60.48180825812915,66.53081597878676
400.0,69.24303692186528,66.0779597428394,67.32591551853984,65.69654320101137,60.42743212816721,66.56518582498137
412.0,69.27563627627003,66.10579220548628,67.36214457526778,65.70767906161828,60.377009503495984,66.59028415665502
425.0,69.30018337167009,66.12891899828828,67.39448317676288,65.71100490971345,60.321608548899974,66.60919241611128
437.0,69.31193533173764,66.13985577679567,67.41816819256336,65.70592775027978,60.26907573070322,66.61792892021982
450.0,69.312177557281,66.13671263974894,67.43746728560104,65.69155831518508,60.20963314524907,66.61704444546736
462.0,69.30057289599277,66.1164147634692,67.44968064956036,65.67004058059088,60.15149244347002,66.60593719493428
475.0,69.27544241266052,66.07262371557341,67.45717341154817,65.63772022702152,60.0839428622926,66.58236467633316
487.0,69.24132543000115,66.01018437845978,67.45931709814472,65.59966163418053,60.01643543787456,66.55001039863164
500.0,69.19369223882136,65.91756120313029,67.45685471291537,65.54969174984842,59.936930544100974,66.50388185929019
515.0,69.12854049778035,65.78122644849091,67.44914044911998,65.48192330284472,59.83682573750616,66.43883912327485
530.0,69.05693465144104,65.61824132681858,67.43733546270944,65.40473721565239,59.727810560829155,66.36436185917559
545.0,68.9844212894232,65.43685464652299,67.42267093360452,65.31959505731832,59.610178540616246,66.28467484326028
560.0,68.91770720753361,65.24990631566023,67.40649890839813,65.22877192670785,59.484618570200794,66.20528036654555
580.0,68.84655485567485,65.01707315823512,67.3847691844385,65.10397987568297,59.30877551811453,66.10877186884426
600.0,68.80265050438545,64.83352965554865,67.36540158110363,64.98142922183881,59.1280584110051,66.03197451153116
615.0,68.78941055699967,64.74589951881401,67.35372643552274,64.89504740824505,58.99201592543075,65.99155211608569
630.0,68.79179519194314,64.71188237347991,67.34547978450767,64.81687701913788,58.85753681472174,65.96773186352495
650.0,68.81000539055019,64.74104722249605,67.34007226750856,64.72832263270442,58.684385764883814,65.95755714197239
670.0,68.83363955611173,64.83579174645017,67.34110579376535,64.660122026188,58.521441215510634,65.96526240157502
690.0,68.85270646710016,64.96828031457454,67.34799452776139,64.61285657055559,58.37071950293988,65.98296273873585
710.0,68.86026059080535,65.1062941403524,67.35959701062971,64.58447405154179,58.233055323305805,66.002407891424
730.0,68.85522424200113,65.22323610410268,67.37441572887597,64.57079996578766,58.108013621672924,66.0176911736316
750.0,68.84148349363115,65.30039464802219,67.39082353209137,64.56624455843732,57.993802026787435,66.02556983738539
775.0,68.8233709856632,65.33514974124556,67.41115304650826,64.56422271949594,57.86188219164511,66.02576531548195
800.0,68.81805165158814,65.31400052398503,67.42896443390288,64.55684303666693,57.735262298252266,66.02018616390973
825.0,68.83348848364024,65.26371642248606,67.4428444711992,64.5370745287505,57.606284648406785,66.01483214923944
850.0,68.86541890518345,65.21821499428805,67.4527811717718,64.50165721476337,57.46802970962237,66.01330087021152
875.0,68.89816119735961,65.20301666396969,67.45986134224542,64.45125386620585,57.316398778247844,66.01418195492748
900.0,68.91199662006544,65.22631360424478,67.46584928504399,64.38939978295849,57.151082364555094,66.01216405451149
925.0,68.89237669678423,65.27823361828855,67.47224781497617,64.32063548870524,56.97577833398513,66.00116655176306
950.0,68.83702577456947,65.3382781791557,67.47989381659788,64.2495545728837,56.79702549067352,65.97812678323757
975.0,68.7576793551956,65.38652396556552,67.48857409919646,64.17947279184507,56.62147553774129,65.94496348950246
1000.0,68.67751613595951,65.41179879145334,67.49677809788083,64.11182404731309,56.453307225525535,65.90845796844722
1030.0,68.61258903887317,65.41613263241551,67.50259757584213,64.03346062960588,56.260929840195786,65.87183503416934
1060.0,68.60284577943318,65.41149623765607,67.4989660120666,63.955808720854606,56.07267339982471,65.85213018586367
1090.0,68.63911309964543,65.41710478423605,67.4807703101633,63.87611494455034,55.88113295021623,65.84740963612457
1120.0,68.68222592011861,65.43501729541734,67.44505796526404,63.79281312495648,55.683256996931846,65.84239758616945
1150.0,68.68517813523677,65.44458622535049,67.39222422188702,63.70592674688959,55.48237243408785,65.81548712243162
1180.0,68.61589122859321,65.40880696692899,67.32564142082738,63.616139724274646,55.287051789145224,65.74833667197235
1220.0,68.42337246008327,65.25637828616428,67.22592202833819,63.49394037543901,55.0489094296001,65.59789877829009
1250.0,68.24249477510594,65.0601321116959,67.15079746752765,63.40079918975594,54.89390928573751,65.456529271143
1280.0,68.0650262107622,64.81671209588663,67.07993332409451,63.30649531942184,54.75888810954247,65.310095021171
1320.0,67.86036314081288,64.4968057932685,66.99445271540768,63.18264516146586,54.596187474427765,65.13239726079017
1360.0,67.65771218824297,64.24152919573388,66.91856714794473,63.06976904066477,54.43454164040439,64.9723073109924
1400.0,67.38309579316606,64.02142650378256,66.85153226049479,62.98105710805211,54.26242862532774,64.7986932099754
1450.0,66.90197046584787,63.66078857482928,66.7813766824859,62.912267527793944,54.040654628496625,64.53254140739251
1500.0,66.36196555526556,63.08574504328031,66.73041239900935,62.87869308179991,53.84118211406533,64.23404313661315
1550.0,65.89178564473768,62.33823841923446,66.69871650603373,62.85259350077639,53.68819042194568,63.95668592554986
1600.0,65.48089494780288,61.552409302955525,66.67864994132724,62.814996819499044,53.57685215971864,63.71311042934046
1650.0,65.00347716412027,60.75066935295705,66.66356150580037,62.77597723827341,53.47767661216133,63.467222214395704
1700.0,64.42806459566474,59.79213726258345,66.65579625757535,62.76211721117792,53.36705593158901,63.20618556058335
1750.0,63.88761332773545,58.5588802183598,66.6639631142082,62.785984937740395,53.2483644745777,62.97305986055622
1800.0,63.489346595654084,57.17869144565772,66.69433583817924,62.83391954003115,53.14253068213071,62.81184063495057
1850.0,63.15201500564672,56.016934864685524,66.74652106698194,62.884092809956755,53.06377194622901,62.71326589565906
1900.0,62.72912190914727,55.37107430953871,66.81898034455561,62.93002151298769,53.01054419992106,62.64331164229958
1950.0,62.232323429537104,55.24424402267678,66.91220140870087,62.98150345322988,52.97818023329266,62.60232824805469
2000.0,61.83059240319977,55.45118646820593,67.02288856896931,63.0450004487934,52.972118131000585,62.613941124493024
2060.0,61.60725272279909,55.96718235105088,67.1624504540509,63.122685517598,53.002547548011904,62.69416497569425
2120.0,61.58645886513226,56.79910448313943,67.29053690952,63.17840944948702,53.05930292236036,62.81456313938865
2180.0,61.66914508536682,58.02076121724549,67.40913396220165,63.215320488646114,53.12733987191467,62.97179867805251
2240.0,61.83730379041218,59.36112311839754,67.53670904730016,63.259217825283685,53.2139891007013,63.17584933494709
2300.0,62.07784991143471,60.441636764243626,67.68049442829282,63.32577889077771,53.33155414358093,63.4039235409772
2360.0,62.382170635676616,61.328358991436275,67.82388623617517,63.41456558851493,53.465144446220435,63.641569825656404
2430.0,62.82067991101384,62.43851539233805,67.96809307209698,63.5501979140132,53.605675954258444,63.953389214501286
2500.0,63.31731734763322,63.55948644320286,68.09110838928503,63.733224170164775,53.72419125619105,64.29991192707108
2580.0,63.91908609116136,64.55966269988754,68.22699387053417,63.986826551102155,53.86360372255565,64.68899988105953
2650.0,64.42806088165209,65.27212872062609,68.34512494210986,64.21346611848779,53.99534936213679,65.01323524131111
2720.0,64.84060623324366,65.88973156737399,68.45940649212538,64.42602916675938,54.12409883507708,65.30774126326529
2800.0,65.22864602082534,66.4132212561314,68.5862009965003,64.6411991454816,54.25564593717817,65.58972669231783
2900.0,65.685595056541,66.85730740077527,68.73801876829805,64.86185328561275,54.40053307469094,65.88158187731318
3000.0,65.92174669561913,67.11307793639362,68.87530613287795,65.04116058476588,54.55933901003536,66.074684867341
3070.0,65.98657867516636,67.11451398033621,68.95694351995277,65.1512137343636,54.67528089683728,66.13783879787792
3150.0,65.95620008199909,67.05436474174111,69.01877269938235,65.25435823670811,54.775281162042575,66.1588945579506
3250.0,65.84279288848929,66.99423818394779,69.03864114446918,65.32886902349973,54.84104740985687,66.14368671650193
3350.0,65.83034970159744,66.92353151271973,69.01256342500369,65.3181718494737,54.85203373092759,66.11245904658291
3450.0,65.87499503257733,66.94999405371291,68.96361050391236,65.201451729615,54.76871033075727,66.08779699735516
