Freq "Rear Wall Bounce"
23.6 57.44010299849701
24.3 57.45563210764051
25.0 57.470748954778415
25.8 57.48754814158231
26.5 57.50182797092104
27.2 57.51572741792421
28.0 57.53124143997273
29.0 57.551146656328015
30.0 57.574045272881946
30.7 57.59119852683126
31.5 57.610829525686555
32.5 57.63480074145683
33.5 57.65800867834447
34.5 57.681204342747534
35.5 57.70615983576553
36.5 57.7332485038139
37.5 57.760758846128
38.7 57.792915967908215
40.0 57.82699664247508
41.2 57.85973901130596
42.5 57.89801054461343
43.7 57.93384470590192
45.0 57.9716407366369
46.2 58.00650928762626
47.5 58.0459297790497
48.7 58.08375868839035
50.0 58.124809061924296
51.5 58.17131321695551
53.0 58.21873240277888
54.5 58.26804190643202
56.0 58.31764981875587
58.0 58.38315075083325
60.0 58.45042800072274
61.5 58.50134368665364
63.0 58.5520966775817
65.0 58.62014917203909
67.0 58.689387157729286
69.0 58.75845003086819
71.0 58.82766437627565
73.0 58.8974687777347
75.0 58.96717083310591
77.5 59.0542735505597
80.0 59.141237647285024
82.5 59.227853467860285
85.0 59.314301456942786
87.5 59.40020804010477
90.0 59.48564251016485
92.5 59.57042853556766
95.0 59.654369977902334
97.5 59.73748790851508
100.0 59.81972324220568
103.0 59.91716298479544
106.0 60.01306510961436
109.0 60.10737111807828
112.0 60.1999971670226
115.0 60.29085182935107
118.0 60.37986276732882
122.0 60.49562867988878
125.0 60.58017849006035
128.0 60.662718678582095
132.0 60.769599178211266
136.0 60.87288388923683
140.0 60.9724340930146
145.0 61.09145464879107
150.0 61.204627257314286
155.0 61.312012649414044
160.0 61.41357073229101
165.0 61.509424940618175
170.0 61.59945583793899
175.0 61.68362199059615
180.0 61.76208942133604
185.0 61.83514149807445
190.0 61.90293041139326
195.0 61.96560176227665
200.0 62.02309944021371
206.0 62.08544661058157
212.0 62.140945945903056
218.0 62.189835892646315
224.0 62.232368314864246
230.0 62.2688612038406
236.0 62.299518581622195
243.0 62.32839676756849
250.0 62.35048460863416
258.0 62.36797485724084
265.0 62.37680501620952
272.0 62.38000282953516
280.0 62.37753399019665
290.0 62.366602749099144
300.0 62.348382000367835
307.0 62.3317472461063
315.0 62.30912672318652
325.0 62.27686205397248
335.0 62.2412683751388
345.0 62.20312147830201
355.0 62.16319555275702
365.0 62.12230041069917
375.0 62.080800348661896
387.0 62.030653827749376
400.0 61.97627769778744
412.0 61.92585507311621
425.0 61.8704541185202
437.0 61.81792130032345
450.0 61.7584787148693
462.0 61.700338013090246
475.0 61.63278843191283
487.0 61.56528100749479
500.0 61.4857761137212
515.0 61.38567130712639
530.0 61.27665613044938
545.0 61.15902411023647
560.0 61.03346413982102
580.0 60.857621087734756
600.0 60.676903980625326
615.0 60.540861495050976
630.0 60.40638238434197
650.0 60.23323133450404
670.0 60.07028678513086
690.0 59.919565072560104
710.0 59.78190089292603
730.0 59.65685919129315
750.0 59.54264759640766
775.0 59.410727761265335
800.0 59.28410786787249
825.0 59.15513021802701
850.0 59.0168752792426
875.0 58.86524434786807
900.0 58.69992793417532
925.0 58.52462390360536
950.0 58.345871060293746
975.0 58.17032110736152
1000.0 58.00215279514576
1030.0 57.80977540981601
1060.0 57.621518969444935
1090.0 57.42997851983645
1120.0 57.23210256655207
1150.0 57.03121800370808
1180.0 56.83589735876545
1220.0 56.59775499922033
1250.0 56.442754855357734
1280.0 56.307733679162695
1320.0 56.14503304404799
1360.0 55.98338721002462
1400.0 55.81127419494797
1450.0 55.58950019811685
1500.0 55.39002768368556
1550.0 55.237035991565904
1600.0 55.12569772933887
1650.0 55.02652218178156
1700.0 54.915901501209234
1750.0 54.797210044197925
1800.0 54.69137625175094
1850.0 54.61261751584924
1900.0 54.55938976954128
1950.0 54.52702580291289
2000.0 54.52096370062081
2060.0 54.55139311763213
2120.0 54.608148491980586
2180.0 54.6761854415349
2240.0 54.762834670321524
2300.0 54.88039971320116
2360.0 55.01399001584066
2430.0 55.15452152387867
2500.0 55.273036825811275
2580.0 55.41244929217588
2650.0 55.54419493175702
2720.0 55.672944404697304
2800.0 55.8044915067984
2900.0 55.94937864431117
3000.0 56.108184579655585
3070.0 56.224126466457506
3150.0 56.3241267316628
3250.0 56.389892979477096
3350.0 56.400879300547814
3450.0 56.3175559003775
3550.0 56.17737835809952
3650.0 56.009294084737846
3750.0 55.86842907204324
3870.0 55.94755028909192
4000.0 56.4158561162164
4120.0 56.89853799075223
4250.0 57.160923709214885
4370.0 57.02252133845589
4500.0 56.55926036013024
4620.0 56.02725440596747
4750.0 55.407175875872994
4870.0 54.83387475375338
5000.0 54.298854514192655
5150.0 53.918484336871956
5300.0 53.806550736268974
5450.0 53.81891338239056
5600.0 53.7389907279953
5800.0 53.169968093640236
6000.0 51.95259456111691
6150.0 50.897393766222976
6300.0 50.0851413059021
6500.0 49.58924819531403
6700.0 49.45521967206432
6900.0 49.217614184126305
7100.0 48.70311977369177
7300.0 47.91453619960923
7500.0 47.01452310554188
7750.0 46.05484192367051
8000.0 45.183790051063525
8250.0 44.37508773636692
8500.0 43.663531702625036
8750.0 42.9326730691392
9000.0 42.48581566885842
9250.0 42.26733811003625
9500.0 42.08987042447386
9750.0 42.22008622634901
10000.0 42.56494245978898
10300.0 42.73284665912125
10600.0 42.78930283673124
10900.0 43.107314991286316
11200.0 43.14290006047689
11500.0 42.64523799776795
11800.0 42.13964229844974
12200.0 41.580735064329374
12500.0 40.605177134046286
12800.0 39.12775323279449
13200.0 37.28394278554016
13600.0 36.851159957847514
14000.0 38.13952181980427
14500.0 39.89721912551458
15000.0 40.481446570220655
15500.0 40.550808804333585
16000.0 40.69427783279248
16500.0 40.956386216737556
17000.0 40.438825865890735
17500.0 38.86063033976218
18000.0 35.87036055391526
18500.0 31.360309005039866
19000.0 29.216551514565438
19500.0 33.16887507586513
