Freq "Rear Wall Bounce"
23.6 55.891257428876784
24.3 55.906786538020285
25.0 55.92190338515819
25.8 55.93870257196208
26.5 55.952982401300815
27.2 55.966881848303984
28.0 55.982395870352505
29.0 56.00230108670779
30.0 56.02519970326172
30.7 56.04235295721104
31.5 56.06198395606633
32.5 56.0859551718366
33.5 56.109163108724246
34.5 56.13235877312731
35.5 56.157314266145306
36.5 56.18440293419367
37.5 56.21191327650777
38.7 56.24407039828799
40.0 56.278151072854854
41.2 56.310893441685735
42.5 56.3491649749932
43.7 56.38499913628169
45.0 56.42279516701667
46.2 56.45766371800603
47.5 56.497084209429474
48.7 56.53491311877012
50.0 56.57596349230407
51.5 56.622467647335284
53.0 56.66988683315866
54.5 56.71919633681179
56.0 56.76880424913564
58.0 56.834305181213026
60.0 56.90158243110251
61.5 56.952498117033414
63.0 57.003251107961475
65.0 57.071303602418865
67.0 57.14054158810906
69.0 57.20960446124796
71.0 57.27881880665542
73.0 57.348623208114475
75.0 57.418325263485684
77.5 57.50542798093947
80.0 57.5923920776648
82.5 57.67900789824006
85.0 57.76545588732256
87.5 57.851362470484545
90.0 57.936796940544625
92.5 58.02158296594743
95.0 58.10552440828211
97.5 58.18864233889485
100.0 58.270877672585456
103.0 58.36831741517521
106.0 58.46421953999413
109.0 58.55852554845805
112.0 58.651151597402375
115.0 58.74200625973084
118.0 58.83101719770859
122.0 58.946783110268555
125.0 59.03133292044012
128.0 59.11387310896187
132.0 59.22075360859104
136.0 59.324038319616605
140.0 59.42358852339437
145.0 59.542609079170845
150.0 59.65578168769406
155.0 59.76316707979382
160.0 59.86472516267078
165.0 59.96057937099795
170.0 60.05061026831876
175.0 60.134776420975925
180.0 60.213243851715816
185.0 60.28629592845422
190.0 60.35408484177303
195.0 60.41675619265642
200.0 60.474253870593486
206.0 60.536601040961344
212.0 60.59210037628283
218.0 60.64099032302609
224.0 60.68352274524402
230.0 60.720015634220374
236.0 60.75067301200197
243.0 60.779551197948265
250.0 60.801639039013935
258.0 60.81912928762061
265.0 60.82795944658929
272.0 60.83115725991493
280.0 60.82868842057643
290.0 60.81775717947892
300.0 60.79953643074761
307.0 60.78290167648608
315.0 60.7602811535663
325.0 60.72801648435225
335.0 60.692422805518575
345.0 60.65427590868178
355.0 60.61434998313679
365.0 60.57345484107894
375.0 60.53195477904167
387.0 60.48180825812915
400.0 60.42743212816721
412.0 60.377009503495984
425.0 60.321608548899974
437.0 60.26907573070322
450.0 60.20963314524907
462.0 60.15149244347002
475.0 60.0839428622926
487.0 60.01643543787456
500.0 59.936930544100974
515.0 59.83682573750616
530.0 59.727810560829155
545.0 59.610178540616246
560.0 59.484618570200794
580.0 59.30877551811453
600.0 59.1280584110051
615.0 58.99201592543075
630.0 58.85753681472174
650.0 58.684385764883814
670.0 58.521441215510634
690.0 58.37071950293988
710.0 58.233055323305805
730.0 58.108013621672924
750.0 57.993802026787435
775.0 57.86188219164511
800.0 57.735262298252266
825.0 57.606284648406785
850.0 57.46802970962237
875.0 57.316398778247844
900.0 57.151082364555094
925.0 56.97577833398513
950.0 56.79702549067352
975.0 56.62147553774129
1000.0 56.453307225525535
1030.0 56.260929840195786
1060.0 56.07267339982471
1090.0 55.88113295021623
1120.0 55.683256996931846
1150.0 55.48237243408785
1180.0 55.287051789145224
1220.0 55.0489094296001
1250.0 54.89390928573751
1280.0 54.75888810954247
1320.0 54.596187474427765
1360.0 54.43454164040439
1400.0 54.26242862532774
1450.0 54.040654628496625
1500.0 53.84118211406533
1550.0 53.68819042194568
1600.0 53.57685215971864
1650.0 53.47767661216133
1700.0 53.36705593158901
1750.0 53.2483644745777
1800.0 53.14253068213071
1850.0 53.06377194622901
1900.0 53.01054419992106
1950.0 52.97818023329266
2000.0 52.972118131000585
2060.0 53.002547548011904
2120.0 53.05930292236036
2180.0 53.12733987191467
2240.0 53.2139891007013
2300.0 53.33155414358093
2360.0 53.465144446220435
2430.0 53.605675954258444
2500.0 53.72419125619105
2580.0 53.86360372255565
2650.0 53.99534936213679
2720.0 54.12409883507708
2800.0 54.25564593717817
2900.0 54.40053307469094
3000.0 54.55933901003536
3070.0 54.67528089683728
3150.0 54.775281162042575
3250.0 54.84104740985687
3350.0 54.85203373092759
3450.0 54.76871033075727
3550.0 54.62853278847929
3650.0 54.46044851511762
3750.0 54.319583502423015
3870.0 54.398704719471695
4000.0 54.86701054659618
4120.0 55.349692421132005
4250.0 55.61207813959466
4370.0 55.47367576883566
4500.0 55.01041479051001
4620.0 54.47840883634724
4750.0 53.85833030625277
4870.0 53.28502918413315
5000.0 52.75000894457243
5150.0 52.36963876725173
5300.0 52.25770516664875
5450.0 52.270067812770336
5600.0 52.190145158375074
5800.0 51.62112252402001
6000.0 50.403748991496684
6150.0 49.34854819660275
6300.0 48.53629573628187
6500.0 48.0404026256938
6700.0 47.90637410244409
6900.0 47.66876861450608
7100.0 47.15427420407154
7300.0 46.365690629989004
7500.0 45.46567753592166
7750.0 44.50599635405028
8000.0 43.6349444814433
8250.0 42.826242166746695
8500.0 42.11468613300481
8750.0 41.38382749951897
9000.0 40.936970099238195
9250.0 40.71849254041602
9500.0 40.54102485485363
9750.0 40.671240656728784
10000.0 41.016096890168754
10300.0 41.184001089501024
10600.0 41.24045726711101
10900.0 41.55846942166609
11200.0 41.594054490856664
11500.0 41.09639242814772
11800.0 40.59079672882952
12200.0 40.03188949470915
12500.0 39.05633156442606
12800.0 37.57890766317426
13200.0 35.735097215919936
13600.0 35.30231438822729
14000.0 36.590676250184046
14500.0 38.348373555894355
15000.0 38.93260100060043
15500.0 39.00196323471336
16000.0 39.14543226317225
16500.0 39.40754064711733
17000.0 38.88998029627051
17500.0 37.311784770141955
18000.0 34.321514984295035
18500.0 29.81146343541964
19000.0 27.66770594494521
19500.0 31.620029506244904
