Freq "Estimated In-Room Response"
22.4 10.065894072798812
23.0 12.892787712270376
23.6 15.705105565335714
24.0 18.462320806010666
25.0 20.80784489790949
25.8 22.87665257529352
26.5 24.91096026064369
27.2 27.459482178632157
28.0 29.770731164244694
29.0 31.789120870882783
30.0 33.731816008488124
30.7 35.73508792175443
31.5 37.052674968200336
32.5 37.62432993525195
33.5 40.31417489793006
34.5 43.93785210510899
35.5 49.59744437756848
36.5 52.605975523714534
37.5 52.81950167941727
38.7 49.53447411382527
40.0 49.45709283046244
41.2 51.05101815720349
42.5 53.410645687244426
43.7 56.28302862978663
45.0 59.36094163548486
46.2 62.82997691961475
47.5 64.75834532140118
48.7 64.22608387961381
50.0 65.83504043963245
51.5 68.75113578989588
53.0 71.80291727393454
54.5 71.80820360305574
56.0 73.09657357618153
58.0 75.22903162344056
60.0 77.11163626194244
61.5 78.96272732249503
63.0 80.96441926019207
65.0 82.9808236161118
67.0 84.74686674548836
69.0 86.30113036414737
71.0 87.63936192565893
73.0 88.7644833570685
75.0 89.67386338265874
77.5 90.38701740487657
80.0 90.91490864740972
82.5 91.36192587881244
85.0 91.72058530066118
87.5 92.02118084021618
90.0 92.35680852992022
92.5 92.64811587008064
95.0 92.8815042568186
97.5 93.02072401851485
100.0 93.15092666084587
103.0 93.24484073380523
106.0 93.30093440591065
109.0 93.25015026658724
112.0 93.1718424236189
115.0 92.91218363694668
118.0 92.48893130790837
122.0 92.27035146522459
125.0 92.19838171957156
128.0 92.10539440813497
132.0 91.99226083819352
136.0 92.0550232670997
140.0 92.07736132945595
145.0 92.05244715882694
150.0 91.98468949454929
155.0 91.91262591133776
160.0 91.79796254545175
165.0 91.6349544747624
170.0 91.4549982460849
175.0 91.32013963045605
180.0 91.16318765521332
185.0 91.04065233586046
190.0 90.89267689858784
195.0 90.79321146850205
200.0 90.68617472578293
206.0 90.6376662332032
212.0 90.63311018774574
218.0 90.68900984797027
224.0 90.7188235046903
230.0 90.69871953969778
236.0 90.48051091304987
240.0 90.12407264000028
250.0 89.79619480560189
258.0 89.71480271617538
265.0 89.80730160345527
272.0 90.1267912094436
280.0 90.27689451304326
290.0 90.21428864465904
300.0 90.44053496625321
307.0 90.3798636927696
315.0 89.81577351725775
325.0 89.52801866673136
335.0 89.34835028893967
345.0 89.23186645266469
355.0 89.12914019817492
365.0 89.15933803876528
375.0 89.13418242104673
387.0 88.87823144526692
400.0 88.30929767342482
412.0 87.43872624601981
425.0 86.44540398927309
437.0 85.4195755426625
450.0 84.6266788688842
462.0 84.70514883950027
475.0 86.20755616226938
487.0 85.75805236763098
500.0 86.36867182612608
515.0 87.03588810673199
530.0 87.58019449613005
545.0 87.44827816482689
560.0 86.69986970112562
580.0 85.8962831224197
600.0 85.34343090191942
615.0 85.21366114325875
630.0 85.6161966792
650.0 86.16708581059494
670.0 86.51333341553774
690.0 86.5176218607051
710.0 86.0999806220899
730.0 85.46792439470967
750.0 85.1442642990335
775.0 84.86112262717904
800.0 84.5018448858346
825.0 83.84488754259823
850.0 83.34422434242224
875.0 83.07972666315095
900.0 83.04333497451496
925.0 82.84681747451017
950.0 82.3625399777609
975.0 82.17166251097818
1000.0 82.4193839398778
1030.0 82.86043675858674
1060.0 83.28716972261036
1090.0 83.63981030656797
1120.0 84.22071455642524
1150.0 84.40083902472661
1180.0 84.86915561255242
1220.0 85.04779276104539
1250.0 84.70636776363716
1280.0 84.56787295708328
1320.0 85.2521721642066
1360.0 86.53507242094022
1400.0 86.88193207112977
1450.0 86.72528054751791
1500.0 86.23929506162919
1550.0 85.86480312543381
1600.0 86.1393679565022
1650.0 86.43114397908975
1700.0 86.03252247364861
1750.0 85.30667977700071
1800.0 84.64641787853475
1850.0 84.21947506407786
1900.0 84.5822831976736
1950.0 84.75745799672583
2000.0 84.69228014610064
2060.0 84.98564403203733
2120.0 85.88320083406946
2180.0 86.09774074527796
2240.0 85.98429433249265
2300.0 85.66196682853675
2360.0 85.11282335408697
2400.0 84.79001356563884
2500.0 84.03213900345763
2580.0 83.23807360706705
2650.0 83.41229906887749
2720.0 84.4309484711581
2800.0 85.14133294722117
2900.0 85.98851363938644
3000.0 86.91980226229995
3070.0 86.58300147577914
3150.0 85.55611060273378
3250.0 84.98473326637404
3350.0 83.98757401004588
3450.0 83.7453292341205
3550.0 84.68399752116267
3650.0 85.42271517136884
3750.0 85.56725666371302
3870.0 85.11854673424348
4000.0 84.64744053899886
4120.0 84.62566380914203
4250.0 84.61904524681472
4370.0 85.08144293588175
4500.0 84.87161082046228
4620.0 85.47429094678859
4750.0 84.74580187240706
4870.0 84.22635341832338
5000.0 84.07088970774946
5150.0 85.07934111843724
5300.0 85.04061786846745
5450.0 84.984555878979
5600.0 85.02889388444402
5800.0 84.65804159008744
6000.0 84.89327499274779
6150.0 84.46821117182392
6300.0 84.34662354260675
6500.0 84.13904936361166
6700.0 84.54567332257982
6900.0 85.09654655018353
7100.0 85.33544159288724
7300.0 84.92848849799604
7500.0 84.9379707339337
7750.0 85.5227533108388
8000.0 85.7475701600742
8250.0 86.06823260376014
8500.0 86.50555709581839
8750.0 86.69219476533598
9000.0 87.03954416790135
9250.0 87.22147985903662
9500.0 87.61928696402809
9750.0 87.7431090080847
10000.0 88.0053897165394
10300.0 88.13359014554305
10600.0 88.45567559055937
10900.0 88.82010671594867
11200.0 88.99266598051516
11500.0 88.85171026801754
11800.0 88.06657072264011
12200.0 87.53313391200703
12500.0 86.81559051449003
12800.0 86.12443974464577
13200.0 85.6064577154317
13600.0 82.84567546297065
14000.0 81.78801705099409
14500.0 79.37123162228468
15000.0 77.84830827850377
15500.0 76.98909317910109
16000.0 75.86981290213302
16500.0 76.41997167779203
17000.0 83.33781840657244
17500.0 74.07366526195426
18000.0 68.50096195286086
18500.0 67.63189158554928
19000.0 65.34515630825987
19500.0 63.341299102124395
