Freq "Listening Window"
22.4 -145.13807475002648
23.0 -144.869926326673
23.6 -144.52677565144182
24.0 -144.17677963416168
25.0 -143.8887758624386
25.8 -143.67967275986814
26.5 -143.44577929071318
27.2 -143.23655604518842
28.0 -143.04817061927065
29.0 -142.77359274345986
30.0 -142.33928627782132
30.7 -141.70829973327653
31.5 -141.2409365742609
32.5 -140.71931887829584
33.5 -139.96580262625292
34.5 -138.88922051352796
35.5 -137.79994126092055
36.5 -136.6901627619577
37.5 -135.61379138080713
38.7 -134.53763592869063
40.0 -133.49349493515462
41.2 -132.45128845823854
42.5 -131.48350375193468
43.7 -130.56167366356073
45.0 -129.56167366356073
46.2 -128.56167366356073
47.5 -127.65152457837151
48.7 -126.79802164510723
50.0 -126.06490865993784
51.5 -125.35451572519777
53.0 -124.75451572519775
54.5 -124.2112416032282
56.0 -123.69049665468243
58.0 -123.16760371332045
60.0 -122.71148100562705
61.5 -122.3797991677177
63.0 -122.12443975114543
65.0 -121.82443975114542
67.0 -121.41365843249157
69.0 79.08634156750843
71.0 79.55099603968088
73.0 79.95099603968089
75.0 80.45099603968087
77.5 80.88470879065132
80.0 81.08470879065132
82.5 81.13095665601217
85.0 81.41841663485543
87.5 81.83095665601219
90.0 82.07540414170397
92.5 82.11841663485544
95.0 82.37540414170398
97.5 82.81841663485544
100.0 83.11841663485542
103.0 83.26508264583609
106.0 83.45264091624887
109.0 83.75264091624888
112.0 84.12985472174307
115.0 84.45264091624887
118.0 84.36508264583608
122.0 84.06508264583609
125.0 83.88695592287603
128.0 83.8650826458361
132.0 83.68695592287602
136.0 83.46508264583608
140.0 83.38932286796275
145.0 83.56508264583609
150.0 83.67666187715223
155.0 83.67666187715223
160.0 83.48932286796274
165.0 83.35759241505181
170.0 83.51232215226715
175.0 83.88932286796275
180.0 84.05759241505181
185.0 83.94746463797337
190.0 83.65909087517444
195.0 83.38216934172488
200.0 83.17209878265724
206.0 82.97209878265726
212.0 83.14243950422683
218.0 83.28536947261492
224.0 83.26223484520114
230.0 82.86590414050914
236.0 82.37950281441097
240.0 81.98400087866597
250.0 81.67482123341424
258.0 81.32927066519755
265.0 80.55755865202693
272.0 79.70669274974311
280.0 79.52937893258677
290.0 79.89741086348813
300.0 79.94732058396504
307.0 79.46978184374883
315.0 78.83407092690385
325.0 78.37654443166566
335.0 78.40691442404571
345.0 78.51705602905952
355.0 78.22366271472531
365.0 77.60462012147205
375.0 77.57004056563876
387.0 78.25361144870853
400.0 78.73979006036619
412.0 78.92291607252118
425.0 79.2444958137525
437.0 79.49958639305696
450.0 79.53542880978186
462.0 79.42722161320826
475.0 79.31589402765773
487.0 79.26285336519389
500.0 79.17526603633195
515.0 79.02213488384304
530.0 78.38721757975983
545.0 77.81112241187064
560.0 78.43112454218564
580.0 80.01767465511011
600.0 80.9307107403775
615.0 81.0304006144094
630.0 81.0555591697358
650.0 80.92286128379432
670.0 79.93019726959056
690.0 79.00115080768892
710.0 79.816452147562
730.0 81.99501221469465
750.0 83.11495435468288
775.0 82.70915325414167
800.0 81.50471084442879
825.0 80.38319707782152
850.0 80.27493415233768
875.0 80.78403216387957
900.0 80.86704636767735
925.0 80.79320976261046
950.0 80.83265104414097
975.0 81.07730548183426
1000.0 81.15429647862949
1030.0 81.24438596517585
1060.0 81.46485678538225
1090.0 81.74441487704345
1120.0 81.55562777375843
1150.0 80.65023102537495
1180.0 80.11236208052308
1220.0 80.32344699052798
1250.0 80.82024806395624
1280.0 81.26060306950872
1320.0 81.14830828439895
1360.0 80.94323329969482
1400.0 81.36352094485953
1450.0 82.11665125584531
1500.0 82.56426699397893
1550.0 81.9205533007774
1600.0 81.0534923949109
1650.0 80.47389777767621
1700.0 80.07717330099845
1750.0 79.63910315844092
1800.0 78.78244328928199
1850.0 77.4015723337224
1900.0 76.4287142726241
1950.0 76.24083047363159
2000.0 76.47439222933309
2060.0 76.75013444376968
2120.0 77.01824943642454
2180.0 77.36068408802005
2240.0 78.11372247856144
2300.0 79.39093369422056
2360.0 80.08296196217324
2400.0 79.80674815866512
2500.0 79.99002734061968
2580.0 80.49041984151134
2650.0 80.65771721956408
2720.0 80.68243127428923
2800.0 80.58904539125628
2900.0 80.26732790092483
3000.0 79.50201464840961
3070.0 79.10674047283393
3150.0 78.78337599977145
3250.0 78.27711882992175
3350.0 78.18416461972375
3450.0 78.29328834356562
3550.0 78.3173678242335
3650.0 78.48390080687513
3750.0 79.02008370573161
3870.0 79.50722416023059
4000.0 79.4137146946338
4120.0 79.1594086843766
4250.0 78.84867856315267
4370.0 78.39957581238555
4500.0 78.03986834407256
4620.0 77.74546516367191
4750.0 76.99224501485104
4870.0 75.99843169896857
5000.0 75.30460062369805
5150.0 74.90106369204126
5300.0 74.9090921413417
5450.0 75.44349597801872
5600.0 76.09719269127542
5800.0 76.23272278888852
6000.0 75.76283289931789
6150.0 75.35481189896738
6300.0 74.84231560456048
6500.0 74.02856838985399
6700.0 73.51042686072672
6900.0 73.16710021478987
7100.0 73.5981303207173
7300.0 74.94571330215885
7500.0 75.94596696225393
7750.0 75.63735907151306
8000.0 73.85134640752207
8250.0 71.7679716096831
8500.0 72.12878133308544
8750.0 74.76428654333473
9000.0 76.21490116166684
9250.0 77.0817671273035
9500.0 77.11220973732622
9750.0 76.50097317442909
10000.0 76.49969865782079
10300.0 77.30217271495734
10600.0 78.99629904524241
10900.0 80.5969612693425
11200.0 80.276646278127
11500.0 78.6940818138702
11800.0 79.25237125447909
12200.0 81.74826239240889
12500.0 83.14573358326034
12800.0 82.74919646512707
13200.0 82.74617097456223
13600.0 81.88711622403532
14000.0 80.39769094575404
14500.0 78.90674033344399
15000.0 76.83059670385133
15500.0 75.06850132857322
16000.0 74.95473445609655
16500.0 77.63520470672508
17000.0 76.39320709599455
17500.0 74.33111022672982
18000.0 72.87582921869351
18500.0 72.65803336516849
19000.0 72.44811310349641
19500.0 70.77425099285601
