Freq,On Axis,Listening Window,Sound Power,Early Reflections,Early Reflections DI,Sound Power DI,DI offset
20.5078,38.1485,37.39326090108763,47.84964792816071,45.04804705999159,32.34521384109604,29.543612972926923,40
21.9727,45.35879999999999,45.06105339841757,49.43838015461908,47.60488922898911,37.45616416942846,35.62267324379849,40
23.4375,46.78929999999998,46.495051948661526,50.82263227622009,49.01758449406033,37.4774674546012,35.672419672441436,40
24.9023,47.7017,47.37119126859692,51.96229215517026,50.08158541917156,37.28960584942536,35.408899113426656,40
26.3672,50.32200000000002,50.06155726919356,53.50431298509842,51.95467879554273,38.10687847365082,36.557244284095134,40
27.832,52.653499999999994,52.41262751333308,54.81368814195936,53.61060709214449,38.80202042118859,37.59893937137372,40
29.2969,53.454599999999985,53.22802657475343,56.19379365290773,54.809555350463185,38.41847122429024,37.0342329218457,40
30.7617,54.330799999999996,54.114340732910634,57.39487213626127,55.90980067821313,38.2045400546975,36.719468596649364,40
32.2266,57.0466,56.9023521196808,59.405964744497865,58.21287593880497,38.68947618087583,37.496387375182934,40
33.6914,58.46050000000001,58.32882722494706,60.78371027718872,59.614999722231445,38.71382750271562,37.545116947758345,40
35.1562,60.15339999999999,60.03250041673651,62.37934806002099,61.25983190177955,38.77266851495696,37.65315235671552,40
36.6211,61.88940000000001,61.7949948437781,64.02912330627193,62.96515968560523,38.82983515817287,37.76587153750617,40
38.0859,63.4011,63.32338348113623,65.50343154930474,64.46698829895867,38.856395182177565,37.8199519318315,40
39.5508,64.9725,64.91387910455713,67.04297957505078,66.03606784790792,38.87781125664921,37.870899529506346,40
41.0156,66.9563,66.91309529678412,69.0155699723948,68.02525355546484,38.88784174131928,37.89752532438932,40
42.4805,68.4329,68.40166237208466,70.29498264672637,69.39053372305997,39.011128649024684,38.10667972535829,40
43.9453,69.8671,69.85002894798588,71.72936388662166,70.83936576236147,39.01066318562441,38.12066506136422,40
45.4102,71.6468,71.63534823879398,73.3076584448129,72.50638122441241,39.12896701438157,38.32768979398108,40
46.875,73.35549999999999,73.34756940524248,74.8457121446183,74.12006592735749,39.227503477884994,38.50185726062418,40
48.3398,74.9307,74.92494016801037,76.32082517383627,75.63941354481841,39.285526623191956,38.6041149941741,40
51.2695,77.8996,77.90690032840797,79.23117487820241,78.58714927188586,39.31975105652211,38.67572545020556,40
52.7344,79.2359,79.24751432835593,80.51340202051085,79.8971409608625,39.35037336749343,38.73411230784508,40
54.1992,80.41340000000001,80.42957725844151,81.65606846703172,81.05958357803223,39.36999368040928,38.773508791409796,40
55.6641,81.34,81.35803109676522,82.5193528690347,81.95217494051505,39.40585615625017,38.83867822773051,40
58.5938,82.6325,82.6567100999036,83.71082540580004,83.19480748583221,39.46190261407139,38.94588469410357,40
60.0586,82.9529,82.97920333153625,83.9941321006002,83.49630563922786,39.4828976923084,38.98507123093606,40
62.9883,83.1587,83.18867242111494,84.11832308101856,83.661380608007,39.52729181310795,39.070349340096385,40
64.4531,83.1154,83.14735094289883,84.04494981236316,83.6035728103548,39.54377813254402,39.10240113053567,40
67.3828,82.9647,82.99876872552845,83.82056258914417,83.41593679793482,39.58283192759363,39.178206136384276,40
68.8477,82.9133,82.94839135215821,83.73337763764015,83.34689120124008,39.60150015091813,39.215013714518065,40
71.7773,82.8631,82.89872779645222,83.61006627507761,83.25917251777541,39.63955527867681,39.28866152137461,40
74.707,82.8645,82.90115194828498,83.55612089367516,83.23409114190854,39.66706080637644,39.34503105460982,40
77.6367,82.8386,82.8779752814917,83.50851909382229,83.19915309632411,39.67882218516759,39.369456187669414,40
79.1016,82.84509999999999,82.88521034957594,83.49255016624541,83.19492267813227,39.69028767144367,39.392660183330534,40
82.0312,82.894,82.93550577720326,83.5054270938989,83.22677158325601,39.70873419394725,39.43007868330436,40
84.9609,82.9835,83.02300446471322,83.49775818823892,83.2651681322328,39.75783633248042,39.525246276474306,40
87.8906,82.9952,83.03990266891758,83.58762800553755,83.3205316567902,39.71937101212738,39.452274663380024,40
90.8203,83.0867,83.13377487477165,83.68275290130467,83.41771646580058,39.716058408971065,39.45102197346698,40
95.2148,83.3033,83.34462278452048,83.76727481801832,83.56384730500123,39.78077547951925,39.57734796650216,40
98.1445,83.4569,83.49413348721001,83.85559461792977,83.68331018576883,39.810823301441175,39.63853886928024,40
101.074,83.6816,83.71433577304181,83.95467848292581,83.84264359765315,39.87169217538866,39.759657290115996,40
105.469,83.68229999999998,83.73045601245012,84.1578286949969,83.9646217870855,39.765834225364614,39.572627317453225,40
108.398,83.98049999999999,84.02650300885622,84.4331059496714,84.2485133445782,39.777989664278024,39.593397059184824,40
112.793,84.346,84.38209600180272,84.66208926321391,84.53330754850678,39.84878845329594,39.72000673858881,40
117.188,84.4894,84.5231959205456,84.77176426677912,84.65416558425399,39.869030336291615,39.75143165376649,40
120.117,84.63099999999999,84.66630315747663,84.8897323444984,84.78509097956575,39.88121217791088,39.776570812978235,40
124.512,84.9324,84.95496389862492,85.01221227349411,84.98809087913968,39.96687301948525,39.94275162513081,40
128.906,85.0874,85.1066700581203,85.08977096700491,85.09797814717196,40.00869191094834,40.01689909111539,40
133.301,85.03780000000002,85.06281263066741,85.11558255401437,85.08854349408547,39.97426913658194,39.94723007665304,40
139.16,84.964,84.99968708485441,85.19188340507235,85.09928435775463,39.90040272709979,39.80780367978207,40
143.555,85.1289,85.1504177920322,85.22979727586552,85.19209123504059,39.95832655699161,39.92062051616668,40
147.949,85.3584,85.36634030591259,85.24813385291168,85.30510176527484,40.061238540637746,40.11820645300091,40
153.809,85.3989,85.40493991520616,85.17094295220366,85.28092559216898,40.12401432303717,40.2339969630025,40
159.668,85.3196,85.33114935291688,85.19343214660604,85.24420808790393,40.08694126501295,40.13771720631084,40
165.527,85.4335,85.4447726048007,85.33373358103205,85.36954031983994,40.07523228496076,40.111039023768654,40
171.387,85.3634,85.35887601250356,85.13296071701183,85.22011047751931,40.138765534984245,40.22591529549173,40
177.246,85.18820000000001,85.19358441896726,85.08271194227244,85.11852533822828,40.07505908073898,40.11087247669482,40
183.105,85.4005,85.38040444874314,85.02060163364742,85.1689376886887,40.211466760054435,40.35980281509572,40
188.965,85.4142,85.39647343674146,84.90253165249364,85.12954251117786,40.2669309255636,40.49394178424782,40
196.289,85.409,85.38178115989757,84.86836645270387,85.10133029424439,40.28045086565318,40.513414707193704,40
203.613,85.40760000000002,85.36951140698345,84.71422962730898,85.01988171387505,40.3496296931084,40.65528177967447,40
210.938,85.3546,85.32085305732443,84.54597952589212,84.91981991636484,40.40103314095958,40.774873531432306,40
218.262,85.0955,85.06460991599965,84.34516769273985,84.6862533264718,40.378356589527854,40.719442223259804,40
225.586,84.9658,84.92887531356125,84.25710303976517,84.55237783142032,40.376497482140934,40.67177227379608,40
232.91,85.10599999999998,85.05806453401331,84.18113330438958,84.58659900226992,40.47146553174339,40.876931229623736,40
241.699,85.028,84.95261031591659,83.90903332089505,84.40272275727988,40.54988755863671,41.04357699502154,40
250.488,85.2738,85.17432519362167,83.70053838434409,84.41247337831098,40.76185181531069,41.473786809277584,40
259.277,84.9038,84.8298088325242,83.57008585623636,84.13953705075272,40.69027178177147,41.25972297628783,40
268.066,84.7503,84.6790887130736,83.3035245112483,83.92633978444765,40.75274892862595,41.3755642018253,40
276.855,84.7467,84.65468903223076,83.25069859857327,83.89988200604195,40.754807026188814,41.4039904336575,40
287.109,84.1709,84.13809064595871,83.1460527254186,83.6273720123114,40.510718633647315,40.99203792054011,40
297.363,84.5184,84.4280004934969,82.91904717758668,83.63359380608496,40.794406687411936,41.50895331591022,40
307.617,84.2126,84.13901163933734,82.75280114655826,83.47620662666236,40.66280501267498,41.386210492779085,40
319.336,84.0966,83.92049767699439,82.33076386786166,83.10725316037264,40.81324451662175,41.589733809132724,40
329.59,84.0971,83.94726702996375,82.24341737074734,82.99286661739742,40.95440041256633,41.70384965921642,40
341.309,84.94870000000002,84.7491947920509,82.54952629522846,83.55439305705474,41.19480173499616,42.19966849682244,40
353.027,84.8691,84.73337604542209,82.382967450944,83.5613553653172,41.17202068010489,42.3504085944781,40
366.211,84.8648,84.75290824411721,82.29480575032626,83.55783457619634,41.195073667920866,42.458102493790946,40
379.395,84.88110000000002,84.78742884548133,82.47078084745321,83.71266068399726,41.07476816148407,42.31664799802812,40
392.578,84.21819999999998,84.10235842572932,81.99333798840281,83.1226065195661,40.979751906163216,42.10902043732651,40
405.762,84.4695,84.27601786295304,81.81545163581804,83.07261267048779,41.203405192465254,42.460566227135004,40
420.41,84.221,84.17310353951969,81.82412392471848,83.06308570577313,41.110017833746554,42.34897961480121,40
435.059,84.0095,83.85439968027327,81.54421805896467,82.7018393414852,41.15256033878808,42.3101816213086,40
451.172,84.6778,84.53756079636297,81.51705569519423,83.16723991167522,41.37032088468774,43.02050510116874,40
465.82,84.109,84.02228911621789,81.43414953278705,82.82155291786331,41.200736198354576,42.588139583430845,40
483.398,83.9073,83.82393277962764,81.30130284238551,82.61327973248902,41.21065304713862,42.52262993724213,40
499.512,84.3479,84.09100118283776,81.22981047769527,82.73434507097448,41.35665611186327,42.86119070514249,40
517.09,84.1142,83.91384194473429,81.36202931803986,82.62927284012397,41.28456910461031,42.55181262669443,40
536.133,84.71410000000002,84.43889906957607,81.02554497317513,82.55012032567784,41.88877874389823,43.41335409640094,40
555.176,84.8673,84.74454495772567,81.18163253580497,82.90069534915087,41.8438496085748,43.5629124219207,40
574.219,85.0112,84.7144136050121,81.21935701355586,83.04501428144553,41.669399323566566,43.49505659145623,40
594.727,85.069,84.89132215189932,81.32889268112574,83.14450846540952,41.7468136864898,43.56242947077358,40
615.234,85.70189999999998,85.47722323343872,82.19808819526826,83.85123765273903,41.62598558069969,43.279135038170466,40
637.207,86.3714,86.02752251468806,82.4327353080571,84.32251349218011,41.70500902250795,43.594787206630954,40
659.18,85.8529,85.56260303555199,81.63746720210355,83.65600614374003,41.90659689181196,43.92513583344844,40
682.617,85.998,85.66727461607837,81.56048146439858,83.64036204084199,42.02691257523638,44.106793151679796,40
707.52,85.526,85.1609900859514,80.97268464927619,83.20855942101058,41.95243066494082,44.18830543667521,40
732.422,85.7924,85.48064657584983,81.37903496444027,83.51106331221878,41.96958326363105,44.10161161140957,40
757.324,87.1415,86.81816259035092,82.47450709960562,84.77865309818135,42.03950949216957,44.343655490745306,40
785.156,87.0876,86.7049917908805,82.3101915391875,84.6322600092232,42.072731781657296,44.394800251693,40
811.523,87.21469999999998,86.81662548971583,82.36075708720122,84.67831130920905,42.13831418050678,44.45586840251461,40
840.82,87.1863,86.87621783087637,82.16197242118139,84.63024517464349,42.24597265623288,44.71424540969498,40
870.117,86.9902,86.79343497849294,81.8142962370663,84.18205056992412,42.611384408568824,44.97913874142664,40
900.879,87.5914,87.04798196815314,81.9233646050675,84.46557362345307,42.58240834470007,45.12461736308563,40
933.105,86.9619,86.7396919473016,81.51843430686408,84.08079332620514,42.658898621096455,45.221257640437514,40
965.332,87.0584,86.64338173940862,81.30810810638188,83.81231719785343,42.83106454155519,45.335273633026745,40
1000.49,86.7922,86.32698480934066,81.00120350802513,83.56070997851374,42.766274830826916,45.32578130131553,40
1035.64,86.0251,85.79183197469803,80.4634036913169,82.96726639123389,42.824565583464135,45.32842828338113,40
1072.27,85.4681,85.15508912071327,80.05763631011922,82.40469779405207,42.7503913266612,45.09745281059405,40
1108.89,85.0357,84.58509681731628,79.69081243055602,82.26222125230127,42.32287556501501,44.89428438676026,40
1148.44,84.4596,83.91193803600224,78.81091279542879,81.49226390928449,42.41967412671775,45.10102524057345,40
1189.45,83.85450000000002,83.4325878428191,78.22176878804954,80.82908710130849,42.603500741510615,45.21081905476956,40
1230.47,84.5581,84.03218057028545,78.71439786427536,81.32810612050847,42.70407444977698,45.31778270601009,40
1274.41,84.9944,84.30283860945124,78.47759397930727,81.31643223305232,42.98640637639892,45.82524463014397,40
1319.82,85.1043,84.40578438568433,78.1949326662574,81.32227563948918,43.08350874619515,46.21085171942693,40
1366.7,85.2204,84.52087004408949,78.50413585967145,81.3454821793705,43.175387864718985,46.01673418441804,40
1413.57,84.9568,84.77784529361612,78.78124269977701,81.7013110749262,43.07653421868993,45.996602593839114,40
1463.38,84.7633,84.17170713081866,78.28628862783273,81.34327034721849,42.82843678360017,45.88541850298593,40
1516.11,83.2443,82.80470880330631,77.0739681595282,79.87705668833304,42.92765211497327,45.730740643778105,40
1568.85,83.1385,82.22765442709301,76.27670656965441,79.14197972370401,43.085674703389,45.95094785743861,40
1624.51,83.9677,83.17549170795853,76.48710210749299,79.47458712164824,43.70090458631029,46.68838960046554,40
1681.64,85.4352,84.66153497377135,77.99691500684885,80.70850636051092,43.95302861326043,46.6646199669225,40
1741.7,86.2653,85.20385827579945,78.05491625368943,80.91249817135083,44.291360104448614,47.14894202211002,40
1803.22,85.0153,84.59808693110661,78.75902761408128,80.84925878416855,43.74882814693805,45.83905931702533,40
1866.21,85.1511,84.18345315867855,77.24744515390346,79.75874500127664,44.42470815740191,46.93600800477509,40
1932.13,84.4208,84.11848837792691,77.23279186191616,79.64159848365982,44.47688989426709,46.88569651601075,40
1999.51,84.1401,84.23058751720595,78.29161177841941,80.11904194259078,44.111545574615164,45.93897573878654,40
2069.82,86.666,85.32303335335239,78.85699517237602,80.78763283457859,44.5354005187738,46.46603818097637,40
2143.07,84.7408,84.40612595901433,78.70497535307724,80.0542444590525,44.351881499961834,45.70115060593709,40
2219.24,84.37939999999999,83.12419513664965,77.89846290755646,79.25668302676453,43.86751210988511,45.22573222909318,40
2296.88,82.9174,82.65964502951589,76.92504822216071,78.484206018563,44.175439010952886,45.734596807355175,40
2378.91,83.90839999999999,83.04232492767693,77.87126579609384,79.61354002930712,43.42878489836981,45.17105913158309,40
2462.4,84.7837,84.34209746031142,77.88734893509054,80.1179827076828,44.22411475262862,46.45474852522088,40
2548.83,83.90389999999998,83.91145285261838,77.61271586780748,79.77103704015208,44.1404158124663,46.2987369848109,40
2639.65,82.6237,82.79515986473992,76.98136807126947,78.99146448790034,43.80369537683957,45.81379179347044,40
2731.93,82.75670000000001,82.54756878010524,76.75173803336905,79.05951299199258,43.48805578811266,45.795830746736186,40
2828.61,82.92389999999999,82.9419763393055,77.02111573246171,79.53389207182131,43.408084267484185,45.92086060684379,40
2928.22,83.2512,83.4832370211859,77.45663738853932,80.03728748663781,43.44594953454809,46.02659963264658,40
3030.76,83.05670000000002,83.45308725434488,77.56091760060399,80.08567970160378,43.3674075527411,45.89216965374089,40
3137.7,82.5545,83.04250308983048,77.39645905262553,79.99578010327403,43.046722986556446,45.646044037204945,40
3249.02,82.36230000000002,82.57175096355323,77.06968175759967,80.04632640598926,42.525424557563966,45.50206920595356,40
3363.28,82.44510000000001,82.72788468441397,76.94815276938023,80.07501261847388,42.65287206594009,45.779731915033736,40
3481.93,82.4801,82.84738518930995,77.17636701259471,80.26379943549543,42.58358575381452,45.671018176715236,40
3604.98,82.75360000000002,83.07340508180626,77.53258511343395,80.47776368589915,42.59564139590711,45.540819968372304,40
3732.42,83.9233,83.83113020175989,77.65296489558501,80.68637221064621,43.14475799111368,46.178165306174876,40
3864.26,83.18759999999999,83.29667620145797,77.34552969649098,80.7158345913938,42.58084161006417,45.951146504966985,40
4000.49,84.17370000000001,83.58194351080826,77.273302244184,80.91731363561337,42.66462987519489,46.308641266624264,40
4141.11,85.5833,84.35509018952925,77.6910543037575,81.58889467258732,42.766195516941934,46.66403588577175,40
4287.6,85.2031,84.03422300475438,77.75706969317467,81.455435719853,42.57878728490138,46.27715331157971,40
4438.48,84.7207,83.97397036452196,77.91861980461566,81.2491438020445,42.72482656247746,46.0553505599063,40
4595.21,85.5875,84.39216454258921,78.12470529973275,81.66731119081305,42.72485335177616,46.26745924285646,40
4756.35,86.6032,85.17772081433179,78.36905016356553,82.12191955881922,43.05580125551258,46.80867065076626,40
4924.8,86.7067,85.29176263374443,78.37726743344349,82.17428282429456,43.11747980944986,46.914495200300934,40
5097.66,86.7259,85.4313447788267,78.18956710719992,82.28307133574835,43.14827344307835,47.24177767162678,40
5277.83,87.3243,85.92264820426736,78.57757571987152,82.50097613665447,43.42167206761289,47.34507248439584,40
5463.87,87.4113,85.93492200729335,78.6936973889246,82.59535210071326,43.339569906580095,47.24122461836875,40
5657.23,87.3814,86.01802034481791,78.72712301271089,83.00379005401554,43.014230290802374,47.29089733210702,40
5856.45,87.0154,85.55959933734589,78.33612708672234,82.78705269081085,42.772546646535034,47.223472250623544,40
6062.99,87.61629999999998,86.1405867577286,78.549712458428,82.86502205283146,43.275564704897135,47.590874299300594,40
6276.86,88.40860000000002,86.26659191680788,78.3160542254113,82.74745938173714,43.51913253507074,47.950537691396576,40
6498.05,88.9381,86.6130968620728,78.34621998391232,82.69462904261303,43.918467819459764,48.266876878160474,40
6726.56,88.5615,86.56161870167507,78.0768188796604,82.43274837331917,44.1288703283559,48.48479982201468,40
6963.87,88.6106,86.48034161264054,78.06845038466425,82.6179305184621,43.86241109417844,48.4118912279763,40
7209.96,88.6325,86.86814827895613,78.4722355229205,82.90446395647167,43.963684322484454,48.39591275603563,40
7464.84,87.8585,86.66812255444792,78.18962437395055,82.67449426754254,43.99362828690538,48.47849818049737,40
7727.05,88.5611,87.17871675098054,78.28707334291526,82.75208185416945,44.426634896811095,48.89164340806528,40
7999.51,88.24830000000001,86.89863969192308,77.90330346796297,82.37913630384168,44.519503388081404,48.99533622396011,40
8282.23,88.1693,86.82987286755456,77.99594528801839,82.46557436808683,44.36429849946772,48.833927579536166,40
8573.73,88.1414,86.87054280324736,78.11884183558543,82.62415120380778,44.246391599439576,48.75170096766193,40
8876.95,87.7396,86.68693779916354,78.1189229765944,82.42271227539815,44.26422552376539,48.56801482256914,40
9188.96,87.505,86.60317936517409,77.98337781417555,82.29669440140138,44.306484963772704,48.61980155099853,40
9514.16,87.4128,86.56148019367129,77.99181178226401,82.33309887764156,44.228381316029726,48.56966841140728,40
9849.61,87.2066,86.38286118103443,77.99526339314355,82.2385827072754,44.14427847375903,48.38759778789088,40
10196.8,86.65940000000002,86.30892557301746,78.11226510275436,82.28120349562455,44.02772207739291,48.1966604702631,40
10555.7,86.3454,86.1111525594114,78.11722162700629,82.1863078295599,43.9248447298515,47.99393093240511,40
10927.7,86.2116,86.19122417540834,78.28440841995943,82.43644103326581,43.75478314214253,47.9068157554489,40
11313.0,85.9893,86.19310083867111,78.55160590875285,82.77439309835209,43.41870774031902,47.64149492991827,40
11712.9,85.40329999999999,86.21809148548265,78.87072800127342,82.96518490381594,43.25290658166671,47.347363484209225,40
