Freq "Listening Window"
20.5078 37.393260901087615
21.9727 45.061053398417585
23.4375 46.49505194866151
24.9023 47.37119126859693
26.3672 50.06155726919357
27.832 52.41262751333309
29.2969 53.22802657475344
30.7617 54.11434073291065
32.2266 56.90235211968081
33.6914 58.32882722494705
35.1562 60.032500416736525
36.6211 61.79499484377811
38.0859 63.32338348113623
39.5508 64.91387910455711
41.0156 66.91309529678414
42.4805 68.40166237208466
43.9453 69.85002894798586
45.4102 71.63534823879397
46.875 73.34756940524247
48.3398 74.92494016801038
51.2695 77.90690032840796
52.7344 79.24751432835593
54.1992 80.42957725844153
55.6641 81.35803109676522
58.5938 82.65671009990362
60.0586 82.97920333153627
62.9883 83.18867242111496
64.4531 83.14735094289883
67.3828 82.99876872552845
68.8477 82.94839135215821
71.7773 82.89872779645222
74.707 82.90115194828496
77.6367 82.87797528149171
79.1016 82.88521034957594
82.0312 82.93550577720326
84.9609 83.02300446471324
87.8906 83.03990266891756
90.8203 83.13377487477163
95.2148 83.34462278452047
98.1445 83.49413348721001
101.074 83.71433577304181
105.469 83.73045601245013
108.398 84.02650300885622
112.793 84.38209600180274
117.188 84.5231959205456
120.117 84.66630315747662
124.512 84.95496389862491
128.906 85.10667005812032
133.301 85.06281263066741
139.16 84.99968708485441
143.555 85.15041779203219
147.949 85.36634030591259
153.809 85.40493991520616
159.668 85.33114935291688
165.527 85.44477260480072
171.387 85.35887601250354
177.246 85.19358441896725
183.105 85.38040444874315
188.965 85.39647343674147
196.289 85.38178115989757
203.613 85.36951140698343
210.938 85.32085305732443
218.262 85.06460991599965
225.586 84.92887531356126
232.91 85.0580645340133
241.699 84.9526103159166
250.488 85.17432519362167
259.277 84.82980883252418
268.066 84.6790887130736
276.855 84.65468903223078
287.109 84.13809064595873
297.363 84.42800049349691
307.617 84.13901163933735
319.336 83.92049767699439
329.59 83.94726702996375
341.309 84.74919479205091
353.027 84.7333760454221
366.211 84.75290824411722
379.395 84.78742884548133
392.578 84.10235842572934
405.762 84.27601786295305
420.41 84.17310353951969
435.059 83.85439968027327
451.172 84.53756079636298
465.82 84.02228911621788
483.398 83.82393277962765
499.512 84.09100118283776
517.09 83.91384194473427
536.133 84.43889906957605
555.176 84.74454495772568
574.219 84.7144136050121
594.727 84.89132215189933
615.234 85.4772232334387
637.207 86.02752251468807
659.18 85.56260303555199
682.617 85.66727461607836
707.52 85.16099008595141
732.422 85.48064657584982
757.324 86.81816259035094
785.156 86.70499179088048
811.523 86.81662548971582
840.82 86.87621783087639
870.117 86.79343497849294
900.879 87.04798196815312
933.105 86.73969194730158
965.332 86.64338173940864
1000.49 86.32698480934064
1035.64 85.79183197469803
1072.27 85.15508912071327
1108.89 84.58509681731628
1148.44 83.91193803600225
1189.45 83.43258784281909
1230.47 84.03218057028545
1274.41 84.30283860945126
1319.82 84.40578438568431
1366.7 84.52087004408949
1413.57 84.77784529361614
1463.38 84.17170713081867
1516.11 82.80470880330631
1568.85 82.227654427093
1624.51 83.17549170795851
1681.64 84.66153497377135
1741.7 85.20385827579945
1803.22 84.59808693110661
1866.21 84.18345315867855
1932.13 84.11848837792691
1999.51 84.23058751720596
2069.82 85.32303335335239
2143.07 84.40612595901435
2219.24 83.12419513664966
2296.88 82.6596450295159
2378.91 83.04232492767693
2462.4 84.34209746031144
2548.83 83.91145285261838
2639.65 82.7951598647399
2731.93 82.54756878010522
2828.61 82.94197633930551
2928.22 83.48323702118589
3030.76 83.45308725434488
3137.7 83.04250308983046
3249.02 82.57175096355321
3363.28 82.72788468441397
3481.93 82.84738518930995
3604.98 83.07340508180624
3732.42 83.83113020175989
3864.26 83.29667620145796
4000.49 83.58194351080827
4141.11 84.35509018952924
4287.6 84.03422300475437
4438.48 83.97397036452197
4595.21 84.3921645425892
4756.35 85.17772081433179
4924.8 85.29176263374441
5097.66 85.4313447788267
5277.83 85.92264820426736
5463.87 85.93492200729337
5657.23 86.01802034481793
5856.45 85.5595993373459
6062.99 86.14058675772861
6276.86 86.26659191680788
6498.05 86.61309686207281
6726.56 86.56161870167506
6963.87 86.48034161264053
7209.96 86.86814827895611
7464.84 86.66812255444792
7727.05 87.17871675098054
7999.51 86.89863969192308
8282.23 86.82987286755456
8573.73 86.87054280324737
8876.95 86.68693779916356
9188.96 86.6031793651741
9514.16 86.56148019367129
9849.61 86.38286118103443
10196.8 86.30892557301745
10555.7 86.11115255941138
10927.7 86.19122417540834
11313.0 86.19310083867111
11712.9 86.21809148548263
12126.0 86.41715786991676
12553.7 86.80237294393609
12996.1 87.50933212313548
13454.6 88.3707224525369
13929.2 89.32791688587535
14419.9 89.86347150150614
14928.2 90.60689007531168
15455.6 90.96306263717382
16000.5 90.59041326616416
16564.5 87.81293173923454
17148.9 86.77451974603169
17752.4 86.53375595306662
18379.4 86.7424776114907
19026.9 86.6442500583884
19697.8 84.54999945156318
19999.5 82.77147442886682
