Freq "On Axis"
20.507813 59.063309000000004
21.972656 60.718851
23.4375 63.332937999999984
24.902344 63.707993000000016
26.367188 64.57382900000002
27.832031 65.910947
29.296875 67.04336700000002
30.761719 68.004264
32.226563 69.02600099999998
33.691406 70.009351
35.15625 71.20766499999999
36.621094 72.213353
38.085938 73.095913
39.550781 73.982596
41.015625 74.778737
42.480469 75.550674
43.945313 76.282918
45.410156 76.983853
46.875 77.653346
48.339844 78.276664
51.269531 79.492895
52.734375 80.071781
54.199219 80.625867
55.664063 81.160333
58.59375 82.18436
60.058594 82.679936
62.988281 83.625614
64.453125 84.082153
67.382813 84.965958
68.847656 85.373042
71.777344 86.133697
74.707031 86.869003
77.636719 87.574562
79.101563 87.888041
82.03125 88.413194
84.960938 88.857846
87.890625 89.25421800000001
90.820313 89.607698
95.214844 90.05699
98.144531 90.314606
101.07422 90.547202
105.46875 90.762077
108.39844 90.882754
112.79297 91.086751
117.1875 91.293588
120.11719 91.34013000000002
124.51172 91.40809999999999
128.90625 91.441248
133.30078 91.44450900000001
139.16016 91.458915
143.55469 91.296049
147.94922 91.153221
153.80859 91.100347
159.66797 91.17004700000001
165.52734 91.106
171.38672 91.104906
177.24609 90.750013
183.10547 90.39407
188.96484 90.373157
196.28906 90.791776
203.61328 90.449291
210.9375 89.910956
218.26172 90.482443
225.58594 90.717158
232.91016 90.974052
241.69922 90.614317
250.48828 90.717529
259.27734 90.82443
268.06641 90.598715
276.85547 89.858092
287.10938 90.247891
297.36328 90.78428499999998
307.61719 90.455522
319.33594 90.143584
329.58984 90.169259
341.30859 90.524463
353.02734 90.295123
366.21094 89.597848
379.39453 89.75869600000001
392.57813 90.17007799999999
405.76172 89.686096
420.41016 89.424061
435.05859 89.9265
451.17188 89.310608
465.82031 89.581429
483.39844 89.754209
499.51172 89.597588
517.08984 89.343321
536.13281 89.33630599999998
555.17578 89.690505
574.21875 90.71495300000001
594.72656 90.76633800000002
615.23438 90.804352
637.20703 90.624348
659.17969 90.970363
682.61719 90.88923700000001
707.51953 91.304462
732.42188 91.403161
757.32422 91.65179700000002
785.15625 90.947193
811.52344 90.989053
840.82031 90.614188
870.11719 90.428493
900.87891 91.219076
933.10547 91.013082
965.33203 90.50272
1000.4883 89.703344
1035.6445 89.487161
1072.2656 89.953316
1108.8867 90.635109
1148.4375 91.24888899999999
1189.4531 91.466048
1230.4688 91.34482299999999
1274.4141 91.306002
1319.8242 91.013805
1366.6992 90.937693
1413.5742 90.883297
1463.3789 91.13444800000002
1516.1133 91.085014
1568.8477 90.938488
1624.5117 90.777634
1681.6406 90.861343
1741.6992 91.020403
1803.2227 90.732771
1866.2109 90.302843
1932.1289 90.418093
1999.5117 90.87786599999998
2069.8242 90.819457
2143.0664 89.964576
2219.2383 89.792742
2296.875 89.674522
2378.9063 89.057688
2462.4023 88.74883399999999
2548.8281 88.831963
2639.6484 88.248093
2731.9336 88.470452
2828.6133 88.809725
2928.2227 88.26067
3030.7617 88.087785
3137.6953 88.15781800000002
3249.0234 87.81880699999999
3363.2813 88.144618
3481.9336 88.58575100000002
3604.9805 88.94267199999999
3732.4219 89.272142
3864.2578 89.325695
4000.4883 89.426921
4141.1133 89.630193
4287.5977 89.862132
4438.4766 89.802325
4595.2148 89.891814
4756.3477 90.03832499999999
4924.8047 89.83590799999999
5097.6563 90.088505
5277.832 89.907584
5463.8672 89.908054
5657.2266 90.372444
5856.4453 90.108208
6062.9883 89.68791000000002
6276.8555 89.52015
6498.0469 88.903379
6726.5625 88.237451
6963.8672 87.556789
7209.9609 87.586681
7464.8438 87.56342600000002
7727.0508 87.441136
7999.5117 88.139309
8282.2266 88.579109
8573.7305 88.578758
8876.9531 88.64167
9188.9648 88.9717
9514.1602 89.222288
9849.6094 89.417812
10196.777 89.537133
10555.664 89.615578
10927.734 89.471258
11312.988 89.54148999999998
11712.891 89.33932
12125.977 89.40393
12553.711 89.512104
12996.094 89.787336
13454.59 89.920342
13929.199 90.075806
14419.922 90.023577
14928.223 90.086516
15455.566 90.09769
16000.488 89.921004
16564.453 89.623821
17148.926 89.286477
17752.441 89.57292000000001
18379.395 89.400925
19026.855 89.014987
19697.754 88.292882
19999.512 87.930714
