Freq "Estimated In-Room Response"
20.5078 47.388491717056525
21.9727 55.147088765903646
23.4375 58.56156386901512
24.9023 60.78945446460477
26.3672 62.49778003097663
27.832 64.35477420438565
29.2969 66.37081499585639
30.7617 67.9669001762971
32.2266 69.6201499474149
33.6914 71.08159204727463
35.1562 72.5471866540098
36.6211 73.78778560945719
38.0859 74.92713350768622
39.5508 76.08882274381304
41.0156 77.40655244257594
42.4805 78.1711804370812
43.9453 78.9779206140638
45.4102 79.79443134509648
46.875 80.55847485049792
48.3398 81.29618173816729
51.2695 82.51250991699517
52.7344 83.06815704113133
54.1992 83.54093524760776
55.6641 84.03710377066093
58.5938 84.77896639585714
60.0586 85.12518197071984
62.9883 85.81505479770539
64.4531 86.10085362958446
67.3828 86.53087399742341
68.8477 86.71412706341414
71.7773 87.10401487090958
74.707 87.5075233207649
77.6367 87.80527908500403
79.1016 87.90021707935861
82.0312 88.04292298329709
84.9609 88.15747854153072
87.8906 88.25784911666214
90.8203 88.35406180259676
95.2148 88.4384684414355
98.1445 88.49182275011998
101.074 88.4504864065035
105.469 88.4810337536831
108.398 88.55927820334719
112.793 88.49479292495556
117.188 88.46294017967845
120.117 88.46155723902731
124.512 88.40197745299741
128.906 88.16561436493646
133.301 88.05879911142591
139.16 87.99327208018791
143.555 87.8851593756218
147.949 87.6625329087216
153.809 87.45210186331488
159.668 87.53042241351673
165.527 87.5139366609643
171.387 87.36596255463316
177.246 87.23732937630342
183.105 87.0151408062207
188.965 86.8054913548325
196.289 86.86843549019981
203.613 86.80522221853664
210.938 86.58128211368174
218.262 86.33525942082555
225.586 86.43693321510008
232.91 86.28293010803017
241.699 85.99939919458525
250.488 86.01622834166588
259.277 85.94988101500125
268.066 85.4469544972955
276.855 85.1572767705393
287.109 85.19029956695162
297.363 85.97212286452347
307.617 85.67816200604335
319.336 85.33234874365405
329.59 85.04860250612359
341.309 84.99459573986192
353.027 84.74264782846748
366.211 84.65574845853281
379.395 84.8248410116884
392.578 84.55720475072147
405.762 84.84513065023862
420.41 85.29393500120035
435.059 85.20059618941066
451.172 85.04539524434372
465.82 84.965723161849
483.398 84.63269731643483
499.512 84.97789085851933
517.09 84.47170888809404
536.133 84.62267455735162
555.176 84.383600047605
574.219 84.76139668488098
594.727 85.01957655271694
615.234 85.79523573968342
637.207 86.92531687649829
659.18 86.63633202817473
682.617 86.62426543824304
707.52 86.76046363492841
732.422 86.24174940482843
757.324 86.30322770668384
785.156 86.26809700840849
811.523 86.18424992803212
840.82 86.22074137828501
870.117 85.99716333653367
900.879 85.69500191294408
933.105 85.09504817374909
965.332 85.17993994634986
1000.49 85.04716093844746
1035.64 84.74634402778246
1072.27 84.51024367183761
1108.89 84.01450169763766
1148.44 83.57625682265653
1189.45 83.59856034426859
1230.47 83.3830393448466
1274.41 84.00982099452287
1319.82 84.36011701423786
1366.7 84.8585116766958
1413.57 84.93437056326071
1463.38 84.45051375243355
1516.11 83.94532095064355
1568.85 83.2783060861525
1624.51 83.41620050161195
1681.64 83.88092228677684
1741.7 83.84323826291865
1803.22 84.42559744169428
1866.21 83.4314167874866
1932.13 83.26990316675679
1999.51 83.87610113922653
2069.82 84.23056517688443
2143.07 83.8174371652278
2219.24 82.83999913242577
2296.88 82.58573617236527
2378.91 83.31229131473104
2462.4 84.16964305951552
2548.83 83.8398002662164
2639.65 82.72511572259396
2731.93 82.13257346874339
2828.61 82.14342789643983
2928.22 82.4345701624108
3030.76 82.25212512549382
3137.7 82.13857460828541
3249.02 82.01293565013674
3363.28 82.05181221738646
3481.93 82.26941618390427
3604.98 82.99843286074108
3732.42 84.05477367235812
3864.26 83.38270183186391
4000.49 83.20506394887497
4141.11 83.41290701398793
4287.6 83.2285659115636
4438.48 83.3509083401099
4595.21 83.15892502021678
4756.35 84.13955838214423
4924.8 84.14772478824834
5097.66 84.35332244810287
5277.83 84.58345587581414
5463.87 84.71556693655354
5657.23 85.08151614984706
5856.45 84.85135305171359
6062.99 84.60963820143319
6276.86 84.52955867718532
6498.05 84.60888266053081
6726.56 84.6113960220805
6963.87 84.30587845350072
7209.96 84.35070876931297
7464.84 84.09297286243404
7727.05 84.03462188036617
7999.51 83.52235861881964
8282.23 83.87207003405481
8573.73 84.20625474445434
8876.95 84.50713053870652
9188.96 84.66188723357432
9514.16 84.72660632198105
9849.61 84.42929635624517
10196.8 84.46504148266852
10555.7 84.33021867577213
10927.7 84.42230996210226
11313.0 84.50746302247384
11712.9 84.43264570810592
12126.0 84.38968036072191
12553.7 84.21475318566938
12996.1 83.98204090828946
13454.6 83.97450466649894
13929.2 83.93014919215143
14419.9 83.7042638390001
14928.2 83.01748657446561
15455.6 81.42717832031587
16000.5 79.5405754141549
16564.5 82.83704159012457
17148.9 81.95781636167425
17752.4 80.81254226080436
18379.4 79.65310378783917
19026.9 78.9060883579074
19697.8 78.0996282870795
19999.5 77.61459074704152
