Freq "Listening Window"
20.5078 66.9631173972507
21.9727 70.1123539311542
23.4375 72.07165407762714
24.9023 73.72013225925122
26.3672 75.36320674320389
27.832 76.79413394013893
29.2969 78.13877811853365
30.7617 79.42697613846839
32.2266 80.6910180088331
33.6914 81.95396745649488
35.1562 83.12647875603183
36.6211 84.20428792235164
38.0859 85.12784888383754
39.5508 85.7767529306512
41.0156 86.19166630332472
42.4805 86.33823719350085
43.9453 86.33108309562819
45.4102 86.2565860175937
46.875 86.16328290793314
48.3398 86.0426813797625
51.2695 85.87620823982641
52.7344 85.8244786424327
54.1992 85.80413589902496
55.6641 85.78846315782707
58.5938 85.7712474551759
60.0586 85.77479624418268
62.9883 85.85031556595206
64.4531 85.85685502965545
67.3828 85.95641490201976
68.8477 86.02617632891929
71.7773 86.12398333843804
74.707 86.2298308789139
77.6367 86.28115505314283
79.1016 86.34809620400118
82.0312 86.44803278041773
84.9609 86.54944050425796
87.8906 86.54258995634996
90.8203 86.74656728381832
95.2148 86.73030400904972
98.1445 86.75431962775215
101.074 86.79720857044383
105.469 86.92551300074817
108.398 86.93839154314324
112.793 87.0364208537723
117.188 87.08227016998846
120.117 87.15631085715268
124.512 87.19889684240145
128.906 87.20254232521869
133.301 87.24182845869343
139.16 87.29083703653473
143.555 87.27491361589755
147.949 87.30267133897351
153.809 87.37052552149474
159.668 87.54921154996984
165.527 87.58626350909893
171.387 87.72820674160779
177.246 87.70950758678069
183.105 87.54922412717603
188.965 87.46013608710963
196.289 87.33685144161815
203.613 87.36971931260777
210.938 87.31983959175983
218.262 87.16622712343934
225.586 87.33426586555075
232.91 87.2433639120094
241.699 87.15223138636347
250.488 87.57878867619708
259.277 87.22236733720023
268.066 87.4071375330805
276.855 87.14905527196159
287.109 87.10980588519651
297.363 87.2890281957197
307.617 87.12685524144007
319.336 87.11651785810723
329.59 87.41226921008268
341.309 87.34913601707277
353.027 87.32429437964869
366.211 87.92992246761467
379.395 87.5577891867728
392.578 87.47819442396604
405.762 87.57687189993642
420.41 87.85365034474319
435.059 87.70336122419386
451.172 88.57001854711541
465.82 88.36416864070301
483.398 88.39378730721725
499.512 88.5454464462515
517.09 87.90323593369213
536.133 87.95470996319752
555.176 87.68584898259566
574.219 87.67840338527235
594.727 87.13084839950261
615.234 86.92029860885745
637.207 87.26282081990325
659.18 86.76907217950317
682.617 86.78657137897507
707.52 87.27151940866655
732.422 86.97111852094723
757.324 86.5405707350793
785.156 87.47515254365206
811.523 86.43825527609664
840.82 86.64004182872735
870.117 87.25678674058925
900.879 87.54767336479149
933.105 87.25541049370734
965.332 87.79394135731324
1000.49 87.52324060132877
1035.64 87.53829484231979
1072.27 86.74650014605551
1108.89 86.74003448992055
1148.44 85.92148026158621
1189.45 87.25457256377332
1230.47 87.14080827545153
1274.41 87.71324847009821
1319.82 87.22599580591003
1366.7 86.63354935689924
1413.57 86.81705127495702
1463.38 86.79383603446445
1516.11 87.29913198445752
1568.85 87.65775260410958
1624.51 86.95298619732291
1681.64 85.79675335445698
1741.7 85.82524341536354
1803.22 87.11879515168862
1866.21 87.42424468356161
1932.13 86.55876295882679
1999.51 86.04909788863404
2069.82 86.89297778597593
2143.07 87.5812483283534
2219.24 87.25106512245647
2296.88 86.50461140881114
2378.91 86.8912241547445
2462.4 86.87467239297185
2548.83 86.4301250411567
2639.65 86.74870857158565
2731.93 86.52029761759191
2828.61 85.88069249965174
2928.22 86.41865140131394
3030.76 86.06077391370724
3137.7 86.0387567352276
3249.02 86.7550880127025
3363.28 87.24967454737994
3481.93 86.89146513226912
3604.98 87.14708980989818
3732.42 86.78063989426677
3864.26 86.67420081893566
4000.49 86.78813409055014
4141.11 86.8213256716755
4287.6 86.6614691336351
4438.48 87.13249391194127
4595.21 86.63910536503688
4756.35 86.80003611321732
4924.8 86.0773599943615
5097.66 86.2803896033031
5277.83 86.33858841886038
5463.87 86.46638487648367
5657.23 86.52772811454885
5856.45 86.68593299540616
6062.99 86.21016864151464
6276.86 86.35222120027925
6498.05 86.64920333300482
6726.56 86.33913035985309
6963.87 86.54795012502925
7209.96 86.65553828166632
7464.84 86.4933326018725
7727.05 86.43647995239624
7999.51 86.37910524502273
8282.23 86.17376799437646
8573.73 85.89124352895134
8876.95 85.69324319426131
9188.96 85.54521578396181
9514.16 85.546403883877
9849.61 85.66103815193937
10196.8 85.66912342734769
10555.7 85.5603788272882
10927.7 85.46874933262423
11313.0 85.44580961670752
11712.9 85.39724831032085
12126.0 85.31426145231076
12553.7 85.16975853900709
12996.1 84.99017664830453
13454.6 84.86707392599818
13929.2 84.8024062702748
14419.9 84.72336585405857
14928.2 84.69911548131547
15455.6 84.4986244347102
16000.5 84.2423325238269
16564.5 83.72290265608393
17148.9 83.22206430479605
17752.4 83.14800278503502
18379.4 83.09737468554553
19026.9 82.99461253274531
19697.8 82.87470710955878
19999.5 82.8989840219506
