Freq "On Axis"
22.4 30.0
23.0 30.599999999999994
23.6 31.30000000000001
24.0 32.400000000000006
25.0 33.599999999999994
25.8 35.30000000000001
26.5 36.900000000000006
27.2 38.599999999999994
28.0 40.099999999999994
29.0 40.69999999999999
30.0 42.5
30.7 44.19999999999999
31.5 45.69999999999999
32.5 47.099999999999994
33.5 48.19999999999999
34.5 49.19999999999999
35.5 50.30000000000001
36.5 51.099999999999994
37.5 51.80000000000001
38.7 52.400000000000006
40.0 53.099999999999994
41.2 53.80000000000001
42.5 54.30000000000001
43.7 54.69999999999999
45.0 55.19999999999999
46.2 55.900000000000006
47.5 56.5
48.7 57.0
50.0 57.599999999999994
51.5 58.0
53.0 58.400000000000006
54.5 58.599999999999994
56.0 58.8
58.0 58.8
60.0 59.0
61.5 59.099999999999994
63.0 59.2
65.0 59.5
67.0 59.70000000000002
69.0 59.599999999999994
71.0 59.2
73.0 59.0
75.0 59.0
77.5 59.5
80.0 60.7
82.5 62.20000000000002
85.0 64.0
87.5 66.19999999999999
90.0 68.1
92.5 69.9
95.0 71.6
97.5 73.0
100.0 74.2
103.0 75.2
106.0 76.1
109.0 77.1
112.0 78.0
115.0 78.8
118.0 79.4
122.0 79.9
125.0 80.2
128.0 80.4
132.0 80.80000000000001
136.0 81.0
140.0 81.19999999999999
145.0 81.4
150.0 81.5
155.0 81.7
160.0 81.9
165.0 82.0
170.0 82.20000000000002
175.0 82.4
180.0 82.6
185.0 82.8
190.0 83.1
195.0 83.0
200.0 83.0
206.0 83.1
212.0 83.0
218.0 82.9
224.0 82.5
230.0 82.20000000000002
236.0 81.9
240.0 81.8
250.0 81.3
258.0 80.80000000000001
265.0 80.5
272.0 81.0
280.0 81.4
290.0 81.9
300.0 82.20000000000002
307.0 82.6
315.0 83.1
325.0 83.69999999999999
335.0 85.0
345.0 85.5
355.0 85.7
365.0 86.0
375.0 86.5
387.0 86.4
400.0 86.5
412.0 85.9
425.0 87.0
437.0 86.8
450.0 86.0
462.0 86.0
475.0 85.4
487.0 84.9
500.0 84.4
515.0 85.7
530.0 83.5
545.0 81.5
560.0 80.1
580.0 78.0
600.0 77.0
615.0 76.1
630.0 75.4
650.0 76.7
670.0 77.0
690.0 78.0
710.0 79.6
730.0 79.5
750.0 78.9
775.0 78.0
800.0 78.5
825.0 78.8
850.0 78.6
875.0 77.6
900.0 75.80000000000001
925.0 77.20000000000002
950.0 81.0
975.0 81.7
1000.0 81.19999999999999
1030.0 83.2
1060.0 78.4
1090.0 81.19999999999999
1120.0 82.5
1150.0 80.6
1180.0 76.8
1220.0 80.6
1250.0 81.4
1280.0 80.2
1320.0 81.3
1360.0 83.9
1400.0 82.29999999999998
1450.0 79.6
1500.0 81.8
1550.0 81.7
1600.0 79.2
1650.0 82.29999999999998
1700.0 80.9
1750.0 79.2
1800.0 82.0
1850.0 77.6
1900.0 80.3
1950.0 81.5
2000.0 80.5
2060.0 83.8
2120.0 81.8
2180.0 83.30000000000001
2240.0 77.4
2300.0 81.9
2360.0 77.4
2400.0 81.0
2500.0 76.8
2580.0 80.80000000000001
2650.0 80.4
2720.0 78.69999999999999
2800.0 81.6
2900.0 79.2
3000.0 81.4
3070.0 82.9
3150.0 79.9
3250.0 80.6
3350.0 82.20000000000002
3450.0 80.4
3550.0 77.9
3650.0 80.1
3750.0 84.0
3870.0 85.5
4000.0 84.3
4120.0 81.5
4250.0 78.8
4370.0 77.6
4500.0 76.1
4620.0 76.3
4750.0 76.0
4870.0 76.0
5000.0 77.1
5150.0 79.70000000000002
5300.0 81.19999999999999
5450.0 78.4
5600.0 76.4
5800.0 80.5
6000.0 84.2
6150.0 83.8
6300.0 80.2
6500.0 81.5
6700.0 82.4
6900.0 86.0
7100.0 83.8
7300.0 85.1
7500.0 84.0
7750.0 81.8
8000.0 84.1
8250.0 82.7
8500.0 80.9
8750.0 80.6
9000.0 81.7
9250.0 82.8
9500.0 85.0
9750.0 82.8
10000.0 84.3
10300.0 87.1
10600.0 83.6
10900.0 85.2
11200.0 83.0
11500.0 80.9
11800.0 83.69999999999999
12200.0 84.3
12500.0 81.5
12800.0 78.0
13200.0 81.9
13600.0 83.30000000000001
14000.0 81.3
14500.0 83.1
15000.0 85.0
15500.0 85.6
16000.0 84.0
16500.0 82.20000000000002
17000.0 80.9
17500.0 76.8
18000.0 72.29999999999998
18500.0 76.1
19000.0 75.7
19500.0 74.6
