Freq,On Axis,Listening Window,Sound Power,Early Reflections,Early Reflections DI,Sound Power DI,DI offset
22.4,32.3,38.171407002737865,36.75503759708691,36.751558460110815,31.41984854262705,31.416369405650954,30
23.0,33.3,39.44666118904301,39.504913794987445,38.92343727724527,30.523223911797743,29.941747394055568,30
23.6,34.3,40.91840463774797,42.43329199165551,41.38074993226563,29.53765470548234,28.48511264609246,30
24.0,35.89999999999999,41.706995340329584,43.323883322622336,42.296226949241415,29.41076839108817,28.383112017707248,30
25.0,37.2,41.977775508537306,43.15332890189937,42.346715370983944,29.631060137553362,28.824446606637935,30
25.8,38.3,41.726035844353945,42.15215935424463,41.768604067828036,29.957431776525908,29.573876490109313,30
26.5,39.3,41.24039892435424,40.14316966592445,40.75101133438197,30.489387589972267,31.097229258429792,30
27.2,40.8,42.688482607167956,40.906546082170294,41.90237407470592,30.786108532462038,31.78193652499766,30
28.0,42.10000000000001,44.40160274876776,42.742724711786636,43.64247583514317,30.759126913624584,31.658878036981122,30
29.0,43.2,46.32249525317029,45.169619034531095,45.8846811622867,30.43781409088359,31.152876218639193,30
30.0,44.3,49.067184533241246,48.55605261488172,48.97397244570176,30.093212087539484,30.511131918359524,30
30.7,45.8,50.3227347991198,49.5003920229545,49.92503107092638,30.39770372819342,30.8223427761653,30
31.5,47.10000000000001,51.54981143788139,50.52573599750873,50.95246714426979,30.5973442936116,31.024075440372656,30
32.5,48.10000000000001,54.27070508008332,53.688481949422126,54.28678804395413,29.983917036129185,30.58222313066119,30
33.5,49.39999999999999,58.06326518802598,59.6058129534065,61.204798290738694,26.858466897287286,28.45745223461948,30
34.5,50.500000000000014,61.69555208996924,64.65889182716013,66.73237232928483,24.96317976068441,27.036660262809107,30
35.5,51.500000000000014,66.26109401281893,70.12833098459852,72.45091683286843,23.8101771799505,26.13276302822041,30
36.5,52.7,61.599841262553085,65.1612187246705,67.14078782496179,24.459053437591294,26.43862253788258,30
37.5,53.8,59.16233121660049,61.66440744910361,62.82347937964546,26.33885183695503,27.497923767496886,30
38.7,54.8,58.30397670321837,59.170634747166034,58.468414039884564,29.835562663333803,29.133341956052334,30
40.0,56.0,59.62404488056016,60.78497521547558,59.21340735179693,30.410637528763232,28.83906966508458,30
41.2,57.0,61.250701585332536,63.11000355329237,60.81548582716562,30.43521575816692,28.140698032040163,30
42.5,58.10000000000001,61.50161266543306,62.42197494065611,60.865851744534396,30.63576092089866,29.079637724776944,30
43.7,59.2,62.40005807028432,61.39767815870097,61.346867270382276,31.05319079990204,31.002379911583347,30
45.0,60.10000000000001,63.7950576133742,61.92013466373025,62.6344602120687,31.160597401305495,31.874922949643945,30
46.2,61.10000000000001,64.13652636942729,63.673588368026046,64.04049431832075,30.096032051106533,30.46293800140124,30
47.5,62.0,62.709196674586565,64.16435151865797,64.26788571213,28.44131096245657,28.5448451559286,30
48.7,62.8,61.46331976133018,62.0191037878579,62.408184777064676,29.055134984265507,29.444215973472282,30
50.0,63.5,62.013086092822036,61.43889749445492,62.07903408360049,29.934052009221546,30.574188598367115,30
51.5,64.3,63.678608205926366,62.0471618705901,62.95836286454296,30.720245341383404,31.631446335336264,30
53.0,65.0,64.6754663363341,62.81546450120899,63.773591281196076,30.90187505513802,31.860001835125104,30
54.5,65.6,65.14801851997936,63.30247468516224,64.23913227500691,30.90888624497245,31.84554383481712,30
56.0,66.3,65.73253963595175,63.905126363360054,64.83561197739344,30.89692765855831,31.8274132725917,30
58.0,67.0,66.5896562310564,64.8338789960397,65.7001223305411,30.88953390051529,31.755777235016694,30
60.0,67.60000000000001,67.34594053370735,65.69906651155952,66.49292381580086,30.853016717906485,31.646874022147827,30
61.5,68.4,68.05440604424795,66.57700259508108,67.24883959240142,30.80556645184653,31.47740344916687,30
63.0,69.00000000000001,68.6749697208159,67.27476301451941,67.88347986041899,30.791489860396908,31.400206706296487,30
65.0,69.7,69.31061212664623,67.90861680372242,68.49744208455577,30.813170042090462,31.40199532292381,30
67.0,70.3,69.97548435621877,68.60239472550813,69.19733944558298,30.77814491063579,31.373089630710638,30
69.0,70.8,70.54192888293812,69.23329425244756,69.8031201022668,30.73880878067132,31.30863463049056,30
71.0,71.3,71.06311578218117,69.84301068611441,70.39155487006792,30.67156091211325,31.22010509606676,30
73.0,71.7,71.63461706421344,70.6677316536685,71.1762518663571,30.458365197856338,30.966885410544947,30
75.0,72.1,72.0795305486396,71.36378471264568,71.71466794443764,30.36486260420196,30.715745835993914,30
77.5,72.5,72.45635648403187,71.98564625191018,72.17753432799745,30.278822156034423,30.47071023212169,30
80.0,72.99999999999999,72.95583957685776,72.76498127228619,72.84844224280143,30.10739733405633,30.190858304571563,30
82.5,73.6,73.48925841531062,73.51481741728593,73.48099745474164,30.008260960568975,29.97444099802469,30
85.0,74.09999999999998,74.03358982687998,74.2844987112982,74.13948189792072,29.894107928959258,29.749091115581777,30
87.5,74.5,74.4784901971291,74.90810323993934,74.68272855632448,29.795761640804628,29.57038695718977,30
90.0,75.0,74.88977136039705,75.23570344122929,75.04746054476335,29.842310815633695,29.65406791916776,30
92.5,75.40000000000002,75.33461706421345,75.40736716711508,75.36341237249559,29.97120469171786,29.927249897098363,30
95.0,75.8,75.88951489542681,75.69349682620793,75.80975489846776,30.079759996959055,30.19601806921888,30
97.5,76.2,76.28900192004663,75.93942778820852,76.13534961338934,30.153652306657293,30.34957413183811,30
100.0,76.50000000000001,76.58951489542683,76.13900087981936,76.39835866400055,30.191156231426277,30.450514015607467,30
103.0,76.89999999999999,76.92242205920519,76.46461064742127,76.72203774286386,30.200384316341328,30.457811411783922,30
106.0,77.1,77.18900192004665,76.70074192319235,76.97401106230508,30.21499085774157,30.488259996854296,30
109.0,77.3,77.41148068598392,76.83285462165827,77.16052090477005,30.250959781213865,30.578626064325647,30
112.0,77.60000000000001,77.60000000000001,76.80377578464974,77.24455574446287,30.355444255537137,30.796224215350264,30
115.0,77.7,77.76692185116049,76.95416560907962,77.3721640796358,30.394757771524695,30.812756242080866,30
118.0,77.90000000000002,77.8779759178138,77.06866669956736,77.47788728445947,30.40008863335433,30.80930921824644,30
122.0,77.99999999999999,77.97797591781377,77.09321913339707,77.52712056478818,30.450855353025588,30.884756784416695,30
125.0,78.1,78.0340975629221,77.03672454016865,77.51333095178977,30.52076661113233,30.99737302275345,30
128.0,78.1,78.10152320950179,77.10201579999917,77.58993154553733,30.511591663964467,30.999507409502627,30
132.0,78.2,78.13409756292212,77.17403385146405,77.63379147814474,30.500306084777378,30.960063711458076,30
136.0,78.2,78.13409756292212,77.14574495860454,77.62024329385726,30.513854269064865,30.988352604317583,30
140.0,78.2,78.11274477799039,76.92039107050647,77.4934611750311,30.619283602959285,31.192353707483917,30
145.0,78.2,78.11274477799039,76.80847660890862,77.40553723349377,30.70720754449661,31.304268169081766,30
150.0,78.2,78.04701360926961,76.76055637630353,77.35404265297565,30.692970956293962,31.286457232966086,30
155.0,78.2,78.06919486783487,76.69825219714446,77.34186015843852,30.727334709396345,31.37094267069041,30
160.0,78.2,78.04701360926961,76.59007678083384,77.27333000125107,30.773683608018544,31.456936828435772,30
165.0,78.2,78.00328449402554,76.53047301914091,77.21334136326705,30.789943130758488,31.472811474884622,30
170.0,78.1,77.88127710423244,76.39304795593118,77.07122721026002,30.81004989397242,31.488229148301258,30
175.0,77.99999999999999,77.76063752019827,76.22285904201725,76.89307857465575,30.867558945542527,31.537778478181025,30
180.0,77.99999999999999,77.67249821587467,76.05179813071527,76.73491027928634,30.93758793658833,31.6207000851594,30
185.0,77.90000000000002,77.55228863317659,75.84612649793179,76.53567602579888,31.01661260737771,31.706162135244796,30
190.0,77.90000000000002,77.467899681948,75.61083748638966,76.35785304549763,31.110046636450363,31.857062195558342,30
195.0,77.90000000000002,77.44621811131925,75.37716561900325,76.19992490110586,31.246293210213395,32.069052492316004,30
200.0,77.90000000000002,77.4268027411105,75.04112866903729,76.05497916768121,31.371823573429296,32.385674072073215,30
206.0,77.90000000000002,77.47179669420505,74.68705012571327,75.94811871141776,31.52367798278729,32.784746568491784,30
212.0,77.99999999999999,77.57179669420506,74.376369659195,75.88579911948078,31.685997574724283,33.195427035010056,30
218.0,77.99999999999999,77.63637674082395,74.16862741685235,75.88043241064575,31.755944330178195,33.4677493239716,30
224.0,78.1,77.69101239693367,74.01901023591607,75.90387324392485,31.787139153008823,33.6720021610176,30
230.0,78.1,77.73244780112606,73.9516786721236,75.90583610016317,31.826611700962886,33.78076912900245,30
236.0,77.99999999999999,77.69855684849736,73.89669280875111,75.86609652727485,31.832460321222513,33.80186403974625,30
240.0,77.99999999999999,77.67892674764836,73.87389209027155,75.83660061193048,31.842326135717883,33.80503465737681,30
250.0,77.90000000000002,77.57892674764837,73.7347403143544,75.72839607875201,31.850530668896354,33.84418643329397,30
258.0,77.8,77.52047706924544,73.66640435161422,75.71997610729375,31.8005009619517,33.854072717631226,30
265.0,77.8,77.51752171595781,73.796256542475,75.7896254675036,31.727896248454215,33.721265173482806,30
272.0,77.7,77.50578351092604,73.98363113752364,75.8980275988507,31.607755912075334,33.52215237340239,30
280.0,77.5,77.39177612109562,74.03817621314218,75.83052562607445,31.56125049502117,33.35359990795344,30
290.0,77.3,77.12621015383259,73.92162830792151,75.65589726339041,31.470312890442173,33.20458184591108,30
300.0,77.0,76.8917761210956,73.67720107048355,75.41461036000719,31.477165761088415,33.214575050612055,30
307.0,76.8,76.7356206840857,73.59175992582759,75.34135833953955,31.39426234454615,33.143860758258114,30
315.0,76.8,76.75837672536983,73.70485141259847,75.3805108437015,31.377865881668328,33.053525312771356,30
325.0,76.89999999999999,76.7722285934395,73.82275512161034,75.4157414742154,31.3564871192241,32.94947347182915,30
335.0,77.0,76.74037254002035,73.55721310929219,75.17136054372803,31.569011996292318,33.18315943072815,30
345.0,77.0,76.5694461931537,72.87920615537841,74.7129546732155,31.85649151993819,33.69024003777528,30
355.0,76.89999999999999,76.40334483879982,72.28891689831248,74.3800800141061,32.023264824693726,34.114427940487346,30
365.0,76.7,76.31058806937232,72.02909630179661,74.27452566472067,32.036062404651645,34.2814917675757,30
375.0,76.59999999999998,76.19542515610898,71.6752031043988,74.01700205610582,32.17842310000316,34.52022205171018,30
387.0,76.7,76.29542515610898,71.50140678264123,73.97394216229667,32.32148299381231,34.79401837346775,30
400.0,76.8,76.39542515610897,71.40110398194547,73.99865145492872,32.39677370118025,34.9943211741635,30
412.0,76.8,76.41453682579609,71.33235433304641,73.97721393501213,32.43732289078396,35.08218249274968,30
425.0,76.7,76.35574945230594,71.37089902956723,73.98166776219227,32.37408169011367,34.98485042273872,30
437.0,76.7,76.3596573775646,71.56739850058462,74.06433670331226,32.29532067425234,34.792258876979986,30
450.0,76.8,76.47892674764837,71.77096273696863,74.17040338185515,32.30852336579322,34.707964010679746,30
462.0,77.0,76.63637674082395,71.82515435713178,74.20890293334334,32.42747380748061,34.81122238369217,30
475.0,77.2,76.81453682579611,71.8810745684239,74.27503869357447,32.53949813222164,34.93346225737221,30
487.0,77.4,76.9077450913964,71.81189350429682,74.22589268108668,32.681852410309716,35.095851587099574,30
500.0,77.4,76.8674640767883,71.46415688126294,74.06195486306217,32.805509213726125,35.40330719552536,30
515.0,77.4,76.76175680640911,71.05144701399531,73.84627049657617,32.91548630983294,35.710309792413796,30
530.0,77.1,76.46433857803684,70.56396345964762,73.47184013718532,32.99249844085152,35.90037511838922,30
545.0,76.7,76.02859417947813,69.83992756774617,73.01042391533016,33.01817026414797,36.18866661173196,30
560.0,76.50000000000001,75.8916875025609,69.46719025524627,72.82528860990455,33.06639889265635,36.42449724731463,30
580.0,77.1,76.57177406021873,70.02144783839266,73.39660168278105,33.175172377437676,36.55032622182607,30
600.0,78.4,77.78961181833485,71.30907560214993,74.5763177341219,33.21329408421295,36.480536216184916,30
615.0,79.5,78.85042400605766,72.41627620026385,75.60928625660108,33.241137749456584,36.43414780579381,30
630.0,80.3,79.61178352947381,73.05662345780603,76.26625598092836,33.34552754854545,36.555160071667785,30
650.0,80.6,79.95698016349012,73.22208063966745,76.50121105840059,33.45576910508953,36.73489952382266,30
670.0,80.40000000000002,79.61534850683115,72.46497797765566,75.89734886672402,33.71799964010714,37.15037052917549,30
690.0,79.8,79.04041009261535,71.60213711790894,75.14320023206976,33.89720986054559,37.43827297470641,30
710.0,79.2,78.49474349573002,71.20750589075945,74.66113637596719,33.83360711976283,37.28723760497057,30
730.0,78.7,78.02709368725195,70.9547072548137,74.32395206458699,33.70314162266496,37.07238643243825,30
750.0,78.3,77.62606466865985,70.6189054562103,73.92486095766628,33.70120371099357,37.00715921244955,30
775.0,78.2,77.34643986154457,70.26020195913586,73.60223937449396,33.744200487050605,37.08623790240871,30
800.0,78.2,77.41647957748602,70.41958118499308,73.69844562607294,33.71803395141308,36.99689839249294,30
825.0,77.7,76.80648003132316,70.10234736247092,73.14300039483966,33.6634796364835,36.70413266885224,30
850.0,76.8,75.85997326823289,69.34826285927497,72.43554397907016,33.42442928916273,36.511710408957924,30
875.0,76.89999999999999,76.08314298891136,69.38871364585698,72.70274820172283,33.380394787188536,36.69442934305438,30
900.0,76.89999999999999,76.08314298891136,69.58149982511614,72.83330089995258,33.249842088958786,36.50164316379522,30
925.0,76.7,75.91534850683117,69.6126811794415,72.80962702609305,33.10572148073811,36.30266732738967,30
950.0,77.3,76.462030570967,70.33827872935701,73.4782229394409,32.983807631526105,36.12375184160999,30
975.0,77.90000000000002,77.01578156257507,71.26478371288913,74.42602944664358,32.58975211593149,35.750997849685945,30
1000.0,79.3,78.39482759821003,73.45961359941116,76.43202104967696,31.962806548533067,34.93521399879887,30
1030.0,80.2,79.38127689967487,75.19760843872815,78.09632810823477,31.2849487914401,34.18366846094672,30
1060.0,80.0,79.29184295177085,75.04363519286343,78.21851481260298,31.07332813916787,34.24820775890741,30
1090.0,79.39999999999999,78.90867236130477,75.10241209117636,78.23696010033042,30.671712260974346,33.806260270128405,30
1120.0,79.00000000000001,78.63536792754756,74.27466408284504,77.66189122584834,30.973476701699227,34.36070384470253,30
1150.0,78.8,78.22419679881106,73.21845997906186,76.86913371988759,31.35506307892348,35.0057368197492,30
1180.0,78.9,78.21402102461346,72.61505893619113,76.42763221209805,31.786388812515412,35.598962088422326,30
1220.0,79.00000000000001,78.36019776603838,72.3985836694043,76.24803479062338,32.112162975415,35.96161409663408,30
1250.0,79.2,78.43988072503717,71.8460371393699,75.82691329488863,32.612967430148544,36.59384358566727,30
1280.0,79.2,78.57741718859829,72.00573720501943,75.93405250679368,32.64336468180461,36.57167998357886,30
1320.0,78.7,77.93988072503716,70.83386999220835,74.9101375463246,33.02974317871255,37.10601073282881,30
1360.0,78.2,77.40056307129298,70.13118924215264,74.16578098980831,33.23478208148467,37.269373829140335,30
1400.0,77.3,76.62976391680266,69.51277006998151,73.3645004087868,33.26526350801586,37.116993846821146,30
1450.0,76.50000000000001,75.43165021532509,67.95936145580062,71.72614593269849,33.705504282626606,37.472288759524474,30
1500.0,75.9,74.8864906247967,67.68327575495061,71.01082455003744,33.875666074759266,37.20321486984609,30
1550.0,75.6,74.48088683074833,67.10781611177023,70.04017227549949,34.440714555248846,37.3730707189781,30
1600.0,76.89999999999999,75.99576896669126,69.46958675138298,71.88427297864074,34.11149598805052,36.52618221530828,30
1650.0,77.8,76.87601385649403,69.99175090723423,72.61209582362525,34.26391803286877,36.88426294925979,30
1700.0,78.2,77.43881786146872,71.0581802720236,73.59565609926322,33.8431617622055,36.380637589445115,30
1750.0,78.5,77.73434461081597,71.25566669954863,74.24771221290509,33.48663239791088,36.47867791126734,30
1800.0,78.7,78.01879470293729,71.58377968044685,74.71964857508216,33.299146127855124,36.43501502249043,30
1850.0,79.00000000000001,78.27334490465857,71.05666138212305,74.76382125072526,33.509523653933314,37.21668352253552,30
1900.0,79.6,78.57427981924063,70.82480099749402,74.87769792021452,33.696581899026114,37.74947882174661,30
1950.0,80.0,78.64464488787006,70.6199976614345,74.76507295310603,33.87957193476403,38.02464722643556,30
2000.0,80.6,79.04269347391512,70.49454124842177,74.84412792426218,34.19856554965294,38.548152225493354,30
2060.0,81.0,79.55119004831776,70.88806859115954,75.30783123515208,34.243358813165685,38.663121457158226,30
2120.0,81.0,79.20036137114727,70.78413494859042,75.0616703934628,34.13869097768446,38.416226422556846,30
2180.0,79.39999999999999,77.53022857805779,69.31778228786591,73.44412375631835,34.08610482173944,38.21244629019188,30
2240.0,78.7,77.33359835368134,69.26707026934243,73.41272971272699,33.92086864095435,38.06652808433891,30
2300.0,79.39999999999999,77.81287580997117,69.5053456089191,73.62128862897477,34.19158718099641,38.307530201052074,30
2360.0,79.8,78.33057001254785,70.69456430542317,74.36990565438549,33.96066435816236,37.63600570712468,30
2400.0,79.7,78.49634117322405,70.97267891739516,74.47471558194727,34.02162559127679,37.523662255828896,30
2500.0,79.7,78.44881563539073,70.17535766404242,74.1065880410555,34.34222759433523,38.27345797134831,30
2580.0,79.6,78.25804036128474,69.8023160495674,73.88299053277088,34.375049828513866,38.45572431171735,30
2650.0,79.3,77.90247204024625,69.41931012772942,73.57506764211078,34.32740439813547,38.483161912516834,30
2720.0,78.9,77.28459015463889,68.75226616582795,73.09577641889986,34.18881373573903,38.532323988810944,30
2800.0,79.7,77.96036400269078,68.85627231581103,73.53946226897226,34.42090173371852,39.104091686879755,30
2900.0,79.8,77.81298786740099,68.80374495158922,73.51482466332781,34.29816320407318,39.00924291581177,30
3000.0,80.0,77.81705581595854,68.92426678035876,73.43301206871686,34.38404374724168,38.892789035599776,30
3070.0,79.7,77.66563664406497,68.79201658948253,73.20724822979672,34.458388414268256,38.873620054582446,30
3150.0,79.2,77.18578432776289,68.34263810549122,72.83439560124172,34.351388726521165,38.84314622227167,30
3250.0,79.00000000000001,76.71555470625734,68.67415127316669,73.00943194902398,33.70612275723336,38.04140343309065,30
3350.0,77.5,76.31186306488651,68.49241783192171,72.81709883073188,33.49476423415463,37.819445232964796,30
3450.0,76.89999999999999,76.64958809115487,68.15023932736912,72.59556719236333,34.054020898791535,38.49934876378575,30
3550.0,76.50000000000001,76.7768572802778,68.04549927081423,72.60861232481793,34.16824495545987,38.73135800946356,30
3650.0,76.0,76.55426418109992,67.7192993639433,72.33751633069015,34.216747850409774,38.83496481715662,30
3750.0,74.8,76.21780613278044,67.8708778342046,72.40254484594102,33.815261286839416,38.34692829857583,30
3870.0,72.90000000000002,76.13201109585894,68.51031828214032,72.86375643091408,33.26825466494486,37.621692813718624,30
4000.0,76.1,77.82466054409856,69.52412963156999,73.87783750720747,33.94682303689109,38.30053091252857,30
4120.0,78.1,78.58884441015566,70.01693074420692,74.58473656184495,34.00410784831071,38.57191366594874,30
4250.0,78.1,77.93096588092952,69.0494521143492,73.81554436282555,34.11542151810397,38.881513766580326,30
