Freq "Floor Bounce"
20.5078 46.694366912276905
21.9727 54.10144417869819
23.4375 54.86655612005572
24.9023 55.8050000206031
26.3672 57.35654842504147
27.832 60.05406374101864
29.2969 62.11226561601421
30.7617 63.44866046619556
32.2266 65.08373547554311
33.6914 66.56569155053108
35.1563 67.99119706491183
36.6211 69.08049799488788
38.0859 70.73082508440231
39.5508 72.0725930379219
41.0156 73.17966681668528
42.4805 74.49825767352618
43.9453 75.44112547934321
45.4102 76.23508079224895
46.875 76.9920128638596
48.3398 77.74918411857676
51.2695 78.95496909732049
52.7344 79.67813120463067
54.1992 80.15651641153346
55.6641 80.56006725472884
58.5938 81.3580367419906
60.0586 81.57704909267521
62.9883 82.16466001501362
64.4531 82.46373098052065
67.3828 82.88810650760513
68.8477 83.09927693088065
71.7773 83.58725877939068
74.707 83.97190545473974
77.6367 84.21184740368686
79.1016 84.3243386079651
82.0313 84.64335600592604
84.9609 84.94631416206435
87.8906 85.12161065601497
90.8203 85.31008079311282
95.2148 85.5922296228491
98.1445 85.71941707507608
101.074 85.8452360508324
105.469 86.0130946870923
108.398 86.19234649853053
112.793 86.43516401871081
117.188 86.56030039734262
120.117 86.65154343559564
124.512 86.80311830583463
128.906 86.83645680363242
133.301 86.87023931911573
139.16 86.84333162759576
143.555 86.82928920199868
147.949 86.77090822889268
153.809 86.66632862142814
159.668 86.83193086079932
165.527 86.80925430788676
171.387 86.69871506246417
177.246 86.59609517275166
183.105 86.37684850386114
188.965 86.21660940172465
196.289 86.26054476573984
203.613 86.07409832290733
210.938 86.01748694182142
218.262 85.87908964569819
225.586 85.75410693337174
232.91 85.8482332711148
241.699 85.87586082147129
250.488 85.60205329478663
259.277 85.62662497013254
268.066 85.42242535703748
276.855 85.21687405085308
287.109 85.12627333502263
297.363 85.18542331245062
307.617 85.39753159152303
319.336 85.37319737892196
329.59 85.76863512114457
341.309 85.5772572625016
353.027 85.5102683850836
366.211 85.63677297946751
379.395 86.04891724437732
392.578 86.04371566973794
405.762 85.34321828161528
420.41 85.66404063612242
435.059 85.09648092804221
451.172 84.73306955924592
465.82 83.95145667301561
483.398 83.0885330615976
499.512 83.351271090556
517.09 83.7399643098171
536.133 82.64272685626361
555.176 82.34251628498967
574.219 82.40773542464586
594.727 82.47777843009224
615.234 82.537559761873
637.207 81.73206056472654
659.18 82.91184908350604
682.617 82.780681592445
707.52 83.42705181720979
732.422 84.47181508014698
757.324 85.10345089390273
785.156 85.90750903203826
811.523 86.13704062166327
840.82 86.71155720232898
870.117 86.99021068887805
900.879 87.0365714482998
933.105 86.7935983049889
965.332 87.25473780579173
1000.49 87.40741941433161
1035.64 87.60181244489998
1072.27 87.75607483625647
1108.89 88.25517091794066
1148.44 88.24572018051292
1189.45 87.76789221306561
1230.47 86.65661073522874
1274.41 86.16673579096172
1319.82 86.12289846921578
1366.7 86.19694583913109
1413.57 85.88752508592472
1463.38 85.59749332503881
1516.11 85.63472666363606
1568.85 85.94322990665815
1624.51 86.22820377075138
1681.64 85.91227698250634
1741.7 85.69558757625991
1803.22 85.20491779788946
1866.21 84.45705821805645
1932.13 83.05201956781502
1999.51 81.63965030430764
2069.82 81.97553850366856
2143.07 81.97733690903391
2219.24 81.78291168379188
2296.88 83.33290434954131
2378.91 85.18896378144233
2462.4 85.89880597428643
2548.83 84.09318845036373
2639.65 84.06634501142419
2731.93 85.39475669188838
2828.61 86.40156622340814
2928.22 86.97757863573874
3030.76 86.99088958931334
3137.7 86.81644697563286
3249.02 86.63520517385982
3363.28 86.14324373785078
3481.93 85.52448295502072
3604.98 84.90203928528821
3732.42 84.79905874476592
3864.26 84.78953362961637
4000.49 84.87278539909954
4141.11 84.85981661806207
4287.6 85.3322208500386
4438.48 85.09982205747704
4595.21 84.76131910430598
4756.35 84.5682652249583
4924.8 82.62459522187231
5097.66 84.3078619554986
5277.83 86.48406766945104
5463.87 87.40168650061533
5657.23 88.0442527156197
5856.45 88.19808607369646
6062.99 88.07600907731748
6276.86 87.46718348518706
6498.05 87.00291958231065
6726.56 87.05234093271659
6963.87 87.03460297519064
7209.96 86.79167901935024
7464.84 86.4930475331214
7727.05 86.33767045491527
7999.51 86.26326588306961
8282.23 85.64321666303171
8573.73 84.95773280957336
8876.95 85.12260769368513
9188.96 85.52522671472079
9514.16 85.4063449323476
9849.61 85.76223291458805
10196.8 86.19681776935096
10555.7 87.6170198353511
10927.7 88.77815884541243
11313.0 88.56545750047657
11712.9 87.96961210357271
12126.0 86.29706372225701
12553.7 85.61441891726702
12996.1 83.47611481457884
13454.6 80.89396174481108
13929.2 79.19847222337643
14419.9 83.7267463333147
14928.2 83.72966061242288
15455.6 72.7909670924912
16000.5 79.5830119895231
16564.5 83.39237924972258
17148.9 76.80981295505435
17752.4 75.65336101511532
18379.4 78.70136470275091
19026.9 81.51393450227836
19697.8 79.85029699540381
19999.5 74.89545997403422
