Freq "Front Wall Bounce"
20.5078 43.414944095101276
21.9727 51.154728996399086
23.4375 53.69364177311036
24.9023 54.3301614331001
26.3672 55.2235143559721
27.832 58.53896438963781
29.2969 60.87199754424387
30.7617 62.39281501371204
32.2266 64.07684067352997
33.6914 65.68298676407834
35.1563 67.20640164328054
36.6211 68.34275026091754
38.0859 70.03012246661079
39.5508 71.44350718464194
41.0156 72.47239964031067
42.4805 73.94499837000814
43.9453 74.93979104605471
45.4102 75.76320481955732
46.875 76.53906223959204
48.3398 77.32139133062046
51.2695 78.57556360381679
52.7344 79.32010941581673
54.1992 79.82386233803604
55.6641 80.24275373679768
58.5938 81.06926562835795
60.0586 81.29954172213556
62.9883 81.9089649591198
64.4531 82.22085139050405
67.3828 82.66560874288928
68.8477 82.88295146095365
71.7773 83.39751069624356
74.707 83.80514233413712
77.6367 84.05868290109248
79.1016 84.17588057541971
82.0313 84.50778082888047
84.9609 84.82212170557739
87.8906 85.01501368122464
90.8203 85.21273956380347
95.2148 85.51196607974512
98.1445 85.65424240047169
101.074 85.79090707751043
105.469 85.99138225416458
108.398 86.2032889543534
112.793 86.4316052037182
117.188 86.56985776275637
120.117 86.68332204329009
124.512 86.82466137981429
128.906 86.86142223301667
133.301 86.9026223563319
139.16 86.88040357715549
143.555 86.87690796063265
147.949 86.83163183903486
153.809 86.7788104800966
159.668 86.96831654072383
165.527 86.94296574633583
171.387 86.8378672640053
177.246 86.73758626136492
183.105 86.54520060465154
188.965 86.45506498794822
196.289 86.54434964839109
203.613 86.39134388533887
210.938 86.32565978135884
218.262 86.2526450391966
225.586 86.1517478089987
232.91 86.30460046991331
241.699 86.22870634117444
250.488 86.01749971095883
259.277 86.0004205180033
268.066 85.76693002574082
276.855 85.66331793830095
287.109 85.67865862440692
297.363 85.7856607272429
307.617 85.97508406222956
319.336 86.00439120895523
329.59 86.25049381149574
341.309 85.90627307299128
353.027 85.94181586730447
366.211 86.08456698757767
379.395 86.51267853783322
392.578 86.09141968267969
405.762 85.6408212857741
420.41 86.04927381247498
435.059 85.19688516707998
451.172 84.9085402792528
465.82 84.04472031913498
483.398 83.2684931134171
499.512 83.75266697801668
517.09 84.14837265340694
536.133 82.84037073833989
555.176 82.64998630413103
574.219 82.77665054168091
594.727 82.39377830706329
615.234 82.31835146930666
637.207 82.07207083422273
659.18 83.30616829359343
682.617 83.18176137995104
707.52 84.08911191331683
732.422 85.03044807869102
757.324 85.64008676310803
785.156 86.23375296796377
811.523 86.1326922009439
840.82 85.98208091893244
870.117 85.80069769959675
900.879 85.85460478725214
933.105 86.02597244198256
965.332 86.51878215452903
1000.49 86.61631180862722
1035.64 86.44878371830197
1072.27 86.80592124765381
1108.89 86.77344028967852
1148.44 86.84629245333201
1189.45 86.98451188009078
1230.47 86.0163559374079
1274.41 85.37681770348492
1319.82 85.33477674743531
1366.7 85.56048101469663
1413.57 85.51920028727265
1463.38 86.15163151420631
1516.11 87.02893440727131
1568.85 87.42673709942574
1624.51 87.16507063650282
1681.64 87.18258433308094
1741.7 87.3279589382585
1803.22 86.59907887226798
1866.21 85.0125767675115
1932.13 83.90743210730963
1999.51 82.86913889002746
2069.82 82.11562549136468
2143.07 82.61001820348244
2219.24 83.75403765829374
2296.88 84.0280716377586
2378.91 85.78068035596908
2462.4 85.95788105845426
2548.83 83.30270139344547
2639.65 84.34596081850236
2731.93 85.47338149110311
2828.61 86.58289827456494
2928.22 87.81417421653406
3030.76 88.26183209476727
3137.7 88.34955325208867
3249.02 88.58431517806513
3363.28 88.38351612997565
3481.93 88.12819131335505
3604.98 87.52452967494995
3732.42 87.12194178725646
3864.26 87.97428414218238
4000.49 87.53348566501703
4141.11 87.7023591041304
4287.6 87.45440795720663
4438.48 87.19214852632595
4595.21 86.7847682343795
4756.35 85.99803690190468
4924.8 83.6927669929536
5097.66 85.30008846911886
5277.83 87.3159560637577
5463.87 87.75795337851683
5657.23 88.10729282556726
5856.45 88.24942900926912
6062.99 87.92583079947033
6276.86 88.16818208126674
6498.05 88.58348685851303
6726.56 88.39508967371015
6963.87 88.16534508438444
7209.96 87.97255345299749
7464.84 87.86561767516062
7727.05 87.73463063166065
7999.51 88.05471576122764
8282.23 87.67165017793792
8573.73 86.93842602783398
8876.95 86.86281201036337
9188.96 87.70480779145538
9514.16 88.02777857293363
9849.61 88.86118201925399
10196.8 89.0929714532234
10555.7 89.30291170708774
10927.7 90.70972240599686
11313.0 91.41493693724293
11712.9 90.54871933969045
12126.0 88.14968852410362
12553.7 85.76192470594032
12996.1 83.3601475531481
13454.6 82.9314014075562
13929.2 84.73114680772804
14419.9 87.63301452931434
14928.2 87.72473621468207
15455.6 78.38992265623119
16000.5 82.80660985470583
16564.5 87.19885190362254
17148.9 80.96241206986389
17752.4 81.56779993186132
18379.4 84.09149714637861
19026.9 86.62914663704932
19697.8 86.29076744306658
19999.5 82.36329870008758
