Freq "Ceiling Bounce"
20.0 64.38440535166133
20.2909 64.62871574093701
20.586 64.86748065869806
20.8855 65.13048065869806
21.1893 65.32848065869804
21.4975 65.45439888200731
21.8102 65.58720154389194
22.1274 65.81680310345864
22.4492 66.13643638241403
22.7758 66.47743638241401
23.1071 66.83243638241402
23.4432 67.02310962791846
23.7841 67.1156203026434
24.1301 67.1660110014561
24.4811 67.3990110014561
24.8372 67.66601100145611
25.1984 68.05201100145611
25.5649 68.33556990788105
25.9368 68.62648065869806
26.3141 68.80248065869806
26.6968 68.87648065869806
27.0851 68.91249941373714
27.4791 68.96848065869806
27.8788 69.22848065869806
28.2843 69.40448065869806
28.6957 69.7561016687598
29.1131 69.99891753607201
29.5365 70.30548065869804
29.9661 70.53273939875518
30.402 70.89922317101029
30.8442 71.0059249327549
31.2929 71.18448858393596
31.748 71.29068164002071
32.2098 71.50901647940846
32.6783 71.88748858393596
33.1536 72.21548858393597
33.6359 72.48962934193584
34.1251 72.69530108843874
34.6215 72.90259135789215
35.125 73.2479285119686
35.6359 73.48903156258137
36.1543 73.75403156258137
36.6802 74.10348557535059
37.2137 74.30791298492011
37.755 74.498114336407
38.3041 74.57550424105965
38.8613 74.75142288389209
39.4265 75.09715155912154
40.0 75.2065695113914
40.5818 75.46112407914188
41.1721 75.48050730039002
41.771 75.74437608895616
42.3785 75.94610626821624
42.9949 76.19641255674907
43.6203 76.3390501867453
44.2548 76.66340733735898
44.8985 76.95741255674908
45.5515 77.19841255674908
46.2141 77.28503101798766
46.8863 77.48670926573102
47.5683 77.75977468431833
48.2602 77.96727082890415
48.9621 78.24827082890415
49.6743 78.36327082890415
50.3968 78.52227082890415
51.1299 78.81527082890416
51.8736 79.18070926573101
52.6281 79.32395219036071
53.3936 79.50127082890417
54.1702 79.93127082890416
54.9581 80.20940876206164
55.7575 80.19227082890416
56.5685 80.47393510835481
57.3914 80.62961763316073
58.2261 80.92865209591598
59.073 81.06327082890417
59.9323 81.22865209591596
60.804 81.43265209591597
61.6884 81.62262789693438
62.5857 81.86978548096472
63.496 82.201745838295
64.4196 82.41965209591596
65.3566 82.47565209591598
66.3073 82.84565209591597
67.2717 83.0528304605834
68.2502 83.19165209591597
69.2429 83.32565209591597
70.2501 83.62865209591597
71.2719 83.72865209591596
72.3086 83.94416603886349
73.3603 84.27265209591597
74.4274 84.51291309056019
75.5099 84.72865209591598
76.6083 84.92865209591595
77.7226 85.21765209591597
78.8531 85.33765209591597
80.0 85.38365209591596
81.1636 85.63065209591595
82.3442 85.74365209591596
83.5419 85.8331230849769
84.757 85.93165209591596
85.9899 86.24365209591596
87.2406 86.42465209591597
88.5096 86.65965209591597
89.797 86.87495763456509
91.1031 87.07865209591597
92.4282 87.26865209591598
93.7726 87.3671789927699
95.1366 87.64565209591596
96.5204 87.74148413462021
97.9243 87.82865209591597
99.3486 87.76327082890417
100.794 87.86165209591596
102.26 87.90356828456915
103.747 88.04327082890416
105.256 88.19227082890416
106.787 88.31327082890417
108.34 88.33027082890416
109.916 88.46941182491692
111.515 88.59227082890415
113.137 88.66327082890416
114.783 88.73170926573103
116.452 88.65541255674907
118.146 88.69227082890417
119.865 88.8543325649905
121.608 88.88441255674907
123.377 88.80171923825776
125.171 88.7733279458152
126.992 88.79841255674906
128.839 88.82731653703189
130.713 88.69610626821624
132.615 88.79833127725334
134.543 88.72409305849261
136.5 88.77403156258138
138.486 88.75644049741119
140.5 88.62582886619525
142.544 88.37278838221091
144.617 88.23948858393597
146.721 88.16214442104231
148.855 88.0714125532392
151.02 87.91913239213757
153.217 87.8932215836312
155.445 87.84643638241401
157.706 87.79929313841365
160.0 87.68101626603412
162.327 87.58159516643853
164.688 87.48387381716213
167.084 87.30116770812074
169.514 87.3329205490537
171.98 87.25392054905369
174.481 87.28378845069756
177.019 87.19208971845852
179.594 87.05585575764853
182.206 87.07519010279309
184.856 87.01208971845851
187.545 87.01036141779858
190.273 86.99590184712834
193.041 87.01718696533682
195.849 86.98948330680106
198.697 86.9197290308619
201.587 86.88982924040069
204.52 86.8738292404007
207.494 86.8798292404007
210.512 86.88482924040069
213.574 86.86575260828839
216.681 86.86003268630277
219.833 86.86522713681683
223.03 86.87717202497022
226.274 86.82002500267713
229.565 86.81491973351238
232.905 86.8118341841963
236.292 86.77835342213355
239.729 86.74637262849295
243.216 86.7581499334993
246.754 86.73398595157504
250.343 86.68130732083355
253.984 86.65914993349931
257.678 86.64002301093205
261.426 86.63763171492201
265.229 86.68458657878516
269.087 86.73504099700502
273.001 86.76590486136946
276.972 86.82016791218975
281.0 86.87305491905455
285.088 86.94260745770441
289.234 87.09874839747869
293.441 87.19958371698846
297.709 87.28199864475059
302.04 87.3310378377173
306.433 87.37312693139343
310.89 87.3819986447506
315.412 87.34977606438635
320.0 87.3819986447506
324.655 87.43661716709433
329.377 87.37602362702306
334.168 87.28388686512369
339.028 87.19318474510153
343.959 87.110702762624
348.962 87.18199864475059
354.038 87.18199864475059
359.188 87.13025389084994
364.412 87.10179961879695
369.713 87.12348593081602
375.09 87.27967824340566
380.546 87.37495440276655
386.081 87.48598040917697
391.697 87.57570622715542
397.394 87.6563443962435
403.175 87.79370659660528
409.039 87.88000957624405
414.989 87.95075250201849
421.025 87.98199864475059
427.149 87.94896695189279
433.362 87.8819986447506
439.665 87.82318741751767
446.06 87.68199864475059
452.548 87.64157388686819
459.131 87.56902611810754
465.809 87.49855543915154
472.584 87.4511249624024
479.458 87.35569911658455
486.432 87.40626335146634
493.507 87.31082253796528
500.686 87.33012744321988
507.968 87.33661755518317
515.357 87.29688867987093
522.853 87.37840892858314
530.458 87.31082253796528
538.174 87.31082253796528
546.002 87.24250730727401
553.943 87.28115167862023
562.001 87.25651385756667
570.175 87.35597873960891
578.469 87.37884404713357
586.883 87.50922876480935
595.419 87.56000486546496
604.08 87.72416419765507
612.866 87.8840717220995
621.78 87.92882969093488
630.824 88.06018087355353
640.0 88.06485413320927
649.309 88.1312388893378
658.753 88.1924124576929
668.335 88.2490224287205
678.056 88.21353912623655
687.919 88.25726352260864
697.925 88.32402024138584
708.077 88.42036219875999
718.376 88.53882959258333
728.825 88.57478021539472
739.426 88.44024906016713
750.181 88.4503931505975
761.093 88.35137779008272
772.163 88.19770775707322
783.394 88.14108313807078
794.789 87.9026179786794
806.349 87.61163873317732
818.078 87.27034698180553
829.977 86.88525042277064
842.05 86.43826728085367
854.298 85.93008676145261
866.724 85.4964855858464
879.33 84.95683437127632
892.12 84.4813557851387
905.097 84.19297779530932
918.262 83.99183484258239
931.618 84.04513467317663
945.169 84.09986896104016
958.917 84.13047010061395
972.864 84.25520477630421
987.015 84.21678122122758
1001.37 84.22076440784394
1015.94 84.04414630767269
1030.71 83.87050670151503
1045.71 83.50380168102168
1060.92 83.22587512601588
1076.35 82.94224277295338
1092.0 82.81219952747934
1107.89 82.85086929658654
1124.0 82.97062174016726
1140.35 82.92847309722518
1156.94 82.80155169314374
1173.77 82.62768201129553
1190.84 82.49650083484676
1208.16 82.40000527240042
1225.73 82.26874425950614
1243.56 82.16195114756353
1261.65 82.09559607904922
1280.0 82.00672935017063
1298.62 82.04258661912836
1317.51 82.21115182481749
1336.67 82.50699523968409
1356.11 82.78671843494627
1375.84 82.83610301759701
1395.85 82.58139090467246
1416.15 82.16109213755553
1436.75 81.83428655589991
1457.65 81.59013195599252
1478.85 81.45751167385556
1500.36 81.23194326558722
1522.19 81.0586636397103
1544.33 81.1679755781858
1566.79 81.6332068168907
1589.58 82.306586418762
1612.7 82.93384159811444
1636.16 83.37551828850592
1659.95 83.68898712910335
1684.1 84.05883437664662
1708.6 84.45946799610184
1733.45 84.70918583216603
1758.66 84.84577624854522
1784.24 84.85187290949018
1810.19 84.68415781746933
1836.52 84.40836764172711
1863.24 84.33592051118664
1890.34 84.23282322127613
1917.83 84.15555675853142
1945.73 84.15745908639353
1974.03 84.10040658621658
2002.74 83.86392689325204
2031.87 83.6393468369523
2061.43 83.42616181453367
2091.41 83.22589797336492
2121.83 82.9170440164622
2152.69 82.66859092798454
2184.01 82.7230394392962
2215.77 82.77641999522459
2248.0 82.75570570716333
2280.7 82.75441358563667
2313.87 82.5640111911973
2347.53 82.43671609622177
2381.68 82.44339452297893
2416.32 82.38296881198492
2451.46 82.27693968583897
2487.12 82.10239609935913
2523.3 81.82881440656207
2560.0 81.55360482634133
2597.24 81.34836267649773
2635.01 81.16945177935969
2673.34 80.92661093690388
2712.23 80.61301584991739
2751.68 80.46401589150604
2791.7 80.285039686709
2832.31 80.15447876902846
2873.5 79.97883323175472
2915.3 79.79396658628895
2957.7 79.6124460486412
3000.72 79.46498271461095
3044.37 79.25537017481369
3088.65 79.0481574965873
3133.58 79.00183689892471
3179.16 79.00742869867081
3225.4 79.1566258371844
3272.31 79.24516020520566
3319.91 79.31665940125114
3368.2 79.46258150889179
3417.19 79.61994175410317
3466.89 79.83419420692968
3517.32 79.84129980714143
3568.48 79.95480328190007
3620.39 80.16591203419115
3673.05 80.42261800055611
3726.47 80.5049503195198
3780.67 80.56378981763463
3835.67 80.70932547308041
3891.46 80.9254981587055
3948.06 81.00437939112142
4005.49 81.01752531741913
4063.75 81.21034953545548
4122.86 81.25745738603824
4182.82 81.13355876477881
4243.66 81.07924521236791
4305.39 81.14565345924204
4368.01 81.175552802422
4431.55 81.22791400911551
4496.01 81.33055415304749
4561.4 81.48456810722011
4627.75 81.60961337225609
4695.06 81.6824534653603
4763.35 81.58972478144014
4832.64 81.28440260454433
4902.93 81.03709259289735
4974.24 80.94912918473061
5046.6 80.97991812988512
5120.0 81.04595900877422
5194.47 80.97311997533927
5270.03 80.89007298795161
5346.68 80.80132889059884
5424.45 80.53301313925742
5503.35 80.33028921827572
5583.4 80.25387714889105
5664.61 80.06659913913012
5747.01 79.98677269576076
5830.6 79.91528802423666
5915.41 79.50829729784384
6001.45 79.34510090982513
6088.74 79.15528053392686
6177.3 79.10363165826845
6267.15 79.16696477404194
6358.31 79.05387988030887
6450.8 78.95370209056267
6544.62 78.79615160671675
6639.82 78.83374536548511
6736.4 79.1047988995784
6834.38 79.32395056554067
6933.79 79.50624866814844
7034.64 79.53574018228322
7136.96 79.64327014672607
7240.77 79.73704846279809
7346.09 79.72197688316157
7452.94 79.56239889736472
7561.35 79.45657821710985
7671.33 79.44225712317011
7782.91 79.5868240095031
7896.12 79.56343965729081
8010.97 79.44240831257787
8127.49 79.52944298163759
8245.71 79.88709108082479
8365.65 80.07073978252653
8487.33 79.89497989298711
8610.78 79.52828476624403
8736.03 79.4473604851332
8863.09 79.61901898355038
8992.01 79.54557382817096
9122.8 79.29201825014674
9255.5 79.39945054242081
9390.12 79.48956293146908
9526.7 79.42761115820527
9665.27 79.34929633509886
9805.86 79.60740049081731
9948.49 79.89261667811475
10093.2 79.86995521501754
10240.0 79.88676388454967
10388.9 79.89619814872528
10540.1 79.84364682303243
10693.4 79.96835156067542
10848.9 80.07839955560337
11006.7 79.84885876106921
11166.8 79.69717651498746
11329.2 79.7204994292511
11494.0 79.73040502731224
11661.2 79.73929612101443
11830.8 79.75466655809394
12002.9 79.59282553862569
12177.5 79.3399572248898
12354.6 79.10241165597051
12534.3 78.8183265130543
12716.6 78.65535793617512
12901.6 78.85073701480304
13089.2 79.22109110925115
13279.6 79.53167795129126
13472.8 79.82548684492458
13668.8 80.05534660345197
13867.6 80.12006328242941
14069.3 79.98550042178067
14273.9 79.64335202740891
14481.5 79.32243557530072
14692.2 79.17040856995747
14905.9 79.08512635414618
15122.7 79.12376310036926
15342.7 79.20468940598766
15565.8 79.21478426903899
15792.2 79.10008489232787
16021.9 78.74535116042033
16255.0 78.34193139111406
16491.4 77.95244197966302
16731.3 77.6887030069992
16974.7 77.60049060387625
17221.6 77.30251960745647
17472.1 76.44882741117267
17726.2 74.93134982862955
17984.0 72.3994262576847
18245.6 69.44321857192344
18511.0 67.86233685990167
18780.2 67.59871604052748
19053.4 67.68713988912637
19330.5 68.22073101909572
19611.7 68.71092145082736
19897.0 68.68253134111933
