Freq "Rear Wall Bounce"
20.0 64.30703376356622
20.2909 64.54610076450409
20.586 64.78317449337784
20.8855 65.03554910492399
21.1893 65.20706526824868
21.4975 65.33134251344332
21.8102 65.4632459084119
22.1274 65.69328154674851
22.4492 66.01188075502772
22.7758 66.3421551050158
23.1071 66.68712323810539
23.4432 66.8680260493043
23.7841 66.97648203005065
24.1301 67.02483899274016
24.4811 67.23864959266777
24.8372 67.50235125476213
25.1984 67.8804426826828
25.5649 68.18019813413726
25.9368 68.45569002569205
26.3141 68.59950242181678
26.6968 68.66894668460692
27.0851 68.73885147327698
27.4791 68.82190410182778
27.8788 69.0648657147852
28.2843 69.18507435561855
28.6957 69.53061578542837
29.1131 69.80702365731366
29.5365 70.11030229079408
29.9661 70.33020464694673
30.402 70.68220876992832
30.8442 70.81505322485285
31.2929 70.97211737838967
31.748 71.08602577844485
32.2098 71.31071795177009
32.6783 71.66058271021521
33.1536 72.00839954673346
33.6359 72.28548803801696
34.1251 72.47489561635727
34.6215 72.69224202436553
35.125 73.02458292416891
35.6359 73.29130676469624
36.1543 73.55077165849585
36.6802 73.87885667355879
37.2137 74.10463928727287
37.755 74.26213697511373
38.3041 74.35219068707895
38.8613 74.54266111549295
39.4265 74.87834139397472
40.0 74.97895172111954
40.5818 75.24189701569624
41.1721 75.27587272062567
41.771 75.51211342522187
42.3785 75.72831698464853
42.9949 75.98775509785503
43.6203 76.14004626497385
44.2548 76.43205669058646
44.8985 76.72585606931098
45.5515 76.99659480206314
46.2141 77.07764093076234
46.8863 77.2571771343912
47.5683 77.52958738394322
48.2602 77.73576059503989
48.9621 78.0167605950399
49.6743 78.13748767234968
50.3968 78.28981689221091
51.1299 78.56107136078573
51.8736 78.94727766291433
52.6281 79.13866387201735
53.3936 79.28054811424923
54.1702 79.6848775922956
54.9581 79.9868499499505
55.7575 79.9782181880996
56.5685 80.2430261771338
57.3914 80.41271432984351
58.2261 80.7160261771338
59.073 80.84341425030725
59.9323 80.99881661212503
60.804 81.2382062360407
61.6884 81.41105850828987
62.5857 81.64142954510565
63.496 81.97371060447016
64.4196 82.17410649409155
65.3566 82.2329946582454
66.3073 82.60901813192272
67.2717 82.83607672987353
68.2502 82.94369500463603
69.2429 83.1140352148241
70.2501 83.38516392090095
71.2719 83.50828103347978
72.3086 83.70099203434675
73.3603 84.02516926140446
74.4274 84.28818133030335
75.5099 84.52064305780421
76.6083 84.65900230775674
77.7226 84.97081071242208
78.8531 85.10379179658234
80.0 85.15663686467765
81.1636 85.41705115583663
82.3442 85.53775944737913
83.5419 85.62245517971185
84.757 85.72161574638106
85.9899 86.02674657637756
87.2406 86.19150949205591
88.5096 86.39742805444976
89.797 86.63534589272302
91.1031 86.86728151822875
92.4282 87.03333762526314
93.7726 87.13253258107788
95.1366 87.42620324322851
96.5204 87.50636283370277
97.9243 87.60920324322849
99.3486 87.52870486945965
100.794 87.60202321620524
102.26 87.6762032432285
103.747 87.8028440397156
105.256 87.98200415634702
106.787 88.1059713709729
108.34 88.13337509174573
109.916 88.22352972271197
111.515 88.3849713709729
113.137 88.44529945335411
114.783 88.52387092876918
116.452 88.45983312096897
118.146 88.51483883826886
119.865 88.67976529238669
121.608 88.68808701828888
123.377 88.66068600698183
125.171 88.63119089866211
126.992 88.66045914414974
128.839 88.68019568927075
130.713 88.60586905649622
132.615 88.68229303532978
134.543 88.6232799667082
136.5 88.66276809573506
138.486 88.68297778474177
140.5 88.56435589872846
142.544 88.32386646957445
144.617 88.1990201222672
146.721 88.13557106800017
148.855 88.03891791055206
151.02 87.92066266753868
153.217 87.85753178120814
155.445 87.80834414891864
157.706 87.76550722538072
160.0 87.65163070297969
162.327 87.49367048298603
164.688 87.3871677407473
167.084 87.1922298694127
169.514 87.1506447045911
171.98 87.05056941966164
174.481 87.00221109190404
177.019 86.85095829724357
179.594 86.64771731796698
182.206 86.5898548971999
184.856 86.45850402150045
187.545 86.37014471826758
190.273 86.25638367120123
193.041 86.17176083132443
195.849 86.05624033225078
198.697 85.89239869969713
201.587 85.73589809686099
204.52 85.61919947127846
207.494 85.51457772306037
210.512 85.39210342328276
213.574 85.27833329940601
216.681 85.153979364817
219.833 85.06545283491111
223.03 84.92248060068418
226.274 84.75043757939231
229.565 84.62827684329235
232.905 84.51842657657522
236.292 84.37583202602845
239.729 84.25346824288847
243.216 84.17826980062122
246.754 84.06014802042345
250.343 83.93813206789152
253.984 83.82937492275032
257.678 83.75221757430603
261.426 83.70138224914463
265.229 83.69980056345531
269.087 83.6904278585178
273.001 83.69461731779907
276.972 83.68575939551302
281.0 83.6934031652328
285.088 83.67787906639427
289.234 83.79253395317193
293.441 83.81108767456986
297.709 83.81749953021385
302.04 83.78034863723173
306.433 83.69279171445963
310.89 83.60026820758564
315.412 83.47331293880225
320.0 83.37888447492766
324.655 83.3493930229354
329.377 83.17517960847901
334.168 82.97950076561015
339.028 82.78214897722698
343.959 82.59886381499955
348.962 82.5835779885376
354.038 82.48885787695635
359.188 82.39085886676382
364.412 82.32328298486343
369.713 82.29137642244895
375.09 82.41083458778824
380.546 82.4802817480654
386.081 82.55724529438241
391.697 82.60198556607898
397.394 82.63294353577639
403.175 82.74020315373164
409.039 82.72541857568135
414.989 82.724188190909
421.025 82.66248853409715
427.149 82.54723536429807
433.362 82.3913848816594
439.665 82.22566328306975
446.06 81.9766591403581
452.548 81.81230743830692
459.131 81.61567564618677
465.809 81.42630617323876
472.584 81.26654645977449
479.458 81.06840629047043
486.432 80.98271162614758
493.507 80.80366687191395
500.686 80.71098123930304
507.968 80.64392766504291
515.357 80.47745284852007
522.853 80.44600553005495
530.458 80.25404717284708
538.174 80.08677068926508
546.002 79.84026536793357
553.943 79.70953972748713
562.001 79.48130994090519
570.175 79.3692232850281
578.469 79.21720728371712
586.883 79.22097380957615
595.419 79.14813193075564
604.08 79.21719808558267
612.866 79.25586265540723
621.78 79.12038917172852
630.824 79.01416251569962
640.0 78.6806377078796
649.309 78.33787975899985
658.753 77.91659001116098
668.335 77.45955517800097
678.056 76.96976439979132
687.919 76.7316181083197
697.925 76.6739071527706
708.077 76.78540862931014
718.376 76.98269980858866
728.825 77.11991824943378
739.426 77.08764231864386
750.181 77.14611758000879
761.093 77.11056330758971
772.163 77.05575378382518
783.394 77.14643401220188
794.789 77.08656364728266
806.349 76.96074245085725
818.078 76.75824719169869
829.977 76.4838143643542
842.05 76.15953091890641
854.298 75.83870075018869
866.724 75.66800575778962
879.33 75.45772421561766
892.12 75.30876078115345
905.097 75.25570447557735
918.262 75.15827494634517
931.618 75.2431241371322
945.169 75.28170687308551
958.917 75.31895527708377
972.864 75.39894305143359
987.015 75.27412422338573
1001.37 75.14214948240429
1015.94 74.8756891705068
1030.71 74.76657271714609
1045.71 74.63186675211519
1060.92 74.62335345579756
1076.35 74.40881631952601
1092.0 74.08029752296365
1107.89 73.69524472250355
1124.0 73.49049774108782
1140.35 73.35173049891934
1156.94 73.31730671650028
1173.77 73.30145942334023
1190.84 73.22339444574051
1208.16 73.09304726127574
1225.73 72.9108233629212
1243.56 72.77780896759212
1261.65 72.75697334628974
1280.0 72.7906811450162
1298.62 72.81269512783345
1317.51 72.75117897499257
1336.67 72.62411145520902
1356.11 72.5101148549355
1375.84 72.40536959437004
1395.85 72.24218180974262
1416.15 71.87668253956086
1436.75 71.41410841226943
1457.65 70.97733782667733
1478.85 70.87772376443353
1500.36 70.91789775261319
1522.19 70.92793751180521
1544.33 70.93967630076399
1566.79 70.88261217279809
1589.58 70.68136165650206
1612.7 70.3384347391659
1636.16 70.1366095566532
1659.95 70.20250506128116
1684.1 70.38200155126195
1708.6 70.61006906758838
1733.45 70.83070952462741
1758.66 70.86676142047726
1784.24 70.5553756185878
1810.19 70.00529230217231
1836.52 69.4177908458937
1863.24 69.00616158418809
1890.34 68.74858393889441
1917.83 68.62058157939005
1945.73 68.60937436148079
1974.03 68.76234588652271
2002.74 68.9602546236225
2031.87 69.03157522697798
2061.43 68.98623200829641
2091.41 68.92184997316144
2121.83 68.7969303568935
2152.69 68.63338978128688
2184.01 68.54190530640281
2215.77 68.56681413912511
2248.0 68.46080556607451
2280.7 68.26905869158223
2313.87 68.16032683895189
2347.53 68.00207990341268
2381.68 67.95583445455961
2416.32 68.00975633959241
2451.46 67.9620029689183
2487.12 67.97665035648613
2523.3 68.0166261140926
2560.0 67.95778492338336
2597.24 67.97148502273537
2635.01 68.03018870760711
2673.34 67.93401310269316
2712.23 67.8370003721512
2751.68 67.57954025675211
2791.7 67.24924849437605
2832.31 67.05198622039624
2873.5 66.9938888391005
2915.3 67.0332830866452
2957.7 67.1070429179747
3000.72 66.95780357528449
3044.37 66.75383059750169
3088.65 66.47764746219919
3133.58 66.46706635001097
3179.16 66.37562968437057
3225.4 66.12301683598206
3272.31 65.81129432731801
3319.91 65.62493972509766
3368.2 65.75657009839874
3417.19 65.82825465038785
3466.89 65.91510165587495
3517.32 65.91298409879674
3568.48 65.98838338652116
3620.39 66.20895585270988
3673.05 66.32009479891518
3726.47 66.23776492915142
3780.67 66.24385408481866
3835.67 66.36052836296618
3891.46 66.23585581458248
3948.06 65.93513814185268
4005.49 65.8474031837326
4063.75 65.7509592429309
4122.86 65.33627056648136
4182.82 65.00808738615216
4243.66 65.05949653649476
4305.39 65.2349405010233
4368.01 65.28255892617803
4431.55 65.4991150456578
4496.01 65.89581272462875
4561.4 66.23368059798726
4627.75 66.44094752306422
4695.06 66.35214974177113
4763.35 66.10971710374356
4832.64 65.75844474064674
4902.93 65.29268869742229
4974.24 65.0213119179346
5046.6 64.91401708304689
5120.0 64.63671922601277
5194.47 64.3787333873157
5270.03 64.3563433456181
5346.68 64.3696847617431
5424.45 64.37004572211306
5503.35 64.45671515962512
5583.4 64.20668273087652
5664.61 63.645344776252315
5747.01 63.2693879017332
5830.6 62.87995413526217
5915.41 62.62369769530987
6001.45 62.65906426878293
6088.74 62.65885391700941
6177.3 62.52486908185547
6267.15 62.319577933670885
6358.31 62.06937798548485
6450.8 62.02124350711334
6544.62 62.1052128090018
6639.82 62.39301914633286
6736.4 62.65415552213794
6834.38 62.749324564262864
6933.79 62.746088988281244
7034.64 62.594115667127554
7136.96 62.33325952914252
7240.77 62.02155279513083
7346.09 61.95618613936007
7452.94 62.21061224260565
7561.35 62.46368618075668
7671.33 62.287021600640614
7782.91 62.0778044679159
7896.12 61.91014182609892
8010.97 61.914808899695956
8127.49 61.813994262526464
8245.71 61.62181659847174
8365.65 61.478756404186086
8487.33 61.6063431487331
8610.78 61.45075894547939
8736.03 60.96793822196476
8863.09 60.36504287736419
8992.01 60.12059938654501
9122.8 60.012607177965194
9255.5 60.25795403577699
9390.12 60.429551656678925
9526.7 60.16087712262929
9665.27 59.40978329857428
9805.86 59.14549118109612
9948.49 59.80503851854131
10093.2 60.52060135259195
10240.0 60.619873868096434
10388.9 60.219897341507775
10540.1 59.7449977617389
10693.4 59.65296199825157
10848.9 59.74952826097463
11006.7 59.28326906430367
11166.8 58.48206115028778
11329.2 58.08186893635225
11494.0 58.216685350580335
11661.2 58.14185328023292
11830.8 57.284271575296984
12002.9 56.377051858995046
12177.5 56.43759456628642
12354.6 56.65868904241775
12534.3 56.063666534837
12716.6 55.271070336809956
12901.6 55.55389083262436
13089.2 56.48730717623043
13279.6 57.083099911785624
13472.8 57.401316959603136
13668.8 57.88818937229088
13867.6 58.12093330494638
14069.3 57.385219483150294
14273.9 56.19405215035708
14481.5 55.259733330698495
14692.2 54.788542224564665
14905.9 54.12309609467822
15122.7 53.80083617694588
15342.7 54.09575610570134
15565.8 54.171049924949884
15792.2 53.99259807048692
16021.9 54.19922572789382
16255.0 54.11546234441822
16491.4 54.04986135031025
16731.3 54.43892132003573
16974.7 54.849723854794135
17221.6 55.17341502728338
17472.1 54.75415541467238
17726.2 53.6248016740539
17984.0 52.078673097727986
18245.6 49.259332605687135
18511.0 46.2579946993272
18780.2 44.194821803434095
19053.4 42.940238817723056
19330.5 42.080462548732314
19611.7 40.73426398466937
19897.0 39.92107792705765
