Freq "On Axis"
20.5078 53.3811
21.9727 53.7268
23.4375 51.063799999999986
24.9023 55.60319999999999
26.3672 58.27590000000001
27.832 60.6713
29.2969 62.986999999999995
30.7617 65.4368
32.2266 68.2493
33.6914 70.4438
35.1562 72.6582
36.6211 75.0384
38.0859 77.0728
39.5508 79.0215
41.0156 80.7218
42.4805 81.7633
43.9453 82.5098
45.4102 82.8072
46.875 83.0325
48.3398 83.0647
51.2695 82.9891
52.7344 82.9369
54.1992 82.9331
55.6641 83.0112
58.5938 83.0642
60.0586 83.2113
62.9883 83.4345
64.4531 83.5165
67.3828 83.7252
68.8477 83.85389999999998
71.7773 84.26340000000002
74.707 84.4748
77.6367 84.6563
79.1016 84.79570000000001
82.0312 85.0964
84.9609 85.342
87.8906 85.35419999999999
90.8203 85.5787
95.2148 85.8157
98.1445 86.0691
101.074 86.233
105.469 86.1146
108.398 86.48490000000001
112.793 86.811
117.188 86.5777
120.117 86.6393
124.512 86.8348
128.906 86.8246
133.301 86.9176
139.16 86.81549999999999
143.555 86.91650000000001
147.949 87.1918
153.809 87.1491
159.668 87.174
165.527 87.0575
171.387 86.7534
177.246 86.915
183.105 86.71699999999998
188.965 86.9369
196.289 87.0028
203.613 86.9314
210.938 87.2154
218.262 86.9743
225.586 87.538
232.91 87.7841
241.699 87.6488
250.488 87.5714
259.277 88.53140000000002
268.066 88.1036
276.855 87.5523
287.109 88.4008
297.363 88.0829
307.617 87.9973
319.336 87.1133
329.59 86.9585
341.309 87.5453
353.027 87.6062
366.211 86.8529
379.395 87.50120000000001
392.578 86.87890000000002
405.762 86.25049999999999
420.41 86.9942
435.059 87.8725
451.172 87.70000000000002
465.82 87.36439999999999
483.398 87.9373
499.512 86.9734
517.09 87.071
536.133 87.8176
555.176 86.9377
574.219 87.3328
594.727 87.0455
615.234 87.881
637.207 88.0015
659.18 86.641
682.617 87.3021
707.52 86.903
732.422 87.8055
757.324 87.9926
785.156 87.0946
811.523 87.8991
840.82 86.8628
870.117 87.34649999999999
900.879 87.1542
933.105 88.7461
965.332 87.95849999999999
1000.49 86.9204
1035.64 87.2542
1072.27 88.6284
1108.89 88.4755
1148.44 86.5994
1189.45 87.5174
1230.47 87.572
1274.41 88.49780000000001
1319.82 87.9433
1366.7 87.7962
1413.57 87.49689999999998
1463.38 86.0171
1516.11 85.97
1568.85 85.7849
1624.51 86.1167
1681.64 87.3804
1741.7 86.4724
1803.22 85.3347
1866.21 85.5468
1932.13 86.6254
1999.51 86.0733
2069.82 84.7525
2143.07 85.6348
2219.24 85.50890000000001
2296.88 85.3818
2378.91 86.70939999999999
2462.4 88.8296
2548.83 88.5088
2639.65 87.2952
2731.93 85.9042
2828.61 86.8552
2928.22 86.5957
3030.76 86.8062
3137.7 86.9023
3249.02 85.9607
3363.28 85.8469
3481.93 86.7848
3604.98 86.14929999999998
3732.42 87.2795
3864.26 86.8139
4000.49 86.6385
4141.11 88.0728
4287.6 87.95070000000001
4438.48 89.613
4595.21 89.46040000000002
4756.35 90.8501
4924.8 90.5909
5097.66 90.0872
5277.83 90.2729
5463.87 90.2869
5657.23 90.1271
5856.45 90.12449999999998
6062.99 90.56800000000001
6276.86 90.2748
6498.05 90.1377
6726.56 90.3029
6963.87 90.35040000000001
7209.96 90.5732
7464.84 90.6036
7727.05 91.24630000000002
7999.51 91.0675
8282.23 92.0182
8573.73 92.30600000000001
8876.95 93.20320000000001
9188.96 93.71019999999999
9514.16 94.60230000000001
9849.61 95.0529
10196.8 95.6968
10555.7 95.5697
10927.7 95.2041
11313.0 94.4399
11712.9 93.2787
12126.0 91.9106
12553.7 90.5757
12996.1 89.1303
13454.6 87.8341
13929.2 86.6919
14419.9 85.4629
14928.2 84.1224
15455.6 83.45260000000002
16000.5 82.8102
16564.5 81.8293
17148.9 80.96349999999998
17752.4 80.0024
18379.4 79.1632
19026.9 78.0343
19697.8 77.58509999999998
19999.5 77.074
