Freq "Estimated In-Room Response"
20.5078 59.674529573768666
21.9727 61.10580794785767
23.4375 63.63675574647792
24.9023 64.85309358264482
26.3672 65.78278092131859
27.832 66.9945375324771
29.2969 67.83325566095826
30.7617 68.25026132183058
32.2266 68.65627561827789
33.6914 69.15512438919896
35.1562 69.64194205431701
36.6211 70.0849364185944
38.0859 70.51532763231461
39.5508 70.91124542496286
41.0156 71.42397224916738
42.4805 71.89717662578299
43.9453 72.3573110882678
45.4102 72.79919348366668
46.875 73.28081373332887
48.3398 73.79205118016829
51.2695 74.84258262005504
52.7344 75.28744436957663
54.1992 75.6812625177796
55.6641 76.10717408794757
58.5938 77.00143553691132
60.0586 77.50728692010489
62.9883 78.52217928683604
64.4531 79.03873242726124
67.3828 79.90637990679977
68.8477 80.31618078909112
71.7773 81.22469644849745
74.707 82.16489317529874
77.6367 83.03348436427942
79.1016 83.43881478643661
82.0312 84.36553459240187
84.9609 85.31246689578205
87.8906 86.17365695698375
90.8203 87.05370674971974
95.2148 88.50162979345845
98.1445 89.4262687499454
101.074 90.32634458302621
105.469 91.45412589126418
108.398 92.1630267380892
112.793 92.83517148576959
117.188 93.09295015752564
120.117 93.17304032666794
124.512 93.57490838499331
128.906 93.24042838247573
133.301 92.65118847244068
139.16 92.17327812958256
143.555 91.66880004848886
147.949 91.2527681643273
153.809 90.95035016425538
159.668 90.51452678636689
165.527 90.52138088796441
171.387 90.6125279740897
177.246 90.1783698065471
183.105 89.68074272401111
188.965 89.47414254879371
196.289 89.31764274712938
203.613 88.91376424772683
210.938 88.37465868451906
218.262 88.22358225256758
225.586 87.73720615138156
232.91 87.51247585557098
241.699 87.18671602799775
250.488 88.36081357240286
259.277 88.38711428925049
268.066 88.55954877682984
276.855 89.25975860882593
287.109 89.28160329304045
297.363 88.88527483947975
307.617 89.28371041883106
319.336 89.3689752430971
329.59 89.23134285935433
341.309 88.71167443487487
353.027 88.71339375994569
366.211 89.05245365510243
379.395 89.7015071082405
392.578 90.92689172069605
405.762 90.28531869128564
420.41 89.66441442568403
435.059 89.82723332308157
451.172 88.3895892312824
465.82 90.3138711180251
483.398 90.86563391120986
499.512 90.02837962523165
517.09 85.34344965365503
536.133 80.13162511356855
555.176 80.96151870547864
574.219 82.73232768168613
594.727 84.0989119022327
615.234 86.06366943486574
637.207 87.03375728525937
659.18 87.32359989841243
682.617 87.27498024216584
707.52 88.07607151412094
732.422 88.33913373694452
757.324 87.70813941883821
785.156 85.74780185661558
811.523 85.21148676047568
840.82 87.05399203589992
870.117 87.02744228614088
900.879 85.91182092884246
933.105 85.68932641581988
965.332 84.65115808965024
1000.49 85.79704297302342
1035.64 90.03416540388471
1072.27 90.60091682152797
1108.89 89.77573765873892
1148.44 89.0282871709534
1189.45 88.50925487467134
1230.47 88.01893453521862
1274.41 87.64364597670553
1319.82 87.0144606535286
1366.7 86.42030656945943
1413.57 85.99630436665305
1463.38 85.12699252558687
1516.11 84.73238768073317
1568.85 85.05321729652358
1624.51 85.97138666094246
1681.64 85.17305129985178
1741.7 85.73727383594948
1803.22 86.2131818601039
1866.21 86.53109751684475
1932.13 87.37525399078473
1999.51 88.45624181171569
2069.82 88.7570033894074
2143.07 88.0168483002722
2219.24 87.81912458893844
2296.88 87.88487071939147
2378.91 87.34344458987508
2462.4 86.24833051973474
2548.83 85.54375662170274
2639.65 85.72194379821306
2731.93 85.36238915564539
2828.61 84.840049915347
2928.22 83.53173757084298
3030.76 83.62050038197711
3137.7 84.04374095294193
3249.02 83.40989674197341
3363.28 83.79908218753208
3481.93 84.067191765113
3604.98 84.20384930506833
3732.42 85.31093601108817
3864.26 85.07026066530352
4000.49 86.21534884743227
4141.11 86.43104913546313
4287.6 86.87720461298818
4438.48 87.39178170207936
4595.21 86.59462607788372
4756.35 86.70732531346054
4924.8 86.45043170833802
5097.66 86.32906709900183
5277.83 85.89559049793176
5463.87 85.5122872254811
5657.23 84.95515345649439
5856.45 84.25226523215464
6062.99 85.36573068838189
6276.86 86.27364886862917
6498.05 86.82850873621885
6726.56 86.31462842057026
6963.87 85.0309965667779
7209.96 85.87932147936891
7464.84 86.28806318968171
7727.05 85.97610701951405
7999.51 85.75567550726467
8282.23 85.69033817451769
8573.73 86.39446008594535
8876.95 86.70427530821179
9188.96 87.66551819205523
9514.16 88.20417325421452
9849.61 88.37024406278782
10196.8 88.74654548733419
10555.7 88.48236889660319
10927.7 86.76488423622419
11313.0 86.39908628102343
11712.9 86.6071301663262
12126.0 88.19342483696907
12553.7 89.65656721581686
12996.1 89.7682981746087
13454.6 88.34172462386817
13929.2 88.56685567115173
14419.9 90.64218715428046
14928.2 91.22943914251059
15455.6 84.3995559015575
16000.5 75.96265066183145
16564.5 82.6339335345194
17148.9 84.92695264302391
17752.4 75.08944268378997
18379.4 69.04583885534556
19026.9 76.26811435226695
19697.8 76.78527879519876
19999.5 73.76084688638005
