Freq,On Axis,Listening Window,Sound Power,Early Reflections,Early Reflections DI,Sound Power DI,DI offset
20.5078,64.7135,64.68862867900346,64.19620746360592,64.44525614928658,50.24337252971688,50.49242121539754,50
21.9727,66.09240000000001,66.07185693067545,65.6268095784152,65.8546681045364,50.21718882613905,50.44504735226025,50
23.4375,66.6307,66.60994451898067,66.18276433898849,66.39747059636561,50.21247392261506,50.42718017999218,50
24.9023,67.30739999999999,67.28772088787623,66.85225274265908,67.07368055718176,50.21404033069447,50.43546814521716,50
26.3672,68.2674,68.24463362327892,67.7794426120101,68.01406167623476,50.230571947044155,50.465191011268814,50
27.832,69.0423,69.01965982499813,68.55222006039259,68.78728985490717,50.23236997009096,50.467439764605544,50
29.2969,69.8488,69.82608241752105,69.35368251232214,69.59226707225426,50.23381534526679,50.47239990519891,50
30.7617,70.6809,70.66038259824235,70.21945922829885,70.44156145895707,50.21882113928528,50.440923369943505,50
32.2266,71.01950000000001,70.9987694372738,70.5719719117798,70.78765338215932,50.21111605511447,50.426797525493996,50
33.6914,71.69960000000002,71.68088668841825,71.30159152552646,71.49180200361711,50.189084684801145,50.37929516289179,50
35.1562,72.6345,72.6103316572326,72.1181421278761,72.36464348584813,50.24568817138447,50.49218952935651,50
36.6211,73.0903,73.06910305947166,72.64656890121276,72.85786045410664,50.211242605365015,50.4225341582589,50
38.0859,73.8527,73.82771815277728,73.32024015279735,73.57515081155314,50.252567341224136,50.507477999979926,50
39.5508,74.1281,74.10521442550038,73.65700360408385,73.87632212456565,50.22889230093473,50.448210821416524,50
41.0156,74.24840000000002,74.2361729544288,74.0417929914665,74.13584411113605,50.10032884329274,50.1943799629623,50
42.4805,74.37349999999999,74.35356112363488,73.96006131736361,74.15568324439747,50.19787787923741,50.393499806271265,50
43.9453,75.1164,75.09330791941034,74.64492703224577,74.86797424707048,50.22533367233986,50.44838088716456,50
45.4102,75.6766,75.6553077012584,75.25301315036003,75.45260357890244,50.202704122355954,50.40229455089836,50
46.875,76.2209,76.19642280917476,75.74780248280535,75.97049144155214,50.22593136762262,50.44862032636941,50
48.3398,76.5739,76.54902711477449,76.10443631194205,76.32403603193228,50.22499108284221,50.44459080283244,50
51.2695,77.4927,77.46606852427308,76.98906235786794,77.22550490601499,50.24056361825809,50.47700616640515,50
52.7344,77.95270000000001,77.92521872281753,77.4563477649772,77.68832247307476,50.23689624974277,50.46887095784034,50
54.1992,78.4083,78.38001619215613,77.90553346044847,78.14016000504981,50.23985618710633,50.47448273170767,50
55.6641,78.7078,78.67410064944623,78.08141684143784,78.37396350575818,50.30013714368805,50.59268380800839,50
58.5938,79.3817,79.3511857973635,78.86304096500437,79.10403526146958,50.24715053589392,50.488144832359126,50
60.0586,79.7663,79.73558514369044,79.22874691199397,79.4789622246522,50.25662291903825,50.50683823169648,50
62.9883,80.4113,80.37905050057394,79.86101714626713,80.1144116730055,50.26463882756843,50.51803335430681,50
64.4531,80.67300000000002,80.64094086389079,80.13746423845797,80.38205690546523,50.25888395842556,50.503476625432825,50
67.3828,81.2418,81.20984415660574,80.7405024858137,80.966765150126,50.243079006479746,50.46934167079203,50
68.8477,81.4775,81.44605920039183,81.01027383570464,81.21872747799391,50.22733172239792,50.43578536468719,50
71.7773,82.0513,82.01612628953157,81.53481928252667,81.76660723537007,50.249519054161496,50.4813070070049,50
74.707,82.70020000000001,82.66173239835085,82.1074513400967,82.37795349033759,50.28377890801326,50.55428105825415,50
77.6367,83.2547,83.21541393441738,82.65796887894624,82.92898571556435,50.28642821885303,50.55744505547115,50
79.1016,83.4744,83.43433833563883,82.87986681452881,83.14772872598553,50.2866096096533,50.55447152111002,50
82.0312,83.8566,83.81549833511232,83.26296055677396,83.5284321748162,50.28706616029612,50.55253777833836,50
84.9609,84.1663,84.12923072390414,83.67417263466677,83.89014140082821,50.23908932307593,50.45505808923737,50
87.8906,84.922,84.87390793723934,84.31596797825364,84.57913359717607,50.29477434006327,50.5579399589857,50
90.8203,85.2557,85.20223273383773,84.51154331710401,84.84383298058184,50.358399753255895,50.69068941673372,50
95.2148,85.6031,85.55455484930012,84.9847908616221,85.25371299185724,50.300841857442876,50.569763987678016,50
98.1445,86.0645,86.01263925758774,85.41405118974272,85.69674667329866,50.315892584289074,50.598588067845014,50
101.074,86.3187,86.26618274772947,85.679862143625,85.95682131346801,50.30936143426146,50.58632060410447,50
105.469,86.7838,86.725316973901,86.12344714193954,86.4122352401271,50.3130817337739,50.601869831961466,50
108.398,87.072,87.0064028424183,86.32495591574056,86.64687992642597,50.35952291599233,50.68144692667774,50
112.793,87.4886,87.42103598390224,86.68017146187958,87.032912057253,50.38812392664924,50.74086452202266,50
117.188,87.8751,87.80314337496056,86.99633043150322,87.38447680360868,50.41866657135188,50.80681294345733,50
120.117,87.96899999999998,87.89847064288192,87.14916201955562,87.50596622481552,50.392504418066395,50.7493086233263,50
124.512,88.27299999999998,88.19514434830462,87.41299378593244,87.77936058052236,50.41578376778226,50.78215056237218,50
128.906,88.55639999999998,88.47435689961502,87.65598078307045,88.03848450494691,50.43587239466811,50.81837611654457,50
133.301,88.7976,88.71404382273676,87.88708901228782,88.27058294646643,50.44346087627032,50.82695481044894,50
139.16,89.0034,88.91242006268592,88.0682769591381,88.45323953879794,50.45918052388798,50.84414310354782,50
143.555,89.17739999999999,89.08068122236475,88.19823894010486,88.60004088441778,50.480640337946966,50.88244228225989,50
147.949,89.3637,89.26036627192609,88.30143875981715,88.73913176277058,50.521234509155505,50.95892751210894,50
153.809,89.5337,89.42422533894755,88.40707838990495,88.87252072672466,50.55170461222289,51.0171469490426,50
159.668,89.72520000000002,89.61218439653786,88.63451786705194,89.08014369047302,50.532040706064834,50.977666529485916,50
165.527,89.8505,89.72688249363138,88.6841156860917,89.159749115442,50.56713337818938,51.04276680753968,50
171.387,90.0393,89.90636384561621,88.72673954662103,89.27368938945516,50.632674456161055,51.17962429899518,50
177.246,90.0508,89.90899393776327,88.65517279574514,89.23427931384909,50.674714623914184,51.253821142018126,50
183.105,90.1132,89.96705973688246,88.67079887779917,89.27369802054713,50.69336171633533,51.29626085908329,50
188.965,90.1427,89.98568551384729,88.6160777843844,89.26345073723097,50.72223477661632,51.369607729462885,50
196.289,90.2391,90.07064513973782,88.59861191052171,89.2958695329937,50.774775606744114,51.47203322921611,50
203.613,90.2557,90.07814684054499,88.42862192780004,89.24044056705743,50.837706273487555,51.64952491274495,50
210.938,90.1708,89.99089807125561,88.38704193138001,89.16341055897486,50.827487512280754,51.6038561398756,50
218.262,90.0946,89.89915966990915,88.34118420412658,89.07320187050942,50.82595779939973,51.557975465782576,50
225.586,90.3483,90.13576212519125,88.27566470603601,89.18291131462917,50.95285081056208,51.86009741915524,50
232.91,90.3677,90.1494263727586,88.03905106019933,89.11173134915263,51.03769502360596,52.11037531255927,50
241.699,90.11399999999999,89.88351267461712,87.79620038193066,88.83121718928406,51.05229548533306,52.08731229268646,50
250.488,90.5939,90.3398618994916,87.9025020446987,89.12010018112825,51.219761718363344,52.43735985479289,50
259.277,90.2684,90.00838390329922,87.62369240909909,88.81836352976414,51.19002037353508,52.384691494200126,50
268.066,90.31499999999998,90.05196778278037,87.56024735881475,88.80999831808623,51.24196946469414,52.49172042396562,50
276.855,90.43899999999998,90.1613023349838,87.53630167715848,88.87602610431763,51.28527623066617,52.625000657825325,50
287.109,90.24159999999999,89.97312825455246,87.52582533905691,88.77194963893487,51.20117861561759,52.447302915495555,50
297.363,90.8881,90.57051506520078,87.5566019293195,89.1898314657574,51.38068359944339,53.01391313588128,50
307.617,90.3649,90.04580544430588,87.13588886388952,88.6794445560274,51.36636088827848,52.909916580416365,50
319.336,90.3,89.95100171608526,86.86034290926159,88.48800412771855,51.462997588366704,53.09065880682367,50
329.59,90.075,89.74230771571204,86.7462776321488,88.35359891327401,51.38870880243803,52.99603008356324,50
341.309,90.10170000000001,89.72258270083101,86.47847819651533,88.18513090995081,51.5374517908802,53.244104504315686,50
353.027,90.2374,89.8809523576099,86.49941998410654,88.33893557414147,51.542016783468426,53.38153237350336,50
366.211,90.4194,89.9985092947789,86.45454603069368,88.41948136905135,51.579027925727544,53.54396326408522,50
379.395,90.0743,89.67875306778987,86.266516959918,88.13312962023733,51.54562344755254,53.41223610787188,50
392.578,90.176,89.75811072956148,86.35240230376803,88.15266092196538,51.6054498075961,53.40570842579345,50
405.762,90.293,89.7876058043807,86.20120330012985,88.08806753472213,51.699538269658575,53.586402504250856,50
420.41,90.3488,89.80928065611634,86.13292081331544,87.95994163882027,51.849339017296074,53.676359842800906,50
435.059,90.8775,90.33391973951571,86.2912008738139,88.47658582741899,51.85733391209672,54.0427188657018,50
451.172,90.99130000000001,90.3934518927745,85.71529131762092,88.30924812596213,52.084203766812365,54.67816057515357,50
465.82,90.98299999999999,90.43048601521706,85.92573300527452,88.37587911155538,52.05460690366168,54.50475300994253,50
483.398,90.9207,90.33850364246962,86.07759282427944,88.45299190822384,51.88551173424578,54.26091081819018,50
499.512,90.4369,89.80753864849432,85.80797302275073,88.04961126504035,51.75792738345396,53.999565625743585,50
517.09,89.567,88.88046522555564,84.88158002403826,86.96300609445036,51.917459131105275,53.99888520151738,50
536.133,90.5885,89.8379969452354,84.71958136629196,87.54747839105075,52.29051855418466,55.11841557894344,50
555.176,89.9906,89.27796851807508,84.83465863962738,87.26455535162175,52.01341316645333,54.44330987844771,50
574.219,90.02399999999999,89.12196345796492,84.71331894405058,86.937076765564,52.18488669240092,54.40864451391434,50
594.727,90.8035,89.9902518603959,84.40224017773099,87.39790215604394,52.59234970435196,55.58801168266491,50
615.234,90.6981,89.82962924131213,84.55475227268326,87.54513600498031,52.284493236331826,55.274876968628874,50
637.207,89.8557,88.84932628604743,84.10051179211068,86.6821039806177,52.16722230542973,54.74881449393675,50
659.18,89.89800000000001,88.78032055656688,83.98564077880486,86.3435352933088,52.43678526325807,54.79467977776201,50
682.617,90.1533,89.1555654049128,83.82511805898098,86.49145755219644,52.66410785271637,55.33044734593183,50
707.52,89.7439,88.49475471812521,83.55981107682092,86.27333573306666,52.22141898505855,54.93494364130429,50
732.422,90.0353,88.81051573060677,83.56912925444058,86.3101313119408,52.50038441866597,55.241386476166184,50
757.324,90.8792,89.5670919027895,84.3063088967507,87.23105457233358,52.33603733045592,55.26078300603879,50
785.156,91.1039,89.77127531381115,83.49546274193891,86.71193726933285,53.059338044478295,56.27581257187224,50
811.523,90.8528,89.36589469342674,84.73523513614953,87.07437749637343,52.29151719705331,54.63065955727721,50
840.82,91.6144,89.9962757376331,84.3344742254654,86.6073562736034,53.3889194640297,55.6618015121677,50
870.117,92.4467,90.83220700818944,84.29158148054681,87.47111028213496,53.361096726054484,56.54062552764263,50
900.879,91.7249,90.03748380117749,83.93530575908798,87.24708418831842,52.79039961285906,56.102178042089506,50
933.105,90.76030000000002,88.95907484601598,84.68009008560244,88.1512589514932,50.807815894522776,54.278984760413536,50
965.332,92.0542,90.16526472333106,83.842264648768,86.76667536952543,53.39858935380563,56.32300007456307,50
1000.49,91.35099999999998,89.31718497803699,83.89199375920043,87.19386118363347,52.12332379440352,55.42519121883656,50
1035.64,92.22849999999998,90.25412168973683,83.4656773100525,86.96365353392994,53.29046815580689,56.788444379684336,50
1072.27,90.6301,88.39879714773686,84.31339658324724,88.2595801505742,50.13921699716266,54.08540056448962,50
1108.89,91.171,88.82344805068173,83.60540631296486,87.21472907133389,51.60871897934784,55.218041737716874,50
1148.44,90.40260000000002,88.0237919298977,84.3755029398692,87.14242381414063,50.88136811575707,53.648288990028504,50
1189.45,91.6337,88.97040842274595,84.00567072679216,86.61878581866918,52.351622604076766,54.96473769595379,50
1230.47,92.2936,89.66491612445095,84.32854223979952,86.80185837908968,52.863057745361274,55.33637388465144,50
1274.41,92.5281,89.7526113540405,84.01549860638794,87.50137298256165,52.25123837147885,55.73711274765256,50
1319.82,92.7649,90.01182236922178,84.73801456508775,87.70736545826354,52.30445691095824,55.27380780413402,50
1366.7,92.538,89.81056498808023,84.8395139786407,88.1309085657496,51.67965642233062,54.971051009439535,50
1413.57,92.2067,89.5339280978535,84.07590360322287,87.734934546571,51.79899355128251,55.458024494630635,50
1463.38,92.1537,89.32354288805759,83.43998692099139,87.30970590091071,52.013836987146874,55.8835559670662,50
1516.11,91.5229,88.61021847932987,83.17779781573302,86.62010776203738,51.990110717292495,55.43242066359686,50
1568.85,90.988,88.15546166454892,82.48283847508489,86.15262706974589,52.00283459480303,55.67262318946403,50
1624.51,92.0126,88.89591884539246,82.50518766938775,86.31900490146582,52.57691394392664,56.39073117600471,50
1681.64,91.9905,88.92263605192362,82.39419088262183,86.37728797857466,52.54534807334896,56.52844516930179,50
1741.7,92.0886,89.14096627239539,82.48316089997324,86.27747255587971,52.86349371651568,56.657805372422146,50
1803.22,92.3609,89.30809443482032,82.25412673644948,86.03664013617271,53.27145429864761,57.05396769837084,50
1866.21,91.3496,88.46100775106198,81.93489969849665,85.40712290998017,53.05388484108181,56.526108052565334,50
1932.13,91.2175,88.30354229941501,81.77372879562435,85.61649123927958,52.68705106013543,56.52981350379066,50
1999.51,92.3953,89.01461221531856,81.94042229603797,86.16418087432434,52.85043134099422,57.0741899192806,50
2069.82,92.6015,89.39872302128992,82.28710006263881,86.11303739864475,53.285685622645175,57.11162295865111,50
2143.07,92.16629999999999,89.24946315230812,82.11979074960328,86.10406174826703,53.145401404041095,57.12967240270484,50
2219.24,91.14459999999998,88.3899708509632,81.92299028532942,85.71003723789448,52.67993361306871,56.466980565633776,50
2296.88,90.13099999999999,87.30389629604603,81.7359476842787,85.37925915376307,51.92463714228296,55.567948611767335,50
2378.91,90.73629999999999,87.8851641242151,81.65831528327361,85.20995486827893,52.67520925593617,56.226848840941486,50
2462.4,90.9514,88.2509260530607,81.60315727098272,85.00630498885128,53.24462106420941,56.647768782077975,50
2548.83,90.302,87.93576165231765,81.55933546001815,84.99481095640833,52.94095069590932,56.376426192299505,50
2639.65,88.896,87.05252477645466,81.57201547093089,85.20797091750566,51.844553858949,55.48050930552377,50
2731.93,88.80470000000001,86.9341351516812,81.82080038439152,85.41256499386488,51.52157015781633,55.113334767289686,50
2828.61,89.1961,87.56496855569901,82.08793949299064,85.64368257325256,51.92128598244645,55.47702906270837,50
2928.22,90.0808,88.33123349504307,82.57430328901724,86.0785936037418,52.25263989130127,55.75693020602583,50
3030.76,90.1918,88.33075612308305,82.53478678582297,86.02348910425742,52.30726701882563,55.795969337260075,50
3137.7,89.5578,88.00953574585047,82.58418354432004,86.13551776653725,51.87401797931322,55.42535220153043,50
3249.02,89.26900000000002,87.7905602402499,82.37993569242091,85.99069661015021,51.79986363009969,55.41062454782899,50
3363.28,89.2595,87.96974921055838,82.3049379607702,85.88926638320315,52.080482827355226,55.66481124978817,50
3481.93,89.1543,88.0335379002945,82.48916937353246,86.0016721002767,52.0318658000178,55.54436852676204,50
3604.98,89.0219,88.12973209374395,82.43209047817864,85.79024361676284,52.33948847698112,55.69764161556532,50
3732.42,89.4612,88.70413566599008,82.44318566738117,85.9076732392531,52.79646242673698,56.26094999860891,50
3864.26,88.5655,87.97402587147161,82.01338714507061,85.78795652922825,52.18606934224336,55.960638726401,50
4000.49,88.8334,88.20996697254965,82.00114690845776,85.69962179262957,52.51034517992008,56.208820064091896,50
4141.11,89.93849999999999,88.93084419994436,82.51353435226348,86.23626153909463,52.69458266084973,56.41730984768088,50
4287.6,90.4786,89.15497371449224,82.7068345403827,86.3959155957581,52.759058118734146,56.44813917410954,50
4438.48,90.33,89.1231626828052,82.42924487226021,86.1576775423793,52.9654851404259,56.69391781054499,50
4595.21,89.5925,88.7440713847272,82.19638287748175,85.97940393350507,52.76466745122214,56.547688507245454,50
4756.35,90.505,89.29373556152173,82.41938774751354,86.09743784792683,53.1962977135949,56.87434781400819,50
4924.8,90.2691,89.49185156544682,82.26528408397853,85.99723103782068,53.49462052762614,57.226567481468294,50
5097.66,90.038,89.01473666151048,81.79453544109535,85.54816014968934,53.466576511821145,57.220201220415134,50
5277.83,89.3592,88.80739036825337,82.10151657074178,85.50609715100371,53.30129321724965,56.705873797511586,50
5463.87,88.3053,88.04250190683162,81.6388925201331,85.3194484819512,52.72305342488042,56.40360938669852,50
5657.23,88.482,88.57300795229806,82.04557482798677,86.24908593670945,52.32392201558861,56.52743312431129,50
5856.45,90.1427,89.26060443054858,82.50938375325583,86.66890912454421,52.59169530600437,56.75122067729275,50
6062.99,90.8388,89.43862007118265,82.60831595166611,86.56318891209726,52.875431159085394,56.83030411951654,50
6276.86,90.8161,89.08813723979097,82.21947683196105,86.19608028035661,52.892056959434356,56.86866040782992,50
6498.05,90.7023,89.48424499359992,82.40600461794898,86.32190429534357,53.162340698256344,57.078240375650935,50
6726.56,90.2767,89.226400257335,82.13156766001346,85.98355221265942,53.24284804467558,57.09483259732154,50
6963.87,90.0908,89.4086547614324,82.07764079195137,85.9645628603309,53.4440919011015,57.331013969481035,50
7209.96,88.9087,89.19480796836518,81.93341789176357,85.7084438276515,53.48636414071369,57.261390076601614,50
7464.84,88.0958,88.6598207379582,81.874040946748,85.71241101557919,52.94740972237901,56.7857797912102,50
7727.05,89.36989999999999,88.93662219106797,81.98029588799615,85.64835814626798,53.28826404479999,56.95632630307182,50
7999.51,89.8514,88.70880972145024,81.79259276788811,85.52421684874882,53.184592872701415,56.91621695356213,50
8282.23,89.4274,89.31095435956152,82.05987591064996,85.96627776819712,53.344676591364404,57.25107844891156,50
8573.73,88.9875,89.25196339480156,81.96479616711447,86.02741135391406,53.2245520408875,57.28716722768709,50
8876.95,89.1612,88.98713049159619,81.78754547847713,86.08864994379071,52.89848054780548,57.19958501311906,50
9188.96,88.5684,89.0758575424971,81.5765823817563,85.71548991823046,53.360367624266644,57.49927516074081,50
9514.16,89.8097,89.36931151580323,81.2640299983501,85.228621982808,54.14068953299524,58.105281517453136,50
9849.61,89.4826,89.14070779489464,81.0442452962711,84.9645712969532,54.17613649794144,58.09646249862354,50
10196.8,89.1905,89.11021252303736,80.9995073664243,85.09801942070533,54.012193102332034,58.110705156613065,50
10555.7,89.68729999999998,89.19302951354311,80.92313521496048,85.14868007464759,54.04434943889552,58.26989429858263,50
10927.7,89.8151,88.85464128872819,80.6306078848646,84.83065918734785,54.02398210138034,58.22403340386359,50
11313.0,89.6545,88.69892987844796,80.61768632650042,84.6698950027111,54.029034875736855,58.08124355194754,50
11712.9,89.3379,88.52684799146245,80.53270567447812,84.46197148911973,54.06487650234271,57.99414231698432,50
12126.0,88.6907,87.83662717349539,80.06742787239646,83.95768274929866,53.87894442419673,57.76919930109892,50
