Freq "Early Reflections"
20.5078 63.158613974589386
21.9727 64.0786580770111
23.4375 65.36023563320661
24.9023 66.87613384200809
26.3672 67.74930253384282
27.832 68.96215328900426
29.2969 69.69303012565636
30.7617 70.64554517088985
32.2266 71.33234637283613
33.6914 72.08641126205167
35.1562 72.83930074003977
36.6211 73.48906907068807
38.0859 73.88966565209265
39.5508 74.43631074184593
41.0156 75.13872887563727
42.4805 75.83872015900216
43.9453 76.50661131689334
45.4102 77.15191712538333
46.875 77.77498510244273
48.3398 78.36582984007255
51.2695 79.42714800173052
52.7344 79.85727303151268
54.1992 80.20669921654199
55.6641 80.63349482113118
58.5938 81.40467362078223
60.0586 81.94885581170266
62.9883 83.14664408302555
64.4531 83.65665687062054
67.3828 84.6805545463909
68.8477 85.10123838466352
71.7773 85.96118336017685
74.707 86.83045305188757
77.6367 87.72261128305114
79.1016 88.12910769156296
82.0312 88.89922981345778
84.9609 89.61329073269955
87.8906 90.38265238781575
90.8203 91.12478493485543
95.2148 92.11046977971479
98.1445 92.53358478026786
101.074 92.75912231086112
105.469 93.40255855156795
108.398 93.62958103366742
112.793 93.78258718725453
117.188 94.46210308392008
120.117 94.5639549875835
124.512 94.57368311106256
128.906 94.27934649403012
133.301 93.63890781769662
139.16 93.4379896642452
143.555 93.07191311487269
147.949 92.83088805504867
153.809 92.43919894065498
159.668 91.80904399737567
165.527 90.72923044560713
171.387 91.57258524535804
177.246 91.37905904708664
183.105 90.79057506534062
188.965 90.71322512464408
196.289 90.54073237040376
203.613 90.02642167526811
210.938 89.80966862881023
218.262 89.55717892492707
225.586 89.07985942681417
232.91 88.67792931018018
241.699 88.26994356350613
250.488 88.14055869256448
259.277 87.81055818947671
268.066 87.46797945449843
276.855 87.96032735036944
287.109 88.21125611990159
297.363 88.04696618058183
307.617 88.19832081758732
319.336 87.8200978486792
329.59 87.67976058910624
341.309 87.85200901799494
353.027 87.64057725904273
366.211 87.5829641692179
379.395 87.642045321094
392.578 87.95595644130442
405.762 87.80716556306531
420.41 87.42439492411587
435.059 87.16825207799353
451.172 87.35723939607927
465.82 87.123730814511
483.398 87.08867718955771
499.512 86.92764527433167
517.09 86.9635653221181
536.133 86.89825527506302
555.176 87.00808252310115
574.219 86.86671629249989
594.727 86.91603450836591
615.234 86.9578635519661
637.207 87.05136563723553
659.18 87.04308701506844
682.617 87.18709038451708
707.52 87.10208580864037
732.422 86.92716554569478
757.324 87.15957370336592
785.156 86.76398057115036
811.523 86.83297516058983
840.82 86.69026209908178
870.117 86.60929615743832
900.879 86.8318162120158
933.105 86.57448210795378
965.332 86.58969778460609
1000.49 86.32538057954639
1035.64 86.34341685055321
1072.27 86.15575059055702
1108.89 86.04685191218253
1148.44 86.62185858715308
1189.45 86.15343987156014
1230.47 86.98301682592081
1274.41 87.05598424494958
1319.82 86.84149890699693
1366.7 86.77969870403106
1413.57 86.56048277985754
1463.38 86.17924143399675
1516.11 86.28209417084338
1568.85 86.28773730788141
1624.51 86.54364456812613
1681.64 86.18391282592957
1741.7 86.13692020135294
1803.22 85.98395172230045
1866.21 85.94058174476362
1932.13 85.7144236728159
1999.51 85.54820814764813
2069.82 85.42707387217858
2143.07 85.1913868861102
2219.24 84.79882438338775
2296.88 84.36821435042954
2378.91 84.00847731515974
2462.4 83.85151399709446
2548.83 83.64321374448842
2639.65 83.41421123286926
2731.93 83.17960463744969
2828.61 82.94566332504833
2928.22 82.67098649877259
3030.76 82.31915551842216
3137.7 82.04959805841558
3249.02 81.58598312078756
3363.28 81.43770601649241
3481.93 81.69846594743481
3604.98 82.0824372512112
3732.42 82.5936255839601
3864.26 83.14406649879732
4000.49 83.51068445490998
4141.11 83.73477793153485
4287.6 83.92709657511138
4438.48 84.18847023281062
4595.21 84.39193416353056
4756.35 84.65613100467638
4924.8 84.942296354839
5097.66 85.24150783617516
5277.83 85.39639977877748
5463.87 85.59177929312416
5657.23 85.77331437328753
5856.45 86.1242944611568
6062.99 86.27407638994978
6276.86 86.3279646052612
6498.05 86.53421150453427
6726.56 86.81799265840958
6963.87 86.841055673479
7209.96 86.69230514129005
7464.84 86.66702762225339
7727.05 86.78321807597847
7999.51 86.87787983960915
8282.23 86.97117968811442
8573.73 86.89856903601925
8876.95 86.4850319908398
9188.96 86.13690395063247
9514.16 85.90600347636943
9849.61 85.83980234899313
10196.8 86.04907656588527
10555.7 86.20052569705614
10927.7 86.11522198637628
11313.0 86.09759875901212
11712.9 85.95706956004743
12126.0 85.80174523246758
12553.7 85.74208450097815
12996.1 85.55827859597218
13454.6 85.19528013233068
13929.2 84.91509025544083
14419.9 84.79977850708654
14928.2 84.45412300748508
15455.6 83.82266506709938
16000.5 83.22692832791861
16564.5 82.60921092948972
17148.9 81.73596377313862
17752.4 80.74360877919331
18379.4 79.88145942934638
19026.9 79.02054582995224
19697.8 78.29319686279906
19999.5 78.17445790197603
