Freq,Floor Bounce,Ceiling Bounce,Front Wall Bounce,Side Wall Bounce,Rear Wall Bounce,Total Early Reflection
20.5078,65.73286036389838,64.89897268551066,65.23139964731546,66.09153970477671,74.79427071068532,69.48354785066266
21.2402,69.05810773980367,67.03059987779683,68.17072668585168,68.29422329555555,75.54505221210258,70.95262169422841
21.9727,69.57605592476601,67.00585356576956,68.50833249692012,68.1777749414682,75.9980149105189,71.30638533577073
22.7051,70.46433389291452,68.68623456551033,69.69094437427368,69.81003019544377,77.14852820014187,72.51714104151449
23.4375,72.02026027995558,70.12945838779122,71.19697619272289,71.3221161663216,77.94242088663877,73.62566294903375
24.1699,73.21886124208123,71.19530684803496,72.3337642007208,72.37018908244941,78.57680405914222,74.4896601032167
25.6348,74.78848685573927,73.4227910590262,74.14392330692901,74.55917116865122,79.98295885610973,76.15437357813408
26.3672,75.97315605884917,74.42259736548912,75.23600251329624,75.61076274464956,80.42135171826469,76.94124572329413
27.0996,76.75558416305977,75.08568034372665,75.95442866593955,76.30378266561407,80.70530359817178,77.4718248377594
27.832,77.35318757021967,75.60766943590245,76.51431558876263,76.84030678072823,80.91686716704514,77.88688157908192
29.2969,78.22620811495037,76.59526492376717,77.41623055603938,77.82357178385497,81.40223634243331,78.64489166007084
30.0293,78.69370703003968,77.00933036948052,77.84732320924569,78.25403033898165,81.54222821595782,78.97293487657677
31.4941,79.43301162950614,77.69647903925085,78.55007693910231,78.95078055459184,81.77869556582685,79.51693274437237
32.2266,79.76523871707559,77.98924150146549,78.8578202353986,79.25563869662003,81.88382456790345,79.75989096454227
33.6914,80.37881056390235,78.51971126417409,79.42419973700896,79.81079359588921,82.09091853582298,80.21514219968029
34.4238,80.59531539158867,78.69634553812944,79.61925035427252,80.00003924914095,82.1430707719781,80.36760456205869
35.8887,81.04679072714877,79.11446285650847,80.04363222515538,80.44027213093999,82.39606246939972,80.74898370757994
37.3535,81.70724792347094,79.71385280695115,80.67136345765782,81.05240172819907,82.76015710721177,81.30157312196884
38.8184,82.2251843501543,80.20557604400523,81.17321168986565,81.54153025548696,83.06212828219233,81.7481451415159
39.5508,82.49639998388109,80.46531430008613,81.4365719779133,81.79947589093689,83.23870922282863,81.98840474311949
41.0156,83.04633401312721,80.98890594514448,81.97158518563748,82.32202870361186,83.61202906267728,82.4802408359316
42.4805,83.59523275626381,81.51498685889747,82.50723188083221,82.84910804770271,84.0137284339093,82.98153548661392
43.9453,84.18179785621767,82.05441086332365,83.07116697132018,83.39330276636043,84.41814675807514,83.50345759507675
45.4102,84.75321967842153,82.59049140535035,83.62721650072461,83.93415746043091,84.84717458286617,84.02626302258193
47.6074,85.57767231400967,83.40548550313915,84.44886016128346,84.73976965633983,85.51153244813581,84.80696824103293
49.0723,86.19248464834602,83.95910032350231,85.04081412481263,85.30299739429438,85.94375285880041,85.35612798000243
50.5371,86.73555266695284,84.45837021365175,85.57259571500096,85.8018274576483,86.30782564566802,85.8415520669973
52.7344,87.53596088577497,85.23498722115481,86.37307828206845,86.56218113462477,86.89411268167768,86.5837113178268
54.1992,88.07531341501075,85.73962003217589,86.90353542625134,87.06344600419564,87.27536685652201,87.07513906830764
56.3965,88.66395580137264,86.34257460159553,87.4983033882896,87.64986218839233,87.80308802317184,87.65394294725027
58.5938,89.45852098516255,87.09108718255332,88.28904883717317,88.37585258997926,88.30560070483266,88.36820150395322
60.0586,89.90388503684471,87.48167466128132,88.71728391815665,88.77472426619292,88.5967768275966,88.76267006154607
62.2559,90.49693209044908,88.01017320722714,89.29726911145652,89.31097366846888,88.97311451595057,89.29110584297513
64.4531,91.01976314125208,88.46294522400527,89.78892880480262,89.78207473009483,89.34529555945421,89.75916875861013
66.6504,91.23839948330385,88.65795527393226,89.9783185210418,90.0089241743667,89.67132267765167,89.98984435096389
69.5801,91.49573630197574,88.77246538989003,90.20454799946637,90.15636643070586,89.62352903907731,90.14250514145581
71.7773,91.63563794516982,88.86008936492941,90.3385950219956,90.24677714063738,89.57165312638764,90.23015741216284
73.9746,91.6821262701868,88.87499132823417,90.38590589125215,90.25716882649365,89.47511766011021,90.2406775209861
76.9043,91.58864563473666,88.70365257266882,90.27253368109434,90.0989141924622,89.18344776815205,90.08600221167133
79.834,91.31571553367023,88.40961574906686,90.006259352044,89.78921502356896,88.8016458420163,89.78650539559861
82.7637,91.07026667752,88.0819612986888,89.75437679452558,89.46767498638025,88.35061800290619,89.48031472786155
85.6934,90.89081117155582,87.82383948924478,89.5742374040734,89.20141251538972,87.9068504304607,89.23219582764065
88.623,90.84411926625245,87.65978010640758,89.50175790460835,89.06980479405536,87.61285810085542,89.11041695474374
91.5527,90.56853813211218,87.40305258990035,89.23246208458808,88.79096968908122,87.30732535585081,88.83404508826864
94.4824,90.17929537321557,87.01977874259636,88.84785096193026,88.37123622277971,86.87809647603973,88.4350486522842
98.1445,89.79099307464502,86.56549346239778,88.45405156370545,87.89929621128672,86.3126377453444,87.99519442876019
101.807,89.44126732120951,86.1374838695774,88.10202504027247,87.46642072974065,85.74746468133942,87.58877720317025
105.469,89.16779444663493,85.76847852638188,87.81756013317498,87.09735512421129,85.1987187592917,87.24544880616676
109.131,88.98534868218736,85.40539008658634,87.58977506879029,86.76666621455898,84.6916508792716,86.95907320003855
112.793,88.75009323771143,85.1327001026057,87.37354607253592,86.46277899368081,83.9928609863494,86.65731243569618
116.455,88.64096026492247,84.92103797830518,87.24025793306124,86.26698430040425,83.37001939544609,86.45843746144159
120.85,88.77550661810217,85.03783278413474,87.41366802598847,86.40513912979617,83.00053949965657,86.55361817089785
125.244,88.9571772431418,85.3148137433688,87.65072032717943,86.66981888164524,82.73601691556787,86.7412440216323
129.639,89.28143185664992,85.897463714319,88.03861423444003,87.19655676355701,83.20512397861296,87.17085219070388
134.033,89.4247467319147,86.19154159801457,88.1805723579118,87.49436819813799,83.92033738364887,87.41620963736055
138.428,89.43413209455537,86.20691601808412,88.17418483051968,87.54901419148625,84.36088286277071,87.472290884408
143.555,89.33349534132186,85.82622682039585,88.01743042032037,87.37071816487558,84.4214324166585,87.31806022623292
148.682,89.5395274082745,85.77357415538201,88.21181412779758,87.53696509372811,84.73999192136016,87.48928048941231
153.809,89.32306383798607,85.55414224515235,87.95327972208426,87.27401507621423,84.84055784267734,87.28807724234743
159.668,89.07862196818571,85.03149989450942,87.66812598685854,86.73293505782969,84.25368281873993,86.90107565692651
164.795,89.30428147379577,85.02710806718713,87.98630052161074,86.82643875259667,83.44877360789192,86.99309533443873
170.654,89.682669933588,85.38935811802922,88.5049286043104,87.43001907673671,83.67717753561077,87.43622998825064
176.514,89.45020328516902,85.12336491040135,88.32359054254066,87.28782025380902,83.620341793397,87.24584663781474
183.105,88.90900853709805,84.50998156401648,87.80966556258664,86.75125047308288,82.71149365099315,86.67310510104089
189.697,89.27374701565229,84.35812461866635,88.15810242923845,87.0281447362031,82.84133317767261,86.93718612902332
196.289,89.67882260014154,84.71204774630591,88.67761211382138,87.67982133693177,83.31988435556981,87.42418004735343
202.881,88.71961270273488,84.14686977377025,87.83465653763827,87.11495851288115,83.5425116680595,86.72575610826343
210.205,88.46294508134214,83.92535854468632,87.67528607343566,86.34279732575999,82.71502760880092,86.33872261689145
217.529,89.333383730051,84.60759367590244,88.69274540464168,87.36670930449883,81.57134505918755,87.11912557541712
225.586,88.61516543912927,84.42662016087357,88.15095071280182,86.92292809374364,82.54041898998412,86.68240873380599
232.91,89.75874736256176,84.57882379312994,88.92788949325511,87.04604576921682,82.30421261961874,87.30900299004445
241.699,91.03978444125131,85.83232893668674,90.5456170244976,88.81949694641438,82.89706190845469,88.74394879354851
249.756,89.64554346512816,86.01317861643035,89.75111169338754,88.78729130070822,82.52997022343304,88.0627024298828
258.545,89.77295315352906,85.30061121213708,89.59983759731288,88.90456278137151,84.52644423135867,88.14321513999374
268.066,89.78482699908747,85.37125109995031,89.72909592402083,88.53317078022684,84.49167104030104,88.10274299817407
277.588,90.83049550192942,85.03178494916686,90.5658227094282,89.33393029433185,83.87023216005986,88.77376919760995
287.109,90.20461853058409,85.05203319514636,90.32105852464572,89.8146715465859,85.32244634818157,88.74346565245993
297.363,88.5313010208409,85.44818390978237,89.87218166208284,88.77698952397525,83.44950397535791,87.79671894517301
307.617,90.24372874238883,85.76976202801406,91.07993770981274,90.32863502990796,84.07590443023894,89.08679499899051
318.604,88.7077105362737,86.97554794324262,90.25330532411458,89.91161132409647,84.55754332952431,88.53273685618262
329.59,87.22644013159119,86.40464431178962,89.61919456541428,89.38957551238539,85.06727150398835,87.88321897163152
341.309,85.89378655605823,85.44779089196496,88.25283752395173,88.1392128015697,85.07829574953891,86.77850302417703
353.76,86.77600268132495,84.80393853349433,88.86102502146603,87.79529295343795,84.45552699051096,86.86358734876161
366.211,86.5628938628963,85.07936698279626,89.08218582536303,87.63154667097191,84.1402455946907,86.85532208335381
378.662,86.85470429491461,85.9095373153644,89.6878217422397,87.94498189785965,83.77736890326274,87.27035033434906
392.578,87.29776657207752,85.61031155488658,89.71131677875276,87.9438022908508,83.66567904367848,87.31074257476374
405.762,87.23828459616128,85.48616696091428,89.46435346264464,87.20912072169853,82.21856839197945,86.91909564755262
420.41,86.99065485152211,84.77210894315874,89.64488194510362,87.7546607116747,81.15716253734954,86.89928368566181
435.059,86.27929342639605,85.31767274161031,88.75195830902352,87.25600169610377,82.90488282777487,86.51632894088736
450.439,85.50315444072042,84.3476788903778,88.45276627945178,86.22245054466802,82.9172954414142,85.89340988137764
466.553,85.99415675323961,83.73675058176222,89.28420746262853,86.0792755076979,81.79207668570693,86.1035278140452
482.666,86.40360592944985,85.49189327914792,89.5270361714043,87.03169983404278,81.328605242173,86.68104981546068
500.244,87.64169065869021,85.44410878822423,89.18921455347892,86.6190143982203,80.49104187043908,86.68764520694673
517.822,86.79877794240973,85.54506979611796,89.1911905389333,86.91930063877132,80.9350795968834,86.59549864022068
536.133,87.8329560816074,85.83890577599358,89.36087839213785,86.57465506407227,82.37883169921867,86.95705192079349
554.443,89.2909645170598,86.32143412459315,90.17003188262245,86.75640929629502,79.96481630355409,87.62082614262572
574.219,87.80595022481509,86.45701545043885,88.73280007919213,86.86214666871938,81.27311479751398,86.83441946497273
594.727,87.37124003165547,86.23311144344142,88.3577939467305,85.12750170540608,80.32566728701073,86.2004232241551
615.234,87.17213473328776,86.20957129261905,88.33381906147692,86.22301606423798,79.48946684450219,86.29124473884742
637.207,87.75238311442816,85.85420251545821,89.21594677501564,86.20151247447016,79.89475213848469,86.68459913456624
659.912,88.0550833474292,85.77356742749178,88.87262211328174,86.21362654690628,79.67015876545607,86.62593204982032
683.35,86.9775632319371,86.07230361098681,87.73565556490486,85.42898576885467,79.03571111314892,85.8574053220911
706.787,86.7415367872481,86.38782388758798,88.0179541321794,85.25627061588874,78.72594686677459,85.91313904632578
731.689,87.69532931104352,85.24627545741235,88.31309979700843,86.18816457299141,78.26808792354034,86.19899068205409
758.057,90.21822371573857,87.65636330825396,90.32462424510724,86.61821292120185,80.99984050480687,88.1914861040416
784.424,90.5963765951207,87.7878965355249,90.79466694010726,87.31789751838153,79.53363314521944,88.54662466127338
812.256,89.95023273485926,89.6169795342631,89.73389462223004,86.9040939980134,79.75872569318142,88.36272537167098
840.82,90.3994981926846,89.34799902879934,89.07244160334295,85.76801066671523,79.30654262967677,88.09866514148787
870.85,90.21809935044904,88.93391780540898,89.79242533491951,86.50925156587287,78.85756091672268,88.21076951074615
901.611,90.42715026247426,89.19269469912142,88.96083511045542,86.05803417480331,78.56178257709423,88.05662446383951
933.105,90.20623691009071,88.41670957982983,89.13703370538344,85.61286266378178,78.36494653208787,87.7752899680411
966.064,90.73384764744077,88.95631889797535,88.25024750809418,84.83468986897098,77.7256631415898,87.78513232870849
999.756,90.33157031917695,88.23129961344678,88.91276185197695,85.51698163848755,77.91615850614095,87.69589030281438
1034.91,90.08479200878952,87.66394505005842,88.69602437098182,85.33860456641088,76.92757670872953,87.3806395973363
1071.53,89.99258526615316,86.24344246286581,88.4565576876707,84.7972463848062,75.91791883971534,86.92163324039345
1109.62,90.77108394042207,86.80548453543949,88.33811549305432,85.19728569262672,76.70967774616257,87.37727756502096
1148.44,90.57029627936679,86.27095447144757,88.01757032605063,84.3215108701924,77.2488421405386,87.02627486569094
1189.45,90.61624918840404,85.94188460791068,88.18150175266156,84.0396867359264,75.75378963762248,86.97973332986534
1231.2,89.95152439843764,86.20322362033586,87.74399265435883,84.10644838737443,76.27239870960952,86.62895094737337
1274.41,89.86591456232492,84.86336207476074,88.96523711871974,84.68275889007343,75.9906860755978,86.80825460564151
1319.82,89.29093357404122,85.68795045568224,89.30267030877918,85.36290287542646,75.70815260975745,86.90646341803608
1365.97,89.69677337093714,83.68761203304071,89.93111187607285,85.43460124891622,76.69010618134867,87.07017488358686
1414.31,89.41494413626519,84.21907376015817,90.34658827665173,85.90773573571724,77.43675875613792,87.26953007273302
1464.11,87.66958589856732,83.56358000117449,90.17118271283154,85.83338115524742,76.17652451099015,86.58335139294677
1515.38,86.61874360220791,82.14450684190655,89.85019311533615,85.34761884155694,76.25427741070713,85.9633352148837
1568.85,85.52794460251233,81.35675829589597,89.28325472446541,84.56703508745946,75.35218421814922,85.21701139067446
1624.51,84.96276246600277,80.48190758650054,88.95926870467622,84.32860656215693,74.52548967366506,84.80426239136283
1681.64,84.31786782338959,81.33017665495268,88.76794119358422,83.66058272910429,73.9923824989395,84.52239888918707
1740.97,83.62057815268504,81.16101566694894,87.73125728482478,82.90196790668035,73.43771922049018,83.69609420770345
1802.49,82.15376088304177,81.07524206315911,87.15882939965091,81.99729817679365,72.41146166958332,82.95771245959352
1866.21,80.87315227608288,82.60679626342318,87.65760367701172,82.16759182588855,72.1878479787044,83.29975762700572
1932.13,80.91111626927746,81.61630725911853,88.76236064458136,83.23001766284348,72.36412464999498,83.97270758891246
2000.24,81.67662564442703,82.22431831120427,89.08465457222879,83.93566419841524,74.15118025710245,84.463739362423
2070.56,81.495203879542,83.23326027590691,88.26093562485013,83.38981090753039,73.38248785807261,84.01991498915667
2143.8,82.09009430682154,83.74784742545022,87.95833043086957,83.28338945044776,73.68770226279906,84.01441846458373
2219.24,83.05918516053,84.4836290040439,88.90548918524169,83.99071534251003,72.75605750831335,84.85660592980894
2297.61,84.02858250417717,84.51829539056094,88.94916823844174,84.16593689439092,73.77891554269434,85.06722700094613
2378.17,84.822483281513,84.20919526969679,88.653026418023,84.01892813692753,72.91904906072118,84.97579852101076
2462.4,85.57220511653071,84.36158547725397,88.82621452688288,84.043048286379,73.1141338180646,85.2403354730074
2548.83,86.5377975773434,84.19403476317034,89.6016251289487,84.71519960270574,73.95086189701958,85.90306258150217
2638.92,87.39591212670904,83.9857865766897,89.19626053046238,84.66703141576191,72.82723267414899,85.89391732283559
2731.93,88.11532973075659,84.92959688509923,89.31516998658205,85.04238063593002,72.78764611274075,86.3377650944242
2828.61,88.97656439382672,85.36461330023333,90.36685745234564,85.54721052868567,73.73033398149197,87.16740513030305
2928.22,89.79003966379737,85.89078960661007,90.35975534106511,86.16504566834503,74.27988786872314,87.58565057622998
3031.49,90.15004383607533,85.79109577371365,90.38562609662678,86.15001290975002,74.55120887102396,87.70562682169599
3138.43,90.36174739875212,85.54071246050535,90.76056255828713,86.21202718978715,73.68473500175364,87.89270367293454
3249.02,89.76880041073503,86.45943418790966,91.09624228904234,86.90533972769926,73.88905527361638,88.05186654492702
3363.28,90.30316390749483,86.4560998959148,90.43257648531518,86.50867521509663,73.79541934715735,87.91095969095099
3481.93,89.40569481945981,85.8287257912901,90.35752994141187,85.71207372596291,73.62646417944764,87.38184978481816
3604.98,89.00226626181723,86.00069560077375,90.0563411751133,85.14065104190531,72.30442906068768,87.07503390460688
3732.42,88.95568134725615,85.44139902879674,89.83004501845419,85.19264464903134,72.60861042765963,86.89619166932894
3863.53,88.33013717945458,85.44243909293745,89.79266170193544,85.24469257414002,73.12916255752417,86.70138971988031
3999.76,88.50195010096702,84.91767382557858,89.52831827580697,85.21800403908954,72.93199010828307,86.5663170410644
4141.11,88.26700662576185,84.87183717836113,89.99260815518561,86.1331565561966,72.23461291298297,86.81879311455356
4286.87,88.48962573417667,85.15110782165422,89.90474269771661,85.8085556810953,71.96329345883002,86.82801987683395
4438.48,88.27290646177092,84.8671669219246,89.95081156280439,85.67315827960373,71.96983317108077,86.7252335017162
4594.48,87.9377312459176,84.52889398675164,89.88481032214256,85.40628642468947,70.76438232083491,86.51022739630238
4757.08,87.44973409048866,84.05514981069423,89.50744209621483,85.17365653773652,70.86436017440954,86.11591457989992
4924.8,86.99758095420694,83.4464543150715,89.04784097976544,84.43353048967647,70.73872480606305,85.59805045756961
5098.39,86.08662976684302,82.90801970709126,88.80582551985312,84.49822397062476,69.47628643982014,85.189495230298
5277.83,86.23276145920586,82.60832186446596,88.4763650510419,83.92153212086113,70.26861698707827,84.95204975794724
5463.87,85.68215175468121,82.179946148297,88.2437779295907,84.07810014106529,68.53760644431556,84.67010004336728
5656.49,85.60351830534964,81.93532426244077,88.77806606469285,84.0940619731226,69.17143105796045,84.8833250022331
5856.45,85.85096241629765,81.74167743567985,88.59379303440748,83.92123649066144,69.14667986297012,84.80669601350635
6062.99,85.86315957421199,82.01647170177738,88.99230407650472,84.45957113127864,68.81910525380096,85.11781361377335
6276.86,86.20647376995836,82.12455875006451,88.87486055004078,84.09899083131039,69.40835744775738,85.10025951963813
6498.05,86.22582451898717,82.14644483029946,89.40493527945132,84.4896821466007,69.12489228449658,85.42720580243319
6727.29,86.56206432488513,82.37639306456661,89.13086886727643,84.31023116012211,69.00307326915666,85.37143006721922
6964.6,86.4476006412994,82.28958015297651,89.63803442310652,84.63873976369003,68.12172619086839,85.63066343371786
7209.96,86.53932733493023,82.16840102273058,89.26902032407644,83.95478546099478,68.0994864367294,85.35454512876034
7464.11,86.21945144710958,81.73843408469718,89.2738649529624,84.13821313236625,67.5758970923326,85.26088838851054
7727.78,86.21055045968778,81.6998787126984,88.87824812830445,83.65549778704583,67.15885616225366,84.98418245996048
