Freq,Floor Bounce,Ceiling Bounce,Front Wall Bounce,Side Wall Bounce,Rear Wall Bounce,Total Early Reflection
20.5078,75.51478541187915,75.69708448938044,75.49386935625644,75.81499006883014,76.53130425713076,75.82754282873971
21.9727,77.7281148024874,77.88794795554973,77.70292741063056,78.00836591498462,78.6585152873463,78.01161003401191
23.4375,79.44681953851375,79.6060528266459,79.42017169071214,79.72523894098579,80.37899423817049,79.72997208552232
24.9023,80.98280060986087,81.1361948114529,80.95162508625421,81.26007846976346,81.93445349330565,81.26828127148265
26.3672,82.30374786005278,82.45575005752468,82.26890490257696,82.58173354744714,83.28597234500543,82.59556667472988
27.832,83.55819611940711,83.71615853044165,83.52126063409841,83.84187551887447,84.58505341220436,83.86241866057807
29.2969,84.62598425137573,84.77186257919251,84.58188433632316,84.9048583188198,85.6760331803716,84.93108631671478
30.7617,85.43110692988495,85.57840488798823,85.382641791829,85.71360999721492,86.52621644122883,85.74713967916291
32.2266,85.92578980663612,86.06901658026314,85.87341163741166,86.20795236331574,87.0462313327834,86.24633011361985
33.6914,86.1303818764539,86.26392914540641,86.07127331268369,86.41017856797907,87.27609809085249,86.45345676772897
35.1562,86.09625942967159,86.23499348655253,86.03598798072903,86.37870601558765,87.26831274647738,86.42701837612256
36.6211,85.99548949113603,86.14040634879086,85.93650400687389,86.27798942367687,87.17235689022498,86.32884647997128
38.0859,85.9401238666868,86.0926636091447,85.8821176933281,86.22392821819632,87.13216118926023,86.279066056318
39.5508,85.78430583610069,85.9328776321571,85.72264450792993,86.0678377047134,86.99569112457274,86.12648621975214
41.0156,85.61303144293717,85.75704907201067,85.5515410234523,85.89000823984153,86.8011445021065,85.94740228679453
42.4805,85.56902049097215,85.70732966316002,85.50228552569314,85.84362097059825,86.77821407944393,85.90601714562133
43.9453,85.45319659168732,85.58589345960793,85.38332440122565,85.72314520892431,86.66354606212445,85.78791555876826
45.4102,85.34842944978702,85.47718184801691,85.27736583857177,85.61267460692756,86.54676565816695,85.678117375226
46.875,85.26129558935514,85.39446083118892,85.19059332912663,85.52422972442713,86.4584062157775,85.59133490477628
48.3398,85.17713591935461,85.30314921349971,85.10331650314058,85.43337736279628,86.36270649294424,85.50110556571029
51.2695,85.17087734884205,85.28465608128803,85.09227776939711,85.41404186276638,86.3311827822076,85.48290911992484
52.7344,85.2046944345309,85.32207449573306,85.12882743628084,85.44278173672834,86.34619527942918,85.51235091871524
54.1992,85.19847709454986,85.31491197755349,85.12462146930741,85.42726003316591,86.31235783597512,85.49781166331184
55.6641,85.2482340086929,85.36383165026936,85.1748979296002,85.46922180111278,86.33980100891513,85.54059568456516
58.5938,85.42697556268402,85.547459795369,85.35184285306678,85.64442898597909,86.52373446935165,85.72049956815677
60.0586,85.49700996641846,85.62350701363648,85.42249065321046,85.71431334826036,86.60039660660252,85.79336871617691
62.9883,85.69664994799895,85.7963695413758,85.61409301097632,85.8873305016023,86.74050880166762,85.96686986357541
64.4531,85.78653547512211,85.86536971432278,85.69595819743387,85.96260277290182,86.81283108300364,86.044199192797
67.3828,85.88012238285009,85.92340499860235,85.77300086870821,86.0354019994299,86.89622605349201,86.12141096230069
68.8477,85.91795785365777,85.95118165229229,85.80783794199098,86.06253991214233,86.91607864949633,86.15037913183832
71.7773,85.92402769783855,85.96183018882425,85.81740262099072,86.05444835731605,86.89052217288797,86.14767301630812
74.707,86.05502038129494,86.09585991130794,85.94840217477123,86.17308191365753,87.00425217807074,86.27274074430916
77.6367,86.21189223516711,86.23669333402327,86.094463585232,86.31395334101083,87.16451469771235,86.42220941547977
79.1016,86.15174436215689,86.16715531235694,86.02881352142752,86.24439874911495,87.10200283789783,86.35684724444282
82.0312,86.02706123343516,86.01346608274038,85.88929648377305,86.09560444207249,86.96410995488664,86.21603550716507
84.9609,86.1311058418865,86.08345430516482,85.97451111786114,86.17762908403814,87.07587214586977,86.30766402221894
87.8906,86.34968280448783,86.2545377894848,86.172210427484,86.36359467766222,87.26870031902344,86.50090348353196
90.8203,86.08542277539101,85.94652082924235,85.88556453323791,86.07595910343889,87.02312446079134,86.22420992122738
95.2148,85.91158256720682,85.71640330080395,85.68125628317566,85.869029238059,86.85536154118009,86.02930214655959
98.1445,86.0150258708453,85.75683927339813,85.76056516422253,85.93925671417524,86.94493458311804,86.1068568827184
101.074,85.78354175932888,85.47444229197055,85.5141398010045,85.68089105616586,86.6946809723595,85.85352424600896
105.469,85.48384810925124,85.25060400337232,85.24240694033583,85.39737242355034,86.40891936705972,85.57947040809005
108.398,85.70694298402762,85.47343081194052,85.4707556670613,85.59582747876567,86.57319326249034,85.78459520952157
112.793,85.67408830833892,85.4598990201606,85.45260271567118,85.54230170714335,86.475490245538,85.73868077997645
117.188,85.68700669947083,85.58854761465035,85.51645871799991,85.57051747380646,86.44350426172538,85.77546920112535
120.117,85.81246847291051,85.79788430009891,85.66350546725258,85.69677562687694,86.51974728430086,85.90995940349929
124.512,85.95014526334296,85.86127085753404,85.76169623262646,85.77670550484291,86.61209500270596,86.00433541274603
128.906,86.03052120368827,85.90094908121728,85.82424158802539,85.80630065854129,86.60973759770116,86.04489156001685
133.301,86.10460630461077,85.9225248005379,85.87661180669554,85.82265538973942,86.5996083726367,86.07468160580757
139.16,86.126147086939,85.91290027393917,85.88992121780001,85.78487470148775,86.52828634610768,86.05661854915238
143.555,86.10921818855977,85.84104820093687,85.85409652226429,85.71172709124882,86.43872309010013,85.99875576882256
147.949,86.05874707698406,85.74852707542212,85.80129418124905,85.60589610526347,86.28935715613008,85.90763472519266
153.809,85.89773181336713,85.7010884324287,85.70107775699779,85.43629471336418,86.06208566139009,85.76475839873558
159.668,85.82427091104209,85.76429877863582,85.67373828846343,85.36431790730528,85.92689853195662,85.71488526023147
165.527,85.69290946040124,85.6010904236285,85.53602288893119,85.14859979607164,85.60141733366274,85.52010500025968
171.387,85.6146090673152,85.40316740460688,85.41026651940088,84.96106986013369,85.31365886783003,85.34575880082956
177.246,85.42916668788328,85.17057005705561,85.20504822868492,84.70324301358583,85.08201291812058,85.12439427913267
183.105,85.24686066225863,84.95869688569793,85.02212942842392,84.4533346659661,84.79876583999868,84.9039021776993
188.965,85.1743346235704,84.98716050326148,85.03641916029187,84.34052011798639,84.45938922261278,84.81229467045165
196.289,85.2146858425574,85.09651112572216,85.12752345437247,84.30196209875852,84.12498409410662,84.79729350863529
203.613,85.20101389424684,85.05347104166552,85.15155640109064,84.19206546920114,83.79484574399451,84.715725023027
210.938,85.10482941364333,85.0488257201991,85.10246620229687,84.03188919699566,83.50490016121802,84.60807335821885
218.262,84.94702430466894,84.83156533967498,84.93540434530456,83.74421767158942,83.08463350128446,84.37251166013655
225.586,84.97080927208118,84.8484823864289,85.0273423147188,83.65375761176054,82.52317121041125,84.30861312973691
232.91,84.80342471876882,84.79264916847451,84.95501569351767,83.4262397852921,82.03987145302659,84.13882937260479
241.699,84.87591729940188,84.64231463682032,84.96219843326622,83.28284483229879,81.4851535556815,84.03381294304666
250.488,85.01661572298022,84.55365538212114,85.08553216532084,83.23180431393416,81.0512381511167,84.02485324663381
259.277,84.88501373201042,84.46534389543011,84.99264886960485,82.98332058452895,80.5691145680333,83.85970467622309
268.066,84.95785747200976,84.24691612425684,85.03232736358423,82.82494851207676,79.71124309870478,83.73963080771567
276.855,84.60386284263973,84.046568491512,84.79824106267013,82.51108460826963,79.32608454253499,83.45702296377715
287.109,84.58313510165478,84.1576330147297,84.91375871955093,82.34009977636852,78.17203861818334,83.40370277110573
297.363,84.49483626934685,84.29041856412627,84.99727459869956,82.37504289864017,77.34166619636304,83.39689209643534
307.617,84.42145168001699,84.09219856741558,84.90560595924963,82.1112920400191,76.46259177384054,83.22087800398414
319.336,84.41957644946015,83.99274768377818,84.95151650951894,81.92176978290796,74.7804409638808,83.12125553662807
329.59,84.22395666653439,83.73495339337889,84.75891864632212,81.66605453115591,74.13111903593892,82.88963785115273
341.309,84.24984090457492,83.42608758662857,84.76316482813397,81.34266449001133,72.28023943103766,82.73573006745943
353.027,84.13949625047859,83.38165433380512,84.73469453844157,81.3661491761432,71.40683392415404,82.6741676733248
366.211,84.19760420826371,83.519311458238,84.98307169409317,81.48149891067294,70.64042937020328,82.81029410654939
379.395,84.11244677962374,83.33493782746304,84.83339818946749,81.3587896708694,70.00557990202114,82.66877972793093
392.578,83.82128181045267,83.04659193223536,84.69361085500833,81.060729665982,69.86358518684088,82.42930413648193
405.762,83.55904589223638,82.69238769237722,84.55266096267034,80.41054306539374,67.8757865158235,82.1173004727009
420.41,83.88822458123458,82.94259560826563,84.64710226840452,81.02782772613514,68.48339161414174,82.39056528094639
435.059,84.06958772127231,83.07712862627662,84.94329137870776,81.21779197889376,69.52100561098331,82.60927321933195
451.172,84.46927893444723,83.32260995223811,85.37292373667418,81.77051611642602,71.26297991322959,83.02353810936063
465.82,84.27460973109699,83.45685060782793,85.33520276008527,81.75557978982437,71.29311956232834,82.98472936259205
483.398,84.54011923881927,83.42635259941386,85.51725519862623,81.88990640981838,72.05624200691854,83.1444246193923
499.512,84.70511956052307,83.63129180777682,85.64951640735157,81.99531337075507,72.9501644308357,83.3102100602618
517.09,84.30609176093465,83.09055088369485,85.30564321350406,81.8022207093999,73.45446157441489,82.94965619403288
536.133,84.47037438278491,83.01625219053442,85.61868353481671,81.78543283765494,73.30778924475118,83.08396746490672
555.176,84.56711463234714,82.90785389891492,85.6330666204736,81.931884653455,72.71020860997427,83.10525778383595
574.219,84.62495803797722,82.919651037323,85.73796942756618,82.21836638458788,73.65244021702922,83.22459437741607
594.727,84.16102366317965,82.74674174163547,85.50576874981022,81.92863100743912,74.21958425816024,82.95132848743229
615.234,84.38011942372134,82.73208299817213,85.63985036452982,81.80302177943058,73.98777997187788,83.03061671776044
637.207,84.82588925016583,82.89431866147237,86.00775663271943,82.23436562432043,73.99346891331471,83.38339913349245
659.18,84.41530935006122,82.92712495094463,85.81478566705056,82.08046678888644,74.64742938632907,83.20020657510875
682.617,84.76466937825118,82.89844241906587,86.0425342895887,81.89348726785165,74.47054103973787,83.34104209023637
707.52,84.87173404986153,82.96625516458037,86.11345913328464,82.11417316419048,74.03803385557998,83.43094282871932
732.422,84.50359453138823,82.90982906875281,85.85868192740521,81.75283278239927,74.13285693825694,83.17427986345318
757.324,84.53934121198203,82.74730946270762,85.77967841236747,81.6587735340949,73.20168097332878,83.08982598883216
785.156,84.40736039504591,82.89728392547897,85.56899392047869,81.21185195918183,73.71544381629167,82.9532930359009
811.523,83.87799494366931,81.91436261409181,85.18864837501967,80.71692063556722,72.29689928967335,82.37950924871392
840.82,83.51818566439711,81.6356300987817,85.17804313700515,80.70291823990871,71.54269128894238,82.21070373273919
870.117,83.26727924218581,81.296849456218,84.79827237849616,80.15274535182812,70.56922836395431,81.84035317337998
900.879,83.17089530528546,80.79788063321746,84.7535719619334,80.27565865133106,71.15232267714954,81.73813941465376
933.105,84.36973564621397,80.5254713202303,85.9568178064041,81.38782427508139,71.28855968104021,82.7028117717285
965.332,84.17699220412696,80.96521682264233,86.14595839394514,81.5401186484255,71.46953730833147,82.80956417887236
1000.49,83.87529404265933,80.88916140854936,85.43321014173766,80.83739539339966,71.24871219366462,82.30854687299636
1035.64,83.62974184747416,80.94563155466709,84.61241522376632,79.74271400546291,70.11647030999018,81.75358589236833
1072.27,82.86198617323092,80.51599624543353,84.36596983152722,79.26173599710145,69.97209014242753,81.29353010362657
1108.89,82.57900952023155,79.41166817316443,84.03112599169187,78.72136126341168,68.68802289081796,80.8156907562718
1148.44,82.6814965314895,79.38748557756318,84.01348363454703,78.57155673508367,68.3586535952137,80.8138761395487
1189.45,82.62820824788449,78.71318745040165,84.21117814629037,78.35487803211771,68.6599402728509,80.7702619286115
1230.47,82.30705228061888,78.5075189449186,83.96624082260487,78.16886590026543,68.13438167395724,80.5104943909818
1274.41,81.98114205499468,78.62782471482953,83.84787821920895,77.84163721677794,69.0269738897122,80.35096206244447
1319.82,81.81260867213982,78.46810936696941,83.7437219839506,77.39966027460625,68.62640895023395,80.17956048639178
1366.7,82.34338575213391,79.31669379758827,83.39121560928938,76.27728280424772,68.81104891296361,80.21475092221509
1413.57,82.32032228924724,79.62254433727796,83.52090763292829,76.06482825549722,67.22402231392945,80.27704836905197
1463.38,81.86580322303209,79.8191550940131,83.9317456553056,76.29675379298493,66.42098330076132,80.36527065046627
1516.11,82.25135363708088,79.9370075441886,84.04839296905864,76.55119618270156,65.27470761370061,80.56190207549324
1568.85,82.5890680124169,80.12957900454595,83.71046770008535,76.71029205693421,64.91849646504203,80.56537295760357
1624.51,83.37553767995439,80.363004237366,83.09750871700602,76.20401865231375,64.89914204298451,80.60801302321688
1681.64,83.54851524201148,80.97741037797576,82.97621720487533,76.21740951563064,64.85719440372844,80.75530451820237
1741.7,83.43360838657549,81.38606717623695,83.85722121986768,77.65831434057924,64.88322840342397,81.22240214835743
1803.22,83.86159426034219,81.90196683120222,84.58154594149606,78.44445564784758,65.30532029000015,81.81116849015136
1866.21,84.18739605538309,81.35153971152434,84.4099285829758,78.66275553537984,65.14990079117284,81.7701436517797
1932.13,84.04154518774841,81.4072499546825,83.77303401445603,78.2906421067512,64.9740192498672,81.46671655977889
1999.51,83.8014830927556,81.45549561283073,84.54404317475523,78.95626045129211,65.35823522614851,81.74095259263576
2069.82,83.93994377290804,81.26312515663805,84.64928090546982,78.78272109671487,65.75547385874447,81.77541594240986
2143.07,84.1908448899919,81.32509756574936,83.71155271995414,77.95928647457725,65.82566793916806,81.4583618173336
2219.24,84.04052747602293,81.08875025755903,83.72744279781467,78.13724755663398,66.63581486958077,81.38412917550924
2296.88,84.20478130206155,81.39390409744698,84.41993658148093,79.03060809691213,67.3781181517688,81.83733155668298
2378.91,84.45852826501068,81.89751967698864,84.35799034030705,79.1576956527279,67.23154144984409,82.01058815396836
2462.4,84.89801621648536,81.92468619621977,83.75513317493417,78.82505813753545,66.94202409318044,81.94965279090748
2548.83,85.0181206831529,82.24015589765634,85.30717362473439,80.47995861421794,68.03284232898443,82.75310115555642
2639.65,85.00735666783152,82.2384474200108,85.53311168782773,80.63726892741283,68.24236834729932,82.85198841633299
2731.93,85.0163039741483,82.45172935798931,84.38355031768803,79.674862320433,67.679574496977,82.38702710409704
2828.61,84.52607754765882,81.88544948645372,84.22586064603311,79.5713230594136,67.33051106289382,82.03308211179575
2928.22,84.30558617199118,82.04924027058539,84.50787838044593,79.83683029706533,67.42441849318938,82.11646614966277
3030.76,84.38280267844132,81.69998756694764,84.62481279862956,79.78092171352871,67.49027897895381,82.11116229274768
3137.7,84.57750205164825,82.43869335973407,84.62642903909992,80.04326549938773,68.0734403724866,82.35442710209986
3249.02,84.56263211657776,82.54633376540023,85.11560723720694,80.70415776249412,68.10642187984038,82.62211154048295
3363.28,83.99351678222058,83.1656866119895,84.95866699443113,81.0658978321068,68.37836017040352,82.58174011845335
3481.93,83.9584057302954,82.75290441550814,84.62804954030935,80.99866353913494,67.82710232470927,82.3526289158621
3604.98,83.95716997775965,82.68700036947081,84.33059780358676,80.79265595784521,67.90468634569993,82.20959183413188
3732.42,84.21869568262937,82.61870704490008,84.83741035052694,81.37636736528094,68.64934837217444,82.53406538804256
3864.26,84.51181649145036,82.92786567088501,84.27250739189206,80.84113720726816,67.80174542440514,82.42392048015897
4000.49,84.51379599902847,82.84205645188004,85.25600201701246,81.36819832743447,68.40015317422024,82.80812221268009
4141.11,85.25109210871165,82.79051670881199,85.19570190135653,81.43894886457446,68.88226647404684,83.02329416170079
4287.6,85.3804498422763,82.64024246152752,85.64245113533077,81.95007926346678,68.22399688885628,83.25847839731475
4438.48,85.02323469407673,82.77399368216516,85.781119908134,81.80352683459574,68.03536735855684,83.19611093568048
4595.21,85.11196610884926,83.14141297397727,86.02236387203237,81.57442924283589,67.71932186536694,83.3461020563895
4756.35,84.56188646830714,82.65342445643248,85.41425240939425,81.32798356792847,68.14969069863136,82.83428496597246
4924.8,84.19481386236222,81.91809901070737,84.69322796521838,80.96630672877637,67.00268834746359,82.26773618060943
5097.66,84.22472819783087,81.81326763997058,85.63311555760002,81.03343195931465,67.26709687731919,82.62166345834626
5277.83,84.16381127126607,82.33684871374939,84.86324342941859,80.63977693019834,67.55897704998421,82.35585387876162
5463.87,83.39020090017007,81.99289675851128,84.2772187542102,80.28574175504437,65.55857053286587,81.7877887396107
5657.23,82.39612936181156,81.20698075488482,82.52784345188641,79.29294139550908,65.84879349349636,80.59529438794736
5856.45,81.56942773136629,81.25094744668333,81.96404726914538,79.8860714414434,66.46101516791092,80.30139431166708
6062.99,82.1417358421518,82.1654140415807,82.22258220730389,80.4982284091401,66.72857795484255,80.87836465605162
6276.86,82.43138551649244,82.99219273525908,82.83339363307132,81.27756471960251,67.01828582395078,81.49502064461923
6498.05,82.65483803606956,82.50429448437,82.89200253699805,80.41903152605872,65.87643543121382,81.27694743814791
6726.56,82.05949035947492,82.24613836721964,82.4498618380288,80.40075945243872,65.84529167810706,80.91808987318112
6963.87,82.15489330416784,82.25727476576057,82.74005912056634,80.82538866191894,65.53913375856624,81.1048978504348
7209.96,81.79581233600466,81.80237424461154,82.64813718182745,80.19513415943331,64.80795878755217,80.75012702653524
7464.84,81.5786686487915,81.1697023448011,82.22719932864557,79.52728090812123,64.03498764082877,80.28542967664039
7727.05,82.6802024037637,81.59020680920621,83.27402719548569,80.19142059511765,64.62557558990085,81.13615098831065
7999.51,83.71811165466654,82.78454834868896,84.27495104658321,81.55119669266989,65.14345619986207,82.24830613855114
8282.23,83.8943486199908,83.22578943482604,84.73848542459416,81.64943558633291,65.28935937203549,82.56550490623073
8573.73,83.14407244784387,82.71122147858101,84.45043848774397,81.70465796462003,65.02670964846716,82.1634453511875
8876.95,83.19567840700468,82.13447812680712,84.13876206565766,81.12021445320276,64.40534750844905,81.83965912231204
9188.96,83.70302189757604,81.63386122083956,84.24574383284039,80.82929835523913,63.95364964590357,81.8729436409595
9514.16,83.89952510771602,81.32515235332602,84.5194741915067,80.5830842901952,63.7594714300473,81.93666773860188
9849.61,83.11519589955104,80.98351942432899,84.69014322008861,80.542761327053,62.38457854696159,81.70144751857009
