Freq "Front Wall Bounce"
20.5078 75.49386935625645
21.9727 77.70292741063058
23.4375 79.42017169071212
24.9023 80.95162508625421
26.3672 82.26890490257696
27.832 83.52126063409841
29.2969 84.58188433632316
30.7617 85.382641791829
32.2266 85.87341163741166
33.6914 86.0712733126837
35.1562 86.03598798072902
36.6211 85.93650400687388
38.0859 85.8821176933281
39.5508 85.72264450792993
41.0156 85.5515410234523
42.4805 85.50228552569314
43.9453 85.38332440122565
45.4102 85.27736583857175
46.875 85.19059332912664
48.3398 85.10331650314058
51.2695 85.09227776939713
52.7344 85.12882743628083
54.1992 85.12462146930743
55.6641 85.17489792960019
58.5938 85.35184285306677
60.0586 85.42249065321047
62.9883 85.6140930109763
64.4531 85.69595819743388
67.3828 85.77300086870821
68.8477 85.80783794199098
71.7773 85.81740262099072
74.707 85.94840217477125
77.6367 86.094463585232
79.1016 86.02881352142752
82.0312 85.88929648377307
84.9609 85.97451111786114
87.8906 86.172210427484
90.8203 85.88556453323793
95.2148 85.68125628317564
98.1445 85.76056516422253
101.074 85.51413980100452
105.469 85.24240694033583
108.398 85.47075566706131
112.793 85.45260271567119
117.188 85.51645871799991
120.117 85.66350546725258
124.512 85.76169623262646
128.906 85.82424158802539
133.301 85.87661180669555
139.16 85.88992121780001
143.555 85.8540965222643
147.949 85.80129418124905
153.809 85.7010777569978
159.668 85.67373828846341
165.527 85.5360228889312
171.387 85.41026651940089
177.246 85.20504822868493
183.105 85.02212942842394
188.965 85.03641916029187
196.289 85.12752345437248
203.613 85.15155640109064
210.938 85.10246620229685
218.262 84.93540434530456
225.586 85.02734231471881
232.91 84.95501569351765
241.699 84.96219843326622
250.488 85.08553216532083
259.277 84.99264886960486
268.066 85.03232736358422
276.855 84.79824106267012
287.109 84.91375871955093
297.363 84.99727459869956
307.617 84.90560595924964
319.336 84.95151650951895
329.59 84.75891864632212
341.309 84.76316482813397
353.027 84.73469453844157
366.211 84.98307169409316
379.395 84.8333981894675
392.578 84.69361085500834
405.762 84.55266096267036
420.41 84.64710226840451
435.059 84.94329137870777
451.172 85.37292373667418
465.82 85.33520276008525
483.398 85.51725519862623
499.512 85.64951640735157
517.09 85.30564321350404
536.133 85.6186835348167
555.176 85.63306662047358
574.219 85.73796942756618
594.727 85.50576874981023
615.234 85.63985036452982
637.207 86.00775663271943
659.18 85.81478566705057
682.617 86.04253428958869
707.52 86.11345913328464
732.422 85.85868192740523
757.324 85.77967841236746
785.156 85.5689939204787
811.523 85.18864837501965
840.82 85.17804313700515
870.117 84.79827237849618
900.879 84.7535719619334
933.105 85.9568178064041
965.332 86.14595839394515
1000.49 85.43321014173767
1035.64 84.6124152237663
1072.27 84.36596983152724
1108.89 84.03112599169185
1148.44 84.01348363454701
1189.45 84.21117814629037
1230.47 83.96624082260487
1274.41 83.84787821920895
1319.82 83.74372198395059
1366.7 83.39121560928936
1413.57 83.52090763292829
1463.38 83.93174565530562
1516.11 84.04839296905865
1568.85 83.71046770008533
1624.51 83.09750871700601
1681.64 82.97621720487533
1741.7 83.85722121986768
1803.22 84.58154594149607
1866.21 84.4099285829758
1932.13 83.77303401445604
1999.51 84.54404317475525
2069.82 84.64928090546982
2143.07 83.71155271995413
2219.24 83.72744279781469
2296.88 84.41993658148093
2378.91 84.35799034030705
2462.4 83.75513317493419
2548.83 85.30717362473439
2639.65 85.53311168782774
2731.93 84.38355031768802
2828.61 84.22586064603313
2928.22 84.50787838044593
3030.76 84.62481279862955
3137.7 84.62642903909993
3249.02 85.11560723720694
3363.28 84.95866699443113
3481.93 84.62804954030933
3604.98 84.33059780358676
3732.42 84.83741035052694
3864.26 84.27250739189205
4000.49 85.25600201701246
4141.11 85.19570190135651
4287.6 85.64245113533079
4438.48 85.78111990813402
4595.21 86.02236387203239
4756.35 85.41425240939425
4924.8 84.69322796521837
5097.66 85.63311555760002
5277.83 84.8632434294186
5463.87 84.2772187542102
5657.23 82.52784345188643
5856.45 81.96404726914537
6062.99 82.22258220730389
6276.86 82.83339363307134
6498.05 82.89200253699806
6726.56 82.4498618380288
6963.87 82.74005912056634
7209.96 82.64813718182745
7464.84 82.22719932864555
7727.05 83.27402719548567
7999.51 84.27495104658323
8282.23 84.73848542459415
8573.73 84.45043848774395
8876.95 84.13876206565764
9188.96 84.24574383284038
9514.16 84.51947419150669
9849.61 84.69014322008863
10196.8 84.63540931479437
10555.7 84.5431790982971
10927.7 84.42071394162
11313.0 84.32490592775969
11712.9 84.24232983761759
12126.0 84.14084168421329
12553.7 84.18809511114749
12996.1 84.69433991557015
13454.6 84.96752747127691
13929.2 84.30211617218569
14419.9 83.34077877069865
14928.2 82.70804680653023
15455.6 82.95193136229031
16000.5 83.3896691093125
16564.5 83.5673357083676
17148.9 83.59821177954997
17752.4 83.08896361492432
18379.4 82.05125541169038
19026.9 80.85052233103814
19697.8 78.89713061233266
19999.5 78.24288653820793
