Freq "Side Wall Bounce"
20.5078 75.81499006883014
21.9727 78.00836591498464
23.4375 79.72523894098578
24.9023 81.26007846976347
26.3672 82.58173354744713
27.832 83.84187551887449
29.2969 84.90485831881982
30.7617 85.71360999721492
32.2266 86.20795236331573
33.6914 86.41017856797907
35.1562 86.37870601558765
36.6211 86.27798942367687
38.0859 86.2239282181963
39.5508 86.06783770471341
41.0156 85.89000823984155
42.4805 85.84362097059827
43.9453 85.72314520892431
45.4102 85.61267460692754
46.875 85.52422972442713
48.3398 85.43337736279629
51.2695 85.4140418627664
52.7344 85.44278173672834
54.1992 85.42726003316592
55.6641 85.4692218011128
58.5938 85.64442898597909
60.0586 85.71431334826036
62.9883 85.88733050160229
64.4531 85.96260277290183
67.3828 86.03540199942988
68.8477 86.06253991214231
71.7773 86.05444835731603
74.707 86.17308191365751
77.6367 86.31395334101083
79.1016 86.24439874911494
82.0312 86.0956044420725
84.9609 86.17762908403813
87.8906 86.36359467766223
90.8203 86.07595910343888
95.2148 85.86902923805899
98.1445 85.93925671417526
101.074 85.68089105616586
105.469 85.39737242355034
108.398 85.59582747876566
112.793 85.54230170714334
117.188 85.57051747380645
120.117 85.69677562687694
124.512 85.77670550484291
128.906 85.80630065854128
133.301 85.82265538973941
139.16 85.78487470148775
143.555 85.71172709124883
147.949 85.60589610526347
153.809 85.43629471336416
159.668 85.36431790730526
165.527 85.14859979607165
171.387 84.96106986013368
177.246 84.70324301358585
183.105 84.45333466596611
188.965 84.34052011798639
196.289 84.30196209875852
203.613 84.19206546920113
210.938 84.03188919699565
218.262 83.74421767158942
225.586 83.65375761176054
232.91 83.4262397852921
241.699 83.28284483229879
250.488 83.23180431393415
259.277 82.98332058452897
268.066 82.82494851207677
276.855 82.51108460826961
287.109 82.34009977636852
297.363 82.37504289864017
307.617 82.1112920400191
319.336 81.92176978290796
329.59 81.66605453115591
341.309 81.34266449001134
353.027 81.36614917614321
366.211 81.48149891067295
379.395 81.35878967086941
392.578 81.06072966598198
405.762 80.41054306539372
420.41 81.02782772613514
435.059 81.21779197889374
451.172 81.77051611642601
465.82 81.75557978982437
483.398 81.88990640981837
499.512 81.99531337075507
517.09 81.80222070939989
536.133 81.78543283765495
555.176 81.931884653455
574.219 82.21836638458787
594.727 81.92863100743912
615.234 81.8030217794306
637.207 82.23436562432042
659.18 82.08046678888643
682.617 81.89348726785167
707.52 82.11417316419048
732.422 81.75283278239925
757.324 81.65877353409489
785.156 81.21185195918184
811.523 80.71692063556722
840.82 80.7029182399087
870.117 80.15274535182812
900.879 80.27565865133106
933.105 81.38782427508139
965.332 81.5401186484255
1000.49 80.83739539339966
1035.64 79.7427140054629
1072.27 79.26173599710145
1108.89 78.72136126341167
1148.44 78.57155673508367
1189.45 78.3548780321177
1230.47 78.16886590026542
1274.41 77.84163721677794
1319.82 77.39966027460625
1366.7 76.27728280424773
1413.57 76.06482825549722
1463.38 76.29675379298494
1516.11 76.55119618270155
1568.85 76.7102920569342
1624.51 76.20401865231375
1681.64 76.21740951563062
1741.7 77.65831434057924
1803.22 78.44445564784756
1866.21 78.66275553537983
1932.13 78.29064210675119
1999.51 78.9562604512921
2069.82 78.78272109671488
2143.07 77.95928647457727
2219.24 78.137247556634
2296.88 79.03060809691215
2378.91 79.15769565272788
2462.4 78.82505813753545
2548.83 80.47995861421795
2639.65 80.63726892741285
2731.93 79.674862320433
2828.61 79.5713230594136
2928.22 79.83683029706533
3030.76 79.78092171352873
3137.7 80.04326549938773
3249.02 80.70415776249412
3363.28 81.0658978321068
3481.93 80.99866353913492
3604.98 80.79265595784523
3732.42 81.37636736528094
3864.26 80.84113720726818
4000.49 81.36819832743446
4141.11 81.43894886457444
4287.6 81.95007926346679
4438.48 81.80352683459573
4595.21 81.5744292428359
4756.35 81.32798356792847
4924.8 80.96630672877636
5097.66 81.03343195931464
5277.83 80.63977693019834
5463.87 80.28574175504436
5657.23 79.29294139550908
5856.45 79.88607144144342
6062.99 80.49822840914008
6276.86 81.27756471960252
6498.05 80.41903152605872
6726.56 80.40075945243873
6963.87 80.82538866191894
7209.96 80.1951341594333
7464.84 79.52728090812123
7727.05 80.19142059511765
7999.51 81.55119669266989
8282.23 81.6494355863329
8573.73 81.70465796462003
8876.95 81.12021445320278
9188.96 80.82929835523913
9514.16 80.58308429019519
9849.61 80.54276132705301
10196.8 79.8218420460158
10555.7 79.13420153235734
10927.7 78.16439987100665
11313.0 78.01215548917956
11712.9 78.41928954611731
12126.0 78.63104132970783
12553.7 78.72253905704031
12996.1 78.72985077956642
13454.6 78.82591719714466
13929.2 77.72787518693028
14419.9 76.38291992428837
14928.2 75.86950133044401
15455.6 76.52698098124159
16000.5 76.93702029661455
16564.5 76.17216244475674
17148.9 75.66915137494746
17752.4 75.78944464026733
18379.4 75.26098378782507
19026.9 73.53720239520163
19697.8 70.08811420277459
19999.5 68.5655805641131
