Freq "Estimated In-Room Response"
22.4 21.681566217146326
23.0 24.020010051752365
23.6 28.520564052670693
24.0 29.797233978624917
25.0 31.344385139571955
25.8 33.27459944142112
26.5 35.14164810374345
27.2 36.50550108950321
28.0 38.091975025089084
29.0 40.06554759845366
30.0 41.45007956439247
30.7 44.066939544951026
31.5 46.58894182533601
32.5 48.76620930093242
33.5 50.67976999309647
34.5 52.38526192301532
35.5 54.0350299810531
36.5 55.87795452648936
37.5 57.83044478658289
38.7 59.790470218391434
40.0 61.43174947736456
41.2 63.32207413747305
42.5 64.93445438601078
43.7 66.27729615730566
45.0 67.76582278199893
46.2 69.39693435479172
47.5 70.61869335986287
48.7 71.88139304183915
50.0 73.35725548662145
51.5 74.76313799043533
53.0 76.02603991522209
54.5 77.38994514224866
56.0 78.83949330281446
58.0 80.18904921906275
60.0 81.1509671653343
61.5 81.79849794082264
63.0 82.08689415318482
65.0 82.46589105933717
67.0 82.86349822621898
69.0 83.19788071211033
71.0 83.47759389591121
73.0 83.56529325000575
75.0 83.55416562061451
77.5 83.53228029213939
80.0 83.71247635652011
82.5 83.86473303226667
85.0 84.04785669806985
87.5 84.20100844512599
90.0 84.38407726710855
92.5 84.77891831340153
95.0 85.28247046936207
97.5 85.53313971800941
100.0 85.32294093931776
103.0 84.83279241261909
106.0 84.5704664708083
109.0 84.53266554213212
112.0 84.89526826654438
115.0 85.54974447404855
118.0 86.17135160853216
122.0 86.18667504829932
125.0 85.39671072036884
128.0 84.68573001044771
132.0 84.66078708615726
136.0 84.46094395686588
140.0 84.28878213732158
145.0 84.09292438648211
150.0 84.10180848264525
155.0 84.43564175679931
160.0 84.70000143767359
165.0 84.55693539014999
170.0 83.9898224231591
175.0 83.1000496968315
180.0 82.69668189333586
185.0 83.03531769031476
190.0 83.47923890507599
195.0 83.40824218665492
200.0 82.75326966768483
206.0 82.2287097204693
212.0 82.14156276367073
218.0 82.40461012334656
224.0 82.82306092056558
230.0 83.19307986381632
236.0 83.26360425234064
240.0 83.07132952443959
250.0 82.8675773448091
258.0 82.80648107950987
265.0 82.97121366126996
272.0 83.02297146340273
280.0 82.94780054681307
290.0 82.7803881077343
300.0 82.62903535780725
307.0 82.46839931185743
315.0 83.06629222366497
325.0 83.11747711094861
335.0 83.16339959314047
345.0 82.99806062231605
355.0 83.18055866314643
365.0 83.61795034162503
375.0 83.83833836089133
387.0 83.78316485514745
400.0 83.58079600949014
412.0 83.27810350727107
425.0 82.54087862141115
437.0 82.24656541548093
450.0 82.1486241206111
462.0 81.62365228032121
475.0 81.24814352941297
487.0 80.84144791902268
500.0 80.282566250259
515.0 80.09202920911989
530.0 80.09240696626824
545.0 79.38814574683005
560.0 79.0028345634776
580.0 78.71883169388357
600.0 78.15512183803858
615.0 77.19326946980901
630.0 76.32129953194266
650.0 76.69209697146964
670.0 76.89113810040828
690.0 76.89293619530979
710.0 77.15938883054937
730.0 78.14038697816412
750.0 77.69396564942389
775.0 76.62011842538908
800.0 76.23571366617647
825.0 77.14464723798174
850.0 77.74397358325803
875.0 77.83248045038326
900.0 78.31951423258877
925.0 78.57139098560448
950.0 78.43944383096434
975.0 78.2954436533984
1000.0 78.35646098140404
1030.0 78.1336567730834
1060.0 77.67527961110042
1090.0 77.48541507398282
1120.0 77.43202584382246
1150.0 77.03956154610961
1180.0 76.69318292808626
1220.0 76.85880766727374
1250.0 76.83629669020738
1280.0 76.94675684941242
1320.0 77.70811790352364
1360.0 78.38731917424894
1400.0 78.69476627613503
1450.0 78.42232606573712
1500.0 77.84099193436211
1550.0 77.50945841665704
1600.0 77.03049893159462
1650.0 77.74293356985304
1700.0 77.5826070234636
1750.0 78.14710410391507
1800.0 77.7034660433069
1850.0 76.13743479189671
1900.0 76.45982870721981
1950.0 77.85628631648409
2000.0 77.89529152686463
2060.0 77.62494778486297
2120.0 77.36059911971533
2180.0 77.51085373537246
2240.0 77.29073453148578
2300.0 77.37853697712941
2360.0 77.70178046328563
2400.0 77.76509688912742
2500.0 77.17958072769132
2580.0 76.40520980516374
2650.0 76.2864220925035
2720.0 76.3255869695187
2800.0 76.23926864735455
2900.0 76.47920809621519
3000.0 76.304537726802
3070.0 76.46677628962233
3150.0 76.99512757222647
3250.0 77.29454769189603
3350.0 77.8666479377291
3450.0 77.87630114258899
3550.0 77.57707830846724
3650.0 76.92925938828823
3750.0 76.98196083862258
3870.0 77.07670910510956
4000.0 77.47504409301045
4120.0 77.87374349757353
4250.0 76.49020347542951
4370.0 75.50977120616005
4500.0 76.08227166360741
4620.0 77.19239368445633
4750.0 77.32556035762519
4870.0 76.38163128362507
5000.0 76.14529098334815
5150.0 75.97297209917221
5300.0 76.53440663817734
5450.0 77.76946114915066
5600.0 77.96657075030402
5800.0 77.3366416440831
6000.0 76.51661765098449
6150.0 76.31637047766638
6300.0 76.91689579797641
6500.0 77.31930228400948
6700.0 76.84807453147371
6900.0 77.91980443564495
7100.0 77.31226480347878
7300.0 76.67613455972926
7500.0 77.34990053115374
7750.0 76.93230912366616
8000.0 76.79347041685469
8250.0 75.9414505372167
8500.0 75.57559579689648
8750.0 75.74716698840115
9000.0 75.7819711665754
9250.0 75.59484323823975
9500.0 75.83547405852488
9750.0 76.49304451068184
10000.0 74.79796704349837
10300.0 74.46265660215073
10600.0 76.36121584819395
10900.0 78.48927307689326
11200.0 78.79670405471137
11500.0 78.34681910597831
11800.0 78.73278661060249
12200.0 79.11017537402279
12500.0 75.15983660914577
12800.0 71.48284214566573
13200.0 75.90944924284668
13600.0 75.54351659266639
14000.0 74.19769482250986
14500.0 75.15896762564064
15000.0 76.80993000001982
15500.0 74.0468039977345
16000.0 76.27808128454909
16500.0 74.71964928843457
17000.0 72.30275638615342
17500.0 68.18591762567286
18000.0 69.40974744496673
18500.0 67.19303017969725
19000.0 63.087220941602965
19500.0 59.262806953482084
