Freq "Ceiling Bounce"
20.5078 71.37916680047638
21.9727 72.40006796948713
23.4375 73.24283381945294
24.9023 73.95966753580082
26.3672 74.73980100397272
27.832 75.44906803319542
29.2969 76.06983500381335
30.7617 76.70086799633722
32.2266 77.28710136319249
33.6914 77.81536859812653
35.1562 78.34273570843936
36.6211 78.86137007957399
38.0859 79.34927250211642
39.5508 79.93403896765409
41.0156 80.2597725021164
42.4805 80.58460596487097
43.9453 81.03074119450376
45.4102 81.36347694041882
46.875 81.66387099678064
48.3398 82.25900305567002
51.2695 82.95086676977323
52.7344 82.27183378184262
54.1992 82.66330849961565
55.6641 83.12042663992818
58.5938 83.11192051394185
60.0586 83.30913001179313
62.9883 83.80484525416338
64.4531 84.40567235614564
67.3828 84.76875099148259
68.8477 85.03598362770566
71.7773 85.4599518056956
74.707 85.7665219602091
77.6367 86.06078733725303
79.1016 86.21908708625257
82.0312 86.58455907017881
84.9609 86.92229880150268
87.8906 87.12109786657402
90.8203 87.3923358498678
95.2148 87.69960696378021
98.1445 87.884445934296
101.074 88.0686883226084
105.469 88.32308956153861
108.398 88.46842042274147
112.793 88.54628527381408
117.188 88.67926574456624
120.117 88.69945840816293
124.512 88.82844607577795
128.906 88.86663206039637
133.301 88.74294686623585
139.16 88.6574508748712
143.555 88.84513673992754
147.949 88.99187298320058
153.809 88.96158560272863
159.668 88.9227635520391
165.527 88.92294427998661
171.387 88.85373621859769
177.246 88.66345116336029
183.105 88.27129689557736
188.965 88.0767316136257
196.289 90.02409181266248
203.613 90.03102908638327
210.938 89.57815153137354
218.262 89.36044804069812
225.586 88.9616140535948
232.91 89.39859519260057
241.699 89.24560909431887
250.488 89.0775198829964
259.277 89.39599506283733
268.066 89.32794014324088
276.855 89.41624392378208
287.109 89.49985422205614
297.363 89.28541574985653
307.617 89.8447454523796
319.336 89.57517071262785
329.59 89.4039269425271
341.309 89.36645031622922
353.027 89.09369252748206
366.211 89.28609565785325
379.395 89.26907321404876
392.578 89.0560166569074
405.762 88.67610864780661
420.41 88.70965461407744
435.059 88.54220984383547
451.172 88.54945987273652
465.82 87.79537330766078
483.398 87.49507065693575
499.512 87.55399012849615
517.09 86.79586307417605
536.133 86.41509795976353
555.176 86.04985107092068
574.219 85.50788837213084
594.727 85.63030313593471
615.234 85.06200014754623
637.207 84.32311151329137
659.18 83.10170082705125
682.617 83.1063334109185
707.52 82.66506198179094
732.422 81.77284284459752
757.324 81.86791756949182
785.156 81.912631977875
811.523 81.26558914015698
840.82 80.94899239766931
870.117 78.89257734793179
900.879 78.98415994358841
933.105 77.8829345427406
965.332 77.44102428371787
1000.49 76.62037774043897
1035.64 76.54235489793606
1072.27 76.41284749759271
1108.89 74.20741175491281
1148.44 74.90602463282536
1189.45 74.37007639668937
1230.47 75.07200200125091
1274.41 75.56942788393388
1319.82 77.20272243113143
1366.7 79.06072369262951
1413.57 79.5046905018389
1463.38 80.09630147691223
1516.11 79.24008087751591
1568.85 79.08335757044709
1624.51 79.4319322461
1681.64 79.7807672696011
1741.7 79.66256009062477
1803.22 78.99487484317356
1866.21 77.6721773886983
1932.13 75.1458447793822
1999.51 73.8770103698682
2069.82 74.84567587760331
2143.07 74.18680026211321
2219.24 71.51466765907725
2296.88 71.30999314054485
2378.91 73.61781267505572
2462.4 77.28399747958404
2548.83 79.49046509699998
2639.65 81.27964815878332
2731.93 81.89184845777112
2828.61 83.56686147826748
2928.22 83.38565062946094
3030.76 83.53623890837702
3137.7 83.85856089048666
3249.02 82.97147255804433
3363.28 83.31179854064915
3481.93 83.16683307992656
3604.98 82.46754598122493
3732.42 82.86883167292206
3864.26 82.78143548814514
4000.49 83.02656013282063
4141.11 82.92393164005242
4287.6 83.59704654050283
4438.48 83.02494703165024
4595.21 82.89586181872208
4756.35 82.87784739465732
4924.8 82.61262367988633
5097.66 81.74996237407859
5277.83 81.81917197099244
5463.87 81.7474601579304
5657.23 81.98169866759935
5856.45 82.1890194652557
6062.99 82.48996438630606
6276.86 82.90928843974578
6498.05 83.1728723439028
6726.56 82.87269162437055
6963.87 83.1631887697661
7209.96 83.0128134420096
7464.84 83.13586768599609
7727.05 82.72948866831823
7999.51 82.82267698590121
8282.23 82.98522364554788
8573.73 83.1196093492411
8876.95 82.79430060251146
9188.96 82.48424857181817
9514.16 82.12155500659902
9849.61 81.801929562495
10196.8 81.22637439627707
10555.7 80.85368957051915
10927.7 80.91322083616889
11313.0 81.01833739939137
11712.9 80.88495358937266
12126.0 81.09548175026978
12553.7 80.74413821867992
12996.1 80.79714445133425
13454.6 80.32669172669264
13929.2 80.08039868806826
14419.9 79.77568689086239
14928.2 79.71185761859886
15455.6 79.54278878849811
16000.5 79.17609044843579
16564.5 78.1011054977943
17148.9 77.64401133610754
17752.4 77.48940844913706
18379.4 76.7335113406277
19026.9 75.69190899472629
19697.8 74.37539932589647
19999.5 73.56364532877751
