Freq,Floor Bounce,Ceiling Bounce,Front Wall Bounce,Side Wall Bounce,Rear Wall Bounce,Total Early Reflection
20.5078,56.90881900820766,47.48216672801051,55.595799014466635,50.34077206459388,59.67864993506414,55.90249904206756
21.9727,59.31637283147448,52.329146980231386,58.27285569931881,53.91904802798301,61.283971588548624,58.17926756927163
23.4375,60.043654575439675,53.6381151311913,58.97127278485449,55.072034843815075,63.21225455570324,59.49098740684535
24.9023,61.62659002508029,57.294034552009876,60.77344767746648,58.15380953878706,65.28140369123085,61.59158863452454
26.3672,62.91439021472445,60.14122570221643,62.21866797240655,60.75753660158604,67.25125047793658,63.485791677735605
27.832,64.8504928969095,63.34666628742394,64.34896649992442,63.819577452356285,69.25052671609673,65.74332811845825
29.2969,66.9021876429246,66.12318604368016,66.54954098678243,66.51199257798962,71.01128861090052,67.86966465370429
30.7617,68.97015885027123,68.48996600608784,68.68170984909196,68.88391041715597,72.60465731278823,69.84835553500268
32.2266,70.66473252285844,70.35182656654139,70.40415450205798,70.7481119569002,73.98947112410286,71.48670230339663
33.6914,72.2912468404197,72.03200002021543,72.0396945342821,72.44394464254644,75.2148816091307,72.99683143117174
35.1562,73.65181116630252,73.39185121732046,73.39449233756018,73.82547156628667,76.22976748176889,74.24794094004542
36.6211,74.84124060949566,74.626592186077,74.60017259131008,75.03013666221084,77.1414187065778,75.36475461742623
38.0859,75.92549543479129,75.69487237501843,75.68750582829762,76.0913394188504,77.92065216115188,76.35283300276815
39.5508,76.64236182107257,76.408049556749,76.40402755940575,76.80897589813365,78.47381159474351,77.02279712323347
41.0156,77.34895686441537,77.10456245011005,77.10758083610284,77.50578896226604,79.02041420585645,77.68110991443581
42.4805,78.0032835325272,77.71071718270836,77.75016675477735,78.1276893290353,79.46887894795482,78.26345559600858
43.9453,78.62913217704583,78.3006425721587,78.36944455020279,78.72351581824229,79.92175015378002,78.83088142105375
45.4102,79.19153692460822,78.8408004185506,78.92507338298505,79.27062103757883,80.3674666367383,79.3553937341625
46.875,79.74488699108402,79.36828027868636,79.47267983880221,79.80309540072447,80.80048063864227,79.86888887069976
48.3398,80.19458868341835,79.79049965752581,79.91706254065751,80.22966504076439,81.12679717629642,80.27785162017456
51.2695,81.07119777019162,80.62360741492937,80.78661278250108,81.06549435729069,81.7920270547328,81.08669858782842
52.7344,81.51562804825988,81.05815817371354,81.23170275667688,81.49451985137158,82.15055565947303,81.5063354580536
54.1992,81.92520946376331,81.45514705109039,81.64003674119546,81.89078987588111,82.4875526493227,81.89401003036637
55.6641,82.31615863608309,81.82663677707403,82.0282102483964,82.26366087447884,82.79358869812334,82.25795600303866
58.5938,83.02253445737124,82.49113043742898,82.72727814512233,82.93286569927865,83.34193835407349,82.9125680553948
60.0586,83.34813231010001,82.77294098977875,83.0429767056147,83.22070755610446,83.5401328568014,83.19285400879491
62.9883,83.99745034614982,83.40894438393455,83.687977530057,83.86348674704256,84.14837722194687,83.82873188379973
64.4531,84.31493706554687,83.70482000353208,83.99889104012179,84.16514535723233,84.41943757940068,84.1278674118115
67.3828,84.86184552994759,84.20051940694455,84.53263703378417,84.67241004620602,84.84727466894425,84.6296715001091
68.8477,85.07986432097589,84.39870606428761,84.74711769578984,84.87410838546784,85.01613950131942,84.82980896415742
71.7773,85.53673307048156,84.84377892372291,85.20907041686847,85.30972562823858,85.37345909232235,85.26063499937244
74.707,85.91660196513962,85.21737651761187,85.59269925057352,85.67502752291827,85.66869655176828,85.61991476944159
77.6367,86.14635701771714,85.41968696688691,85.81677963383846,85.88091540553059,85.82330578381008,85.82358796992243
79.1016,86.2148174669274,85.47494033446367,85.882167900049,85.9374722094717,85.86226986591659,85.880729278886
82.0312,86.36163492410908,85.59638820660825,86.024005842742,86.06112563762825,85.94020766561626,86.00358673830647
84.9609,86.4519334232242,85.67870122693027,86.1161352020628,86.13848787183534,85.96533435775673,86.07740166935626
87.8906,86.53244592547156,85.70344312719973,86.15658553733259,86.21646643313977,86.22545292538686,86.17494927418053
90.8203,86.80627335033697,85.94907194923898,86.46720812919229,86.39924387650926,86.0111005828716,86.33807152275146
95.2148,86.61345749243458,85.75846891445049,86.25398342778244,86.23447660286952,86.05637940171017,86.19231564904162
98.1445,86.58885161609167,85.70502081617984,86.22197047520622,86.18600569308789,85.98708500266777,86.14753469758638
101.074,86.58344053466097,85.68431986764485,86.22315155830097,86.1604428128658,85.94304528022418,86.12922053267842
105.469,86.66968041903341,85.70818868603233,86.30635434832833,86.1826783042015,85.81633748326459,86.15056140816661
108.398,86.716140545723,85.73856790890713,86.35531633036939,86.20076398693077,85.77358270522598,86.17252084097612
112.793,86.74760428685975,85.73329996988151,86.38568110226446,86.19401509983223,85.6890528302966,86.16844946223007
117.188,86.70616268618065,85.66711618920257,86.33403585864049,86.13327041102116,85.6294395818328,86.11325681437081
120.117,86.7425579844009,85.66681504095028,86.36745428577932,86.14292069458612,85.60607871952506,86.12639357056605
124.512,86.74779271046314,85.6511737764201,86.35656013104979,86.14281437597035,85.60227330199058,86.12179282823858
128.906,86.57546679473722,85.45519973474012,86.17536205504847,85.95623310467947,85.51581195847477,85.95588687322079
133.301,86.45997201851448,85.27126818370202,86.04127566643858,85.79008592059071,85.34616947432396,85.80444204637605
139.16,86.372232796002,85.10744302713358,85.95328310863775,85.62687527493394,85.04640381643908,85.65065100933829
143.555,86.24281557242858,84.94076619442556,85.81890997276254,85.47278518775799,84.87923494082287,85.50214725978059
147.949,86.15603201754564,84.76346086911205,85.71156445466328,85.32951816429896,84.68602403796203,85.36555655166153
153.809,86.05642187226071,84.55489897744654,85.60192926042907,85.1502464865254,84.38032898928083,85.19437719933991
159.668,86.05888830098813,84.48165647287506,85.59722283036713,85.10858845474756,84.34552841944834,85.1673696151278
165.527,86.01716148952572,84.61089177591997,85.62463813903146,85.12324341300312,84.35633489014523,85.19027480042651
171.387,85.8851588063827,84.37739831091523,85.46354009229414,84.89590107929664,84.10285744167307,84.99551014596439
177.246,85.66806993930307,84.14181599994893,85.26103892782994,84.6533796512554,83.77017149067275,84.75487905525868
183.105,85.51484040712691,83.91135362824838,85.0963929124411,84.41189330978132,83.52128439092223,84.55337242118198
188.965,85.6099351249336,83.86102614201538,85.2055204626021,84.38298949550297,83.1487780097036,84.53185549792305
196.289,85.66805330634163,84.02330534037678,85.30393001338147,84.46041423781422,82.95097374435203,84.5850819017449
203.613,85.59632135429266,83.95474679775096,85.23591327407632,84.37543420356236,82.57863346648325,84.47214666600344
210.938,85.56965283915561,83.96956091623343,85.21894572384208,84.40500268674562,82.46141114295659,84.45466596620263
218.262,85.35048512939484,83.94235449499637,85.02124152840966,84.29969712525885,82.6162286059974,84.3464774656802
225.586,85.08939815506496,83.57590166843282,84.73648912240652,83.90116514283099,82.47048951038803,84.04968837294298
232.91,85.18235256367026,83.59919634873107,84.82053089693743,83.897465873384,81.98543899144069,84.03307732614245
241.699,85.17616551401761,83.42715148858977,84.69574442555144,83.783033832919,81.75540542084427,83.92013080614075
250.488,85.35279131043477,82.93994245036436,84.69689435276382,83.69389245824937,81.50109627551294,83.83839411726794
259.277,85.46728931856809,83.21892229644199,84.90228778760331,83.97413117701221,81.7493080309709,84.04998478103177
268.066,84.96083044422242,82.4513989647704,84.30060650361791,83.34317259952947,81.33244038051306,83.46457966380386
276.855,84.83545187780219,82.0418115676313,84.15487386360984,83.30387707456318,80.86672251329975,83.26694575355653
287.109,85.0375875704049,82.64249606252697,84.59899924570082,83.71933391677948,82.08515047389146,83.75908177352458
297.363,84.88058888443865,82.82926118918304,84.82575262610338,83.19409855828233,82.31274537118753,83.73737947910955
307.617,85.48000613962832,83.43588561096762,85.32454982964909,83.83166120897094,81.46097073441516,84.13691483783053
319.336,85.08800951516376,83.21433489041347,84.93502801328815,83.48508007389145,81.02239622385058,83.77853044097755
329.59,85.19522018911762,83.36147127428059,85.00701878338508,83.75880683653153,80.58742356897751,83.86125001367752
341.309,84.81710039510395,83.08629599390335,84.58622860241898,83.36293320201527,80.62254309527616,83.5277545744518
353.027,84.79363872435619,82.7931119311705,84.53297235798178,83.31439503492581,80.09757882598328,83.39475986127997
366.211,85.08655803554801,82.73152279635813,84.85295426515576,83.49943963740971,79.97449388945049,83.57598134902165
379.395,85.61573735777611,83.36160280173446,85.38754661361416,84.15337907021839,80.69581416636468,84.16502529611239
392.578,85.41804540207102,83.2773522597531,85.25259341454205,84.04444321033897,80.90950608782485,84.0589221459897
405.762,85.10683014494533,82.9002004468113,84.97107024432977,83.65017449558226,80.91680039931535,83.76020850308332
420.41,85.8813994142631,83.29095940517715,85.7185701534272,84.345529578887,80.10621434153126,84.30825291244308
435.059,85.44935701120905,83.40045269605878,85.4213993156471,84.27613451489205,80.56981204263964,84.14855406002775
451.172,85.5207289430685,83.18448575379546,85.5024758765821,84.51002931198308,80.2349107814411,84.17557767675494
465.82,85.29278226915785,83.04171213779743,85.43214500277517,84.435523000648,80.23127603696997,84.05585629134725
483.398,84.7089268674715,82.76927704495422,84.82638493257902,83.99346574024138,79.89339227578206,83.56848766646915
499.512,85.11608846597247,82.37851692224058,85.05523505993706,83.94424763505863,79.50638096349108,83.6369970279848
517.09,84.83051361286964,82.27065581973166,84.85061744968503,83.86307857769583,79.75464444085627,83.4878787343825
536.133,84.33210150559175,81.22517782121604,84.63813364483221,83.41939036372,79.21506884988865,83.0012126000295
555.176,84.62460517776633,80.84865964167504,84.73378203844597,83.41641223065731,78.73971678742323,83.0253217688744
574.219,84.89165434561738,80.59705484439134,85.06521340945069,83.73847205589699,79.21428338834788,83.2803079448868
594.727,84.25673100313051,80.80378651829905,84.58126570747451,83.19693825170332,78.97328988512255,82.84072508870263
615.234,84.59259674756598,80.1925914687384,84.90094572464776,83.02754615413444,79.43475947446127,82.96724498635419
637.207,84.93499294711238,79.95445716696213,85.35851458410737,82.72974166739229,79.59216905573433,83.14899841659246
659.18,85.65386490274749,81.29568809556662,86.48415276518354,83.35984148254158,78.79544027109655,83.94440826082864
682.617,85.28247226567997,81.24706930871565,86.20438413201306,83.2951630443466,79.39399897545616,83.7605340475118
707.52,85.3988360431798,81.36263963746576,86.29798745270959,82.8211276348439,78.37946196906447,83.69295232413631
732.422,84.82480822827598,81.30810923721442,85.86996965105246,83.12323176605364,78.05819415664533,83.40227380551659
757.324,84.60803104687449,80.80862830113108,85.7534439030874,82.3914530253094,78.15821100526779,83.11505133733374
785.156,83.77296298358927,80.20826698877919,84.92730905509258,81.97530050429593,76.32611047081706,82.32890186120731
811.523,83.65727872310212,78.91008554464231,84.75050352607947,81.91192833755215,76.72100744475584,82.09951344229492
840.82,82.90934894912961,79.08138237057744,84.888574193246,81.61980933696996,76.07879744737276,81.87691021596355
870.117,82.71851184269185,78.06685989054748,84.35386670171498,81.17918516008449,75.6256830895473,81.40702783132345
900.879,82.43283070333332,77.13043020005888,84.70988519008961,81.8547704390733,75.42845230829406,81.52727035103842
933.105,82.17565685604775,75.69089060763068,84.485720461354,81.77626234762452,74.67185156909098,81.22459931313668
965.332,82.30011924094596,75.06739032710739,84.69497755180586,81.71662417910187,75.84432900153408,81.35840466861274
1000.49,82.05772224227637,74.97052346836132,84.62941296548739,81.47070745019057,74.97046696878549,81.16670454666752
1035.64,81.95773710391703,75.12272376260465,84.35555228981431,81.17637613401254,74.57485426697868,80.94741052656651
1072.27,81.15862006756817,73.68415007876273,84.1657365776474,80.49037854148052,74.26584025230314,80.44187110180881
1108.89,81.09781082012042,75.28122238189677,83.71018661662727,80.20830006494235,73.47523353957648,80.20895297843644
1148.44,80.26375866052672,75.59930819498862,84.08991703667063,80.11698010333468,73.58843099208616,80.20845790573203
1189.45,80.33213870029921,76.8097234191878,84.1461851352362,80.05742100758344,72.7020843803476,80.29924501132238
1230.47,79.57904512606935,77.80629673239855,85.12180704020453,80.830212815607,74.1168072487945,80.95655657481447
1274.41,80.24191387971622,77.74636888082922,84.65889577281457,80.31553893860624,73.61051333980866,80.70470739530822
1319.82,79.50397654045348,77.1549980934597,84.68727274527971,80.23447533491507,72.73412992054851,80.49000032323035
1366.7,79.75682064124744,76.70167019323262,84.08487510374401,79.68812027893438,71.74942477545517,80.04770748846124
1413.57,80.30310473682891,76.02358594801548,83.85942045367067,79.15813536809426,71.06115625465024,79.87299944900568
1463.38,80.23064866314753,77.37345343473817,84.42517457016864,79.81031389016385,71.82394253804036,80.39844860472105
1516.11,80.16054644119879,77.42143606064666,84.91881412276838,80.07627901214497,71.99688187255263,80.69647793460446
1568.85,80.76403290391693,75.34135824969403,84.89315086582937,79.63716115235012,71.26617275507,80.54885536827595
1624.51,80.93335128005658,76.81309129441313,83.84446801961391,79.00138113008295,70.22030815489886,80.03730464568734
1681.64,80.86969882059866,78.32748667597815,83.9053001148509,78.83926360105025,70.50722537188217,80.20166665997121
1741.7,81.24432848962051,77.88184991157472,83.96645237978274,78.55909971375102,70.0697689534339,80.21819798648094
1803.22,80.68238739528252,77.11585399630557,84.18998475603692,79.06201443707901,70.87078315907559,80.20116127671999
1866.21,80.61566777551948,76.90675792669695,84.03468605986723,79.19778415137128,69.88294720055593,80.08902677576441
1932.13,81.24806154453216,77.72218005152601,83.10711362446328,77.96836812112024,69.89789488563562,79.72566125893954
1999.51,81.12498760911859,78.39164254942274,83.35705539814226,78.08184532361855,68.89107474972029,79.88812590091207
2069.82,81.15334039799266,78.43777355972455,83.70371191234291,78.39535191972774,68.81278037629399,80.09913803597156
2143.07,81.37991318550203,78.69983768903545,83.32072909776106,77.95159776708562,68.27659115346863,79.96047126387502
2219.24,81.43859883417412,78.52703458152985,82.76614770595002,77.41060546380821,67.92511341671714,79.64602897140924
2296.88,81.1423080690393,78.31400144932782,83.38608009425958,77.90949010180988,68.08197365349251,79.86066387701786
2378.91,81.18413860126775,78.49828734876569,83.8426742129641,78.1096188112107,68.0980359219778,80.13280563907439
2462.4,81.76111394250732,78.38163561340643,82.8421173468364,77.2904642368682,67.50278185872324,79.7360207355069
2548.83,81.31768623262288,78.91078157174478,82.9718151388393,77.14682744672749,67.2048583467905,79.71828595710524
2639.65,81.44136390756653,79.25632981389676,83.98877697667854,78.13187633691686,67.57454306570018,80.37365825722144
2731.93,81.96992878213285,79.0432481589997,83.62081309556454,77.75913567191819,67.41953044343089,80.27775612553471
2828.61,82.0670141572418,79.0349621514854,83.26897799963349,77.49437484718803,66.99159120145877,80.12387298679303
2928.22,82.00712450852585,78.66020944075773,83.68641567644416,77.86658427906453,66.59274935745084,80.26652046699705
3030.76,82.06654118971278,78.35182808481822,83.63867890045718,77.98330546407611,66.65058573903775,80.23639691180047
3137.7,82.10901637953664,77.96040616461134,83.31880029522164,77.61020810734477,66.3242847670998,80.01503552349865
3249.02,81.7061917105829,78.2228495040531,83.43951346391154,77.337940382851,65.6185601828508,79.93996876305661
3363.28,81.36141889375646,78.23796880295707,83.57597165449353,77.19252393344063,64.92131591342708,79.88367936670355
3481.93,81.50283767913756,78.01909247256701,83.5450527542407,76.90688494936644,65.11633049371643,79.85183996161655
3604.98,81.70368711871515,78.04696789787825,83.4049547218652,76.29276743736673,64.37521627598417,79.78791747901855
3732.42,81.58888641798688,77.9055751033098,83.68852775456904,76.60602079323819,65.1072411350955,79.90100136190476
3864.26,81.22006590448801,77.85702701628819,83.3949248833851,76.3710594800999,64.98159596391325,79.62388071156153
4000.49,81.26649135985906,77.65230285688985,83.38301880437083,76.43208722278733,65.15284463669958,79.61206431457771
4141.11,81.07463822561796,77.4740263231185,83.41099527230223,77.02827482363288,65.49888885841624,79.6122903544486
4287.6,80.92939415296071,77.622915310117,83.13670381945462,77.05869005823891,64.94569024114072,79.4600108624203
4438.48,80.74549160703204,77.70948258084225,83.04539203634553,77.11073292751036,64.53826727332294,79.38138248896418
4595.21,80.91756192359779,77.92303604592821,83.51822945319007,77.50189148001436,64.26145102071948,79.72437028316632
4756.35,81.11564717229687,78.10066550117921,83.50997983120718,77.15089507665776,63.373216760997735,79.752639511933
4924.8,81.35790258340789,77.89657136230834,83.77975451765572,77.18994439626276,62.712128008760075,79.92387353718757
5097.66,81.13616509029211,77.92932863592614,83.26034104948626,76.71123589912096,62.535178292860365,79.56667467289377
5277.83,81.29707059182341,77.98715002910784,83.47135126584449,76.87771368616951,61.70574662324863,79.73426289956014
5463.87,81.70774397138513,78.17227244846804,83.68655863069976,76.70376811555047,61.6224275814172,79.96327048352224
5657.23,81.39642966479136,77.99878717225904,83.24413499569708,76.68918243283126,62.24120052260352,79.64164692731838
5856.45,81.29958463397247,77.618898713836,83.07241609306519,76.4897962237835,61.588464417496525,79.46024227255627
6062.99,81.01691990976765,77.41861849959453,83.0307500199654,76.31442255569388,61.58169691921232,79.31211002289449
6276.86,80.99327345741503,77.21807261123067,82.68467107144618,75.93637692124945,61.355115346257705,79.07999910815865
6498.05,81.09159220061882,76.95261121259546,82.17812486667124,75.62244020299384,61.051458728270475,78.82006613951206
6726.56,81.09279894172501,76.68237048617682,82.42879859097633,75.7134870609386,60.84785586476663,78.90551224293854
6963.87,80.7773506433424,76.4871752803983,82.27902299565513,75.27502520768071,60.22477927819578,78.66744465282703
7209.96,80.98672035371071,76.36012171170356,82.22449216846233,75.2238075013185,59.89639021904837,78.69149076316931
7464.84,80.79001980803896,76.26498590834306,82.49477418102305,75.40861884633235,59.97154039550553,78.75774097823655
7727.05,80.94390150768164,76.35728610159812,82.54239406856077,75.22336385156723,59.42602453910341,78.82230102318094
7999.51,80.93294759654987,76.40749865776546,82.43451518227168,75.124693307417,59.28200774146394,78.76505316548652
8282.23,81.06062487780078,76.56037396594247,82.64807738844125,75.4306072547888,59.24973082651691,78.9510404660268
8573.73,81.28938812257975,76.74195552762218,82.86476058175809,75.71931710009817,59.1068111921313,79.17333875739136
8876.95,81.4883651618962,76.88904762390831,82.83742381987442,75.85102838687482,59.54590233679578,79.25615784055057
9188.96,81.63744797777979,76.78126311961468,82.75788913239869,75.78124588952808,59.275178032519776,79.25169175076051
9514.16,81.503519682135,76.93378570169067,82.60100788988258,75.7738019488385,59.262837568335684,79.1526806154168
