Freq "Side Wall Bounce"
20.5078 50.34077206459388
21.9727 53.91904802798301
23.4375 55.072034843815075
24.9023 58.15380953878706
26.3672 60.75753660158604
27.832 63.819577452356285
29.2969 66.51199257798962
30.7617 68.88391041715597
32.2266 70.7481119569002
33.6914 72.44394464254644
35.1562 73.82547156628667
36.6211 75.03013666221084
38.0859 76.0913394188504
39.5508 76.80897589813365
41.0156 77.50578896226604
42.4805 78.1276893290353
43.9453 78.72351581824229
45.4102 79.27062103757883
46.875 79.80309540072447
48.3398 80.22966504076439
51.2695 81.06549435729069
52.7344 81.49451985137158
54.1992 81.89078987588111
55.6641 82.26366087447884
58.5938 82.93286569927865
60.0586 83.22070755610446
62.9883 83.86348674704256
64.4531 84.16514535723233
67.3828 84.67241004620602
68.8477 84.87410838546784
71.7773 85.30972562823858
74.707 85.67502752291827
77.6367 85.88091540553059
79.1016 85.9374722094717
82.0312 86.06112563762825
84.9609 86.13848787183534
87.8906 86.21646643313977
90.8203 86.39924387650926
95.2148 86.23447660286952
98.1445 86.18600569308789
101.074 86.1604428128658
105.469 86.1826783042015
108.398 86.20076398693077
112.793 86.19401509983223
117.188 86.13327041102116
120.117 86.14292069458612
124.512 86.14281437597035
128.906 85.95623310467947
133.301 85.79008592059071
139.16 85.62687527493394
143.555 85.47278518775799
147.949 85.32951816429896
153.809 85.1502464865254
159.668 85.10858845474756
165.527 85.12324341300312
171.387 84.89590107929664
177.246 84.6533796512554
183.105 84.41189330978132
188.965 84.38298949550297
196.289 84.46041423781422
203.613 84.37543420356236
210.938 84.40500268674562
218.262 84.29969712525885
225.586 83.90116514283099
232.91 83.897465873384
241.699 83.783033832919
250.488 83.69389245824937
259.277 83.97413117701221
268.066 83.34317259952947
276.855 83.30387707456318
287.109 83.71933391677948
297.363 83.19409855828233
307.617 83.83166120897094
319.336 83.48508007389145
329.59 83.75880683653153
341.309 83.36293320201527
353.027 83.31439503492581
366.211 83.49943963740971
379.395 84.15337907021839
392.578 84.04444321033897
405.762 83.65017449558226
420.41 84.345529578887
435.059 84.27613451489205
451.172 84.51002931198308
465.82 84.435523000648
483.398 83.99346574024138
499.512 83.94424763505863
517.09 83.86307857769583
536.133 83.41939036372
555.176 83.41641223065731
574.219 83.73847205589699
594.727 83.19693825170332
615.234 83.02754615413444
637.207 82.72974166739229
659.18 83.35984148254158
682.617 83.2951630443466
707.52 82.8211276348439
732.422 83.12323176605364
757.324 82.3914530253094
785.156 81.97530050429593
811.523 81.91192833755215
840.82 81.61980933696996
870.117 81.17918516008449
900.879 81.8547704390733
933.105 81.77626234762452
965.332 81.71662417910187
1000.49 81.47070745019057
1035.64 81.17637613401254
1072.27 80.49037854148052
1108.89 80.20830006494235
1148.44 80.11698010333468
1189.45 80.05742100758344
1230.47 80.830212815607
1274.41 80.31553893860624
1319.82 80.23447533491507
1366.7 79.68812027893438
1413.57 79.15813536809426
1463.38 79.81031389016385
1516.11 80.07627901214497
1568.85 79.63716115235012
1624.51 79.00138113008295
1681.64 78.83926360105025
1741.7 78.55909971375102
1803.22 79.06201443707901
1866.21 79.19778415137128
1932.13 77.96836812112024
1999.51 78.08184532361855
2069.82 78.39535191972774
2143.07 77.95159776708562
2219.24 77.41060546380821
2296.88 77.90949010180988
2378.91 78.1096188112107
2462.4 77.2904642368682
2548.83 77.14682744672749
2639.65 78.13187633691686
2731.93 77.75913567191819
2828.61 77.49437484718803
2928.22 77.86658427906453
3030.76 77.98330546407611
3137.7 77.61020810734477
3249.02 77.337940382851
3363.28 77.19252393344063
3481.93 76.90688494936644
3604.98 76.29276743736673
3732.42 76.60602079323819
3864.26 76.3710594800999
4000.49 76.43208722278733
4141.11 77.02827482363288
4287.6 77.05869005823891
4438.48 77.11073292751036
4595.21 77.50189148001436
4756.35 77.15089507665776
4924.8 77.18994439626276
5097.66 76.71123589912096
5277.83 76.87771368616951
5463.87 76.70376811555047
5657.23 76.68918243283126
5856.45 76.4897962237835
6062.99 76.31442255569388
6276.86 75.93637692124945
6498.05 75.62244020299384
6726.56 75.7134870609386
6963.87 75.27502520768071
7209.96 75.2238075013185
7464.84 75.40861884633235
7727.05 75.22336385156723
7999.51 75.124693307417
8282.23 75.4306072547888
8573.73 75.71931710009817
8876.95 75.85102838687482
9188.96 75.78124588952808
9514.16 75.7738019488385
9849.61 75.98502904599387
10196.8 76.18006794079024
10555.7 76.30727722292308
10927.7 76.33670399288725
11313.0 76.32461788439777
11712.9 76.55158550638637
12126.0 76.68969233564879
12553.7 76.58455128958953
12996.1 76.33981954199476
13454.6 76.02521183278873
13929.2 75.6312459622266
14419.9 75.2756445347005
14928.2 74.86935259769587
15455.6 74.56649118857864
16000.5 74.12960485218586
16564.5 73.58907710441234
17148.9 72.911458481536
17752.4 72.12464427715443
18379.4 71.01330952347189
19026.9 69.8372470782123
19697.8 68.69419749586851
19999.5 68.3671112732573
