Freq "Estimated In-Room Response"
20.5078 50.283694771471275
21.9727 52.40953793086639
23.4375 53.06424575655795
24.9023 54.034186464854415
26.3672 55.96377224700693
27.832 57.83219117775836
29.2969 59.496087897063276
30.7617 60.90084406297693
32.2266 62.05722210864998
33.6914 63.507995357568305
35.1562 64.88946199971112
36.6211 66.34133949649559
38.0859 67.41060979166825
39.5508 68.6819966761574
41.0156 69.93449920064022
42.4805 71.1691704937936
43.9453 72.22140061643157
45.4102 73.29281239760654
46.875 74.30794432404893
48.3398 75.13999558582991
51.2695 76.88224702351154
52.7344 77.70603376084752
54.1992 78.41569801506097
55.6641 79.0121953044427
58.5938 80.03564285138559
60.0586 80.48131434235401
62.9883 81.31857064532493
64.4531 81.66491710022332
67.3828 82.13727884931458
68.8477 82.30011647334611
71.7773 82.71302266353749
74.707 83.11903157258364
77.6367 83.32805049857552
79.1016 83.36294812496193
82.0312 83.53182022101839
84.9609 83.63959994898377
87.8906 83.6820214276242
90.8203 83.72481147306793
95.2148 84.0727161891008
98.1445 83.99825994338093
101.074 84.00280225640232
105.469 84.00945430193143
108.398 84.11191865554568
112.793 84.18292815382856
117.188 84.21863424478855
120.117 84.2648262307924
124.512 84.29979184018208
128.906 84.1643531574705
133.301 83.97148695266642
139.16 83.97793990440502
143.555 84.0591568943676
147.949 83.89837807930506
153.809 83.83349666989415
159.668 83.86711090396358
165.527 83.86904667864832
171.387 83.78143945959286
177.246 83.81062788045672
183.105 83.71334264857096
188.965 83.51114080303448
196.289 83.54619439042905
203.613 83.52403594745526
210.938 83.39504507605966
218.262 83.26544572876382
225.586 83.25941107255308
232.91 83.22873395497076
241.699 83.03014610879912
250.488 82.93976661411178
259.277 82.95736902902104
268.066 82.80172653625647
276.855 82.82502371134832
287.109 82.61744734010118
297.363 82.81462784586547
307.617 82.73608417620652
319.336 82.51633880719542
329.59 82.15117982082067
341.309 82.26048924988623
353.027 81.92855262609565
366.211 81.96338329374868
379.395 82.10633934205566
392.578 81.69026344996182
405.762 81.2065746306315
420.41 82.3125551084673
435.059 82.44450357537589
451.172 82.34182859028651
465.82 82.55005856035494
483.398 82.95139787286374
499.512 82.84442220750336
517.09 82.37036114802832
536.133 82.23532514111746
555.176 82.05706905250138
574.219 82.26754037056786
594.727 82.28640451116884
615.234 83.02386124439776
637.207 83.29031360345678
659.18 82.79972482152128
682.617 82.77063746625868
707.52 82.68333202660988
732.422 82.36832581549037
757.324 82.64285260174731
785.156 82.11123863459602
811.523 82.19341072130469
840.82 82.18357894909842
870.117 81.95939510862796
900.879 83.0054232487055
933.105 83.89104452517809
965.332 83.9868503069646
1000.49 83.75815365956788
1035.64 83.50821864396973
1072.27 83.18589273414374
1108.89 83.0828511788656
1148.44 83.11819625448163
1189.45 83.09270422934684
1230.47 83.66190884762109
1274.41 83.60754449358244
1319.82 83.5093297225861
1366.7 82.96871142676532
1413.57 82.36954117811653
1463.38 82.05621083923282
1516.11 81.71565158280178
1568.85 80.58957503367203
1624.51 80.52557494723884
1681.64 80.72859627248191
1741.7 80.62877328472602
1803.22 80.00023072345797
1866.21 79.07810067073419
1932.13 78.88660072243395
1999.51 79.68168589749708
2069.82 80.34658990132407
2143.07 80.57999078038655
2219.24 79.93201310776878
2296.88 79.82961917607133
2378.91 80.34392256661353
2462.4 81.17027664638088
2548.83 80.61606599968073
2639.65 79.59597058451826
2731.93 79.33755863005034
2828.61 80.06553334587643
2928.22 80.66031069355618
3030.76 80.84376516314855
3137.7 81.06405030792195
3249.02 81.10358566314984
3363.28 80.8848468630885
3481.93 80.82206696595212
3604.98 81.26759105904958
3732.42 81.5535728414573
3864.26 80.62530342497014
4000.49 80.44641635753196
4141.11 80.56125760304498
4287.6 79.8537984398035
4438.48 80.16607247484045
4595.21 79.99156027067893
4756.35 80.58635638670548
4924.8 80.97323764395631
5097.66 80.9551644274652
5277.83 80.74131736655325
5463.87 80.51882348024938
5657.23 80.40904713085398
5856.45 80.2110104865469
6062.99 80.25954922198737
6276.86 80.02563066242465
6498.05 79.92712000540749
6726.56 79.92912914854035
6963.87 79.86590849811427
7209.96 80.66232609462062
7464.84 80.85789963338006
7727.05 81.44632552020146
7999.51 81.65680385080644
8282.23 81.32702490022054
8573.73 80.18506058557327
8876.95 79.75757799428845
9188.96 79.38817511945284
9514.16 79.47223466663061
9849.61 79.20154533085197
10196.8 79.45759118162319
10555.7 79.67028662508385
10927.7 79.58824739619934
11313.0 79.68951729286182
11712.9 79.5999144744855
12126.0 79.60275115268091
12553.7 79.4703392616897
12996.1 79.46035794981317
13454.6 79.68029935031316
13929.2 79.90487916588917
14419.9 80.07304757143466
14928.2 80.02411551397654
15455.6 79.79692993009593
16000.5 79.53986035574701
16564.5 79.24612585987302
17148.9 78.99478862069047
17752.4 78.61347321947243
18379.4 78.20875917546599
19026.9 77.74884252003359
19697.8 77.13355803955655
19999.5 76.91496757663757
