Freq,On Axis,Listening Window,Sound Power,Early Reflections,Early Reflections DI,Sound Power DI,DI offset
22.4,41.8,41.667683478171384,40.793894290390725,41.150949175345616,40.51673430282577,40.87378918778066,40
23.0,43.2,43.02419779300915,42.04567234300929,42.43927230962113,40.58492548338802,40.978525449999864,40
23.6,44.8,44.624197793009145,43.58986291399292,44.02029418405728,40.60390360895187,41.03433487901623,40
24.0,46.39999999999999,46.213005816654075,45.086856981144834,45.566959319659944,40.64604649699413,41.12614883550924,40
25.0,47.89999999999999,47.7464955888219,46.56224411519544,47.06873391884467,40.67776166997723,41.18425147362646,40
25.8,49.500000000000014,49.346495588821895,48.07633434739354,48.62518496744015,40.72131062138175,41.270161241428355,40
26.5,50.8,50.657860058607824,49.341329530981895,49.924742572207876,40.73311748639995,41.31653052762593,40
27.2,52.000000000000014,51.8130058166541,50.3968667946945,51.01152326228434,40.801482554369755,41.416139021959594,40
28.0,53.39999999999999,53.19203842311863,51.70709207672276,52.370920742919466,40.821117680199166,41.48494634639587,40
29.0,54.500000000000014,54.35786005860781,52.80647471837857,53.493978466955056,40.863881591652756,41.551385340229245,40
30.0,55.89999999999999,55.69203842311863,54.07843403775941,54.815329610597914,40.87670881252072,41.613604385359224,40
30.7,57.10000000000001,56.93562068408572,55.27787398063997,56.03713131342484,40.89848937066088,41.65774670344575,40
31.5,58.3,58.09203842311864,56.36744071430546,57.16343668702767,40.92860173609097,41.72459770881318,40
32.5,59.39999999999999,59.258376725369814,57.4542461490871,58.2923496182636,40.966027107106214,41.804130576282716,40
33.5,60.3,60.13562068408571,58.27517330254314,59.131799284625984,41.003821399459724,41.86044738154257,40
34.5,61.2,61.035620684085714,59.11681528604011,60.00873599492901,41.0268846891567,41.918805398045606,40
35.5,61.89999999999999,61.70354610191522,59.725604820516864,60.6532687932246,41.050277308690625,41.97794128139836,40
36.5,62.8,62.60354610191523,60.57864867022771,61.535083148778554,41.068462953136674,42.02489743168752,40
37.5,63.7,63.503546101915234,61.426436137886455,62.412857828831775,41.09068827308346,42.07710996402878,40
38.7,64.3,64.0699738260637,61.908366220836044,62.93691915014652,41.13305467591718,42.16160760522766,40
40.0,64.49999999999999,64.29203842311863,62.08071427278669,63.135754411061995,41.15628401205663,42.21132415033193,40
41.2,64.6,64.32647644578223,62.09246764458969,63.17515364248955,41.151322803292686,42.234008801192545,40
42.5,65.4,65.19203842311862,62.87738042875914,64.00045617329077,41.191582249827846,42.31465799435948,40
43.7,67.1,66.84928032556395,64.51361555158941,65.64757025203647,41.20171007352748,42.33566477397454,40
45.0,69.3,69.10354610191523,66.71447774973635,67.8768838264537,41.22666227546152,42.38906835217888,40
46.2,71.2,71.00354610191523,68.55720225760584,69.7492707794072,41.254275322508036,42.446343844309396,40
47.5,72.9,72.64928032556396,70.14947461320996,71.36533009095716,41.283950234606806,42.499805712354004,40
48.7,74.2,74.00354610191523,71.497455276578,72.72695073005822,41.27659537185701,42.50609082533724,40
50.0,75.50000000000001,75.31476245148909,72.77385042810364,74.01741650480551,41.29734594668358,42.540912023385445,40
51.5,76.7,76.48154004111532,73.88863096711746,75.1705067446784,41.31103329643692,42.59290907399786,40
53.0,77.7,77.50354610191523,74.86740399548358,76.17227839907164,41.33126770284359,42.63614210643165,40
54.5,78.6,78.426470384419,75.76322130979061,77.08408624218725,41.34238414223175,42.663249074628396,40
56.0,79.8,79.56090170960879,76.87346687016344,78.20919018356024,41.35171152604855,42.687434839445345,40
58.0,81.0,80.78301232902811,78.0623310607118,79.41940962041103,41.36360270861708,42.72068126831631,40
60.0,82.1,81.84928032556395,79.07296778952457,80.45113163793938,41.39814868762457,42.776312536039384,40
61.5,82.9,82.6830123290281,79.90740979259327,81.29635389163822,41.38665843738988,42.77560253643483,40
63.0,83.5,83.26090170960877,80.46508536545596,81.87419650471524,41.38670520489353,42.79581634415281,40
65.0,83.9,83.64928032556396,80.8079105379492,82.23022018673923,41.41906013882473,42.84136978761477,40
67.0,84.2,83.92647644578223,81.05757700817229,82.49202484344157,41.43445160234066,42.86889943760994,40
69.0,84.40000000000002,84.16090170960878,81.2788978177497,82.73199617923245,41.428905530376326,42.882003891859085,40
71.0,84.8,84.52647644578221,81.60533831023699,83.06953040198607,41.45694604379614,42.92113813554522,40
73.0,85.2,84.96090170960878,82.03399962665742,83.51675682682705,41.44414488278173,42.92690208295136,40
75.0,85.7,85.46090170960879,82.52025539905374,84.00866994577935,41.452231763829445,42.94064631055505,40
77.5,86.2,85.96090170960878,82.98491277049038,84.47316689569269,41.48773481391609,42.975988939118395,40
80.0,86.60000000000001,86.40604496832917,83.41246056710473,84.93154225326165,41.474502715067516,42.99358440122444,40
82.5,87.1,86.86090170960877,83.86651246658369,85.38969782558867,41.4712038840201,42.99438924302508,40
85.0,87.5,87.26090170960879,84.233363834395,85.75801721764525,41.50288449196354,43.02753787521378,40
87.5,87.8,87.54928032556397,84.50840793311379,86.049391620068,41.49988870549598,43.04087239245018,40
90.0,87.8,87.58301232902811,84.52281596244036,86.0733645761362,41.50964775289191,43.060196366587746,40
92.5,87.6,87.41725487435673,84.3266324999682,85.89261842990501,41.524636444451716,43.09062237438853,40
95.0,87.3,87.04928032556396,83.93806876510021,85.51301503381703,41.53626529174693,43.111211560463744,40
97.5,86.90000000000002,86.64928032556396,83.53508000024922,85.12455384084662,41.52472648471735,43.11420032531474,40
100.0,86.60000000000001,86.34928032556395,83.21309439883649,84.80769201256926,41.54158831299469,43.136185926727464,40
103.0,86.4,86.21725487435674,83.04149161034483,84.65089528283059,41.56635959152615,43.175763264011906,40
106.0,86.5,86.22896215694927,83.05961514822684,84.6736209135858,41.55534124336347,43.169347008722426,40
109.0,86.60000000000001,86.36063752019828,83.18587558223052,84.7971834467416,41.56345407345668,43.17476193796776,40
112.0,86.8,86.61725487435673,83.40381591180237,85.0354015062799,41.581853368076835,43.21343896255436,40
115.0,86.99999999999999,86.81725487435672,83.58614935406641,85.2225253261018,41.59472954825492,43.23110552029031,40
118.0,87.2,86.98378881309229,83.74417502293976,85.39560359994557,41.588185213146716,43.23961379015253,40
122.0,87.3,87.06063752019828,83.83398686161298,85.487036388702,41.57360113149629,43.2266506585853,40
125.0,87.4,87.12896215694926,83.85367670818154,85.51288073895259,41.61608141799667,43.27528544876772,40
128.0,87.4,87.18378881309228,83.88943508880321,85.56253580546148,41.6212530076308,43.29435372428907,40
132.0,87.5,87.24037254002035,83.93587159154406,85.60953148991548,41.63084105010486,43.30450094847629,40
136.0,87.6,87.32896215694926,83.99116601699045,85.6850931308899,41.64386902605936,43.33779613995881,40
140.0,87.6,87.36063752019827,84.02591807558416,85.72722308729176,41.633414432906505,43.33471944461411,40
145.0,87.6,87.40578351092603,84.03519907973254,85.74874012521381,41.657043385712214,43.37058443119349,40
150.0,87.6,87.3837888130923,83.99315987916454,85.71761304409027,41.666175769002024,43.39062893392776,40
155.0,87.6,87.34037254002034,83.9350146566621,85.65694768370541,41.68342485631493,43.405357883358235,40
160.0,87.5,87.26063752019827,83.84327952077403,85.57505591745232,41.685581602745955,43.41735799942424,40
165.0,87.4,87.12896215694926,83.65449971269929,85.42029460634416,41.7086675506051,43.474462444249966,40
170.0,87.3,87.02896215694926,83.55692790620438,85.32029460634415,41.708667550605114,43.47203425074488,40
175.0,87.4,87.12896215694926,83.62361830123498,85.41222879848884,41.71673335846042,43.50534385571427,40
180.0,87.4,87.1070848292671,83.55724536182417,85.35761604354327,41.74946878572382,43.54983946744292,40
185.0,86.90000000000002,86.64063796503014,83.08250375547026,84.88650756967802,41.75413039535212,43.55813420955988,40
190.0,86.5,86.22896215694927,82.60596163487982,84.44097467559091,41.78798748135836,43.62300052206945,40
195.0,86.3,86.04063796503013,82.40149141078216,84.25028318236885,41.79035478266128,43.63914655424797,40
200.0,86.2,85.94063796503013,82.25531441665045,84.12050606709315,41.82013189793699,43.685323548379685,40
206.0,85.89999999999999,85.64063796503014,81.95143560925094,83.82276552020436,41.81787244482578,43.6892023557792,40
212.0,85.50000000000001,85.25255333093843,81.5008713092411,83.39900046333858,41.853552867599845,43.75168202169732,40
218.0,85.4,85.08756720128137,81.3066319458183,83.22618985895693,41.861377342324445,43.78093525546308,40
224.0,86.3,85.98756720128137,82.15676666038088,84.10119916467929,41.88636803660208,43.83080054090048,40
230.0,87.4,87.09962886293752,83.2140430073793,85.18076088136762,41.9188679815699,43.88558585555822,40
236.0,87.9,87.57653755130846,83.64232279205496,85.64656101667272,41.92997653463574,43.93421475925351,40
240.0,87.7,87.39962886293753,83.42857172737415,85.44595540752255,41.953673455414986,43.971057135563385,40
250.0,87.4,87.10096904162393,83.07713176074832,85.11287423891976,41.98809480270417,44.02383728087561,40
258.0,87.3,86.96895471775876,82.88501562924205,84.96413215480631,42.004822562952455,44.083939088516715,40
265.0,87.3,86.98134986551266,82.82240412745433,84.93372207458857,42.04762779092408,44.15894573805832,40
272.0,87.3,87.00096904162393,82.79100315433077,84.92907333288242,42.07189570874151,44.209965887293166,40
280.0,87.3,87.00284559139567,82.73494184854769,84.89937498937773,42.103470602017936,44.26790374284798,40
290.0,87.3,87.00284559139567,82.68639821025617,84.88557351633119,42.11727207506448,44.3164473811395,40
300.0,87.3,86.98323490989786,82.57725599136842,84.82084172106993,42.162393188827934,44.40597891852944,40
307.0,87.2,86.87269175359992,82.35982356134384,84.6585662148453,42.21412553875463,44.51286819225608,40
315.0,86.99999999999999,86.67269175359992,82.1009960648035,84.43566684233113,42.23702491126879,44.571695688796424,40
325.0,86.8,86.48565904836828,81.83950121826123,84.20788494141512,42.27777410695316,44.64615783010704,40
335.0,86.7,86.32121419279594,81.5746109922839,84.0011253800899,42.32008881270603,44.74660320051204,40
345.0,86.4,86.06641959214548,81.22783137281486,83.6867849063765,42.37963468576898,44.83858821933062,40
355.0,86.2,85.80213194971675,80.88345949954508,83.38239104993184,42.41974089978491,44.91867245017167,40
365.0,86.2,85.81531132286463,80.79829196430195,83.33764520705401,42.47766611581062,45.01701935856268,40
375.0,86.60000000000001,86.12757505402298,81.0366621425714,83.61547633505363,42.512098718969355,45.09091291145158,40
387.0,87.1,86.62757505402297,81.43692180798173,84.0494600998036,42.57811495421937,45.19065324604124,40
400.0,87.3,86.88340271594235,81.57636824785875,84.23349165215883,42.64991106378352,45.3070344680836,40
412.0,87.3,86.80895545937831,81.40066737783876,84.08805949850239,42.72089596087592,45.40828808153955,40
425.0,87.1,86.59068224814591,81.04954973705345,83.78528435065037,42.80539789749554,45.54113251109246,40
437.0,86.7,86.21475494045784,80.55247781299333,83.3340197962884,42.880735144169435,45.662277127464506,40
450.0,86.5,85.9407135841223,80.18498579103195,83.00389253735862,42.93682104676368,45.75572779309036,40
462.0,86.60000000000001,86.11042445821722,80.19055050619984,83.05978763339945,43.05063682481777,45.91987395201738,40
475.0,86.7,86.1786653703318,80.13702448958038,83.04393886724937,43.13472650308243,46.041640880751416,40
487.0,86.60000000000001,86.02654442829063,79.80829476975211,82.77550735993094,43.25103706835969,46.218249658538525,40
500.0,86.60000000000001,86.02654442829063,79.68930764727703,82.6927544280179,43.33379000027273,46.3372367810136,40
515.0,86.8,86.20916596900885,79.73506501688009,82.79133744699875,43.4178285220101,46.474100952128765,40
530.0,87.4,86.76045737096457,80.14505459933697,83.23637524605752,43.52408212490705,46.6154027716276,40
545.0,87.9,87.2747137205083,80.49761435203597,83.62087842992547,43.65383529058283,46.777099368472335,40
560.0,87.8,87.07784640514205,80.13648740573011,83.30238023530647,43.77546616983558,46.941358999411946,40
580.0,87.1,86.41699832776594,79.32906792958742,82.50382415109424,43.9131741766717,47.087930398178514,40
600.0,86.90000000000002,86.18141137839207,78.94536228491388,82.12324001978403,44.058171358608035,47.23604909347819,40
615.0,87.2,86.45106056823387,79.08884798938875,82.24750465443041,44.203555913803456,47.36221257884512,40
630.0,87.4,86.59934931275879,79.17369483955005,82.27504512596832,44.32430418679047,47.42565447320874,40
650.0,87.2,86.46766231088195,78.98663817107797,82.00210538020207,44.46555693067988,47.48102413980398,40
670.0,86.99999999999999,86.30532763990443,78.78886956911141,81.70776790091018,44.59755973899425,47.51645807079302,40
690.0,86.99999999999999,86.2923182193749,78.75843359382044,81.57371464555074,44.71860357382417,47.533884625554464,40
710.0,86.99999999999999,86.2873883702783,78.77678855307899,81.47435750478432,44.81303086549397,47.51059981719931,40
730.0,86.5,85.80169587266441,78.35611207653633,80.93219457733578,44.86950129532863,47.445583796128076,40
750.0,85.4,84.76477192513391,77.34769952808189,79.84874062593798,44.916031299195936,47.417072397052024,40
775.0,84.2,83.55957643614497,76.21462978667788,78.64366527031258,44.915911165832384,47.34494664946709,40
800.0,84.2,83.539484696918,76.26773870604696,78.6672703007342,44.87221439618379,47.27174599087104,40
825.0,85.50000000000001,84.80038235175574,77.60744583241348,80.0197943436164,44.78058800813935,47.19293651934227,40
850.0,86.3,85.56086282974671,78.45085560658636,80.93444225236723,44.62642057737948,47.11000722316035,40
875.0,86.5,85.7254589245109,78.66511418281276,81.25869221117973,44.46676671333117,47.060344741698145,40
900.0,86.4,85.6228478570279,78.62255497341862,81.37461339319691,44.248234463831,47.00029288360929,40
925.0,86.5,85.71510718343637,78.74646737514892,81.6642467471601,44.05086043627627,46.96863980828745,40
950.0,86.60000000000001,85.81192651168193,78.90449756465208,81.98073050636093,43.831196005321004,46.90742894702986,40
975.0,86.3,85.5817030991898,78.75740787121588,81.96101949550699,43.62068360368281,46.82429522797392,40
1000.0,86.2,85.46766231088195,78.73834809548819,82.05161700172575,43.4160453091562,46.72931421539376,40
1030.0,86.3,85.53385333133495,78.86988976032646,82.24058170779189,43.29327162354306,46.663963571008495,40
1060.0,86.5,85.7523362326277,79.07905626009324,82.50923278464957,43.24310344797813,46.67327997253446,40
1090.0,86.90000000000002,86.15679824105797,79.42745335886875,82.89654985366687,43.2602483873911,46.729344882189224,40
1120.0,86.99999999999999,86.33556848878405,79.47657538807074,83.00219477656431,43.33337371221974,46.858993100713306,40
1150.0,86.99999999999999,86.32575781961783,79.34068754883319,82.93752996458628,43.38822785503156,46.98507027078465,40
1180.0,87.3,86.62870501441397,79.50567700778912,83.162984808118,43.46572020629597,47.12302800662485,40
1220.0,87.6,86.95341513093874,79.6756720618987,83.41120518448108,43.54220994645766,47.27774306904004,40
1250.0,87.5,86.88292775881332,79.49153709150882,83.28894512807865,43.59398263073467,47.391390667304506,40
1280.0,87.2,86.5126976308927,79.04636357386465,82.87068712141969,43.64201050947301,47.46633405702805,40
1320.0,86.8,86.10521218651026,78.56036490942023,82.37527079886341,43.729941387646846,47.54484727709003,40
1360.0,86.4,85.73865216618744,78.13051679946658,81.94524890646629,43.793403259721146,47.60813536672086,40
1400.0,86.2,85.42812563721611,77.72879968759688,81.52938817169016,43.898737465525954,47.69932594961924,40
1450.0,86.0,85.12155213618948,77.29147165775767,81.16460826418971,43.95694387199977,47.83008047843181,40
1500.0,85.8,84.80039288890362,76.78235113207919,80.72492484457749,44.07546804432613,48.01804175682443,40
1550.0,86.0,84.8338146562687,76.50053446903253,80.58202380667845,44.25179084959025,48.33328018723617,40
1600.0,86.8,85.51565700066912,76.80073528679556,81.02704853701344,44.48860846365568,48.714921713873565,40
1650.0,87.5,86.03210599586794,76.98663608492593,81.33636950009195,44.69573649577599,49.045469910942,40
1700.0,87.4,85.81618481693137,76.46988435627861,80.92532636042527,44.890858456506095,49.346300460652756,40
1750.0,87.2,85.39175510812755,75.87375597972449,80.36285689879655,45.028898209331004,49.51799912840306,40
1800.0,87.1,85.20462109811788,75.67429812595677,80.1286654398757,45.07595565824218,49.530322972161116,40
1850.0,86.8,84.93163048629954,75.5099271039304,79.90946334815483,45.02216713814471,49.421703382369145,40
1900.0,86.7,84.8483499444155,75.55217647495287,79.87095733393794,44.977392610477565,49.29617346946263,40
1950.0,86.8,85.16237788118222,75.93873971582795,80.14930957070949,45.01306831047273,49.223638165354274,40
2000.0,86.90000000000002,85.56514578163743,76.39184863254444,80.48693773324733,45.078208048390096,49.17329714909299,40
2060.0,87.1,86.0433842827406,76.89056490158627,80.88994533155692,45.15343895118369,49.15281938115433,40
2120.0,87.7,86.74943239711773,77.60741260429769,81.55258257880278,45.196849818314945,49.14201979282004,40
2180.0,87.8,86.73548023339956,77.58942490981913,81.50229976777648,45.23318046562308,49.14605532358043,40
2240.0,87.2,85.9816136360724,76.78757332022464,80.73067814515373,45.250935490918664,49.19404031584776,40
2300.0,86.5,85.14891731941704,75.84037628760417,79.90224471097093,45.246672608446104,49.308541031812865,40
2360.0,86.1,84.62679081740144,75.12915816921047,79.36653111242336,45.26025970497808,49.49763264819097,40
2400.0,86.60000000000001,85.0484488463458,75.41850007157113,79.73823354480034,45.31021530154547,49.629948774774675,40
2500.0,87.6,85.8771407574395,76.15329938229804,80.57007109225785,45.30706966518166,49.72384137514146,40
2580.0,87.8,86.00943228105184,76.25332486531597,80.7101189377768,45.299313343275045,49.75610741573587,40
2650.0,87.8,85.97349105064671,76.2183779693242,80.70986760509295,45.26362344555376,49.75511308132252,40
2720.0,87.4,85.75834123439827,76.01431668938649,80.50682349232521,45.25151774207306,49.74402454501178,40
2800.0,87.3,85.6413409673876,75.88061332419149,80.46708445381277,45.17425651357483,49.76072764319612,40
2900.0,87.1,85.52056249213928,75.7164699421234,80.3907934071183,45.12976908502098,49.80409255001588,40
3000.0,86.60000000000001,85.29821565914598,75.53158720469155,80.20425543683793,45.093960222308056,49.766628454454434,40
3070.0,86.8,85.69945014169603,76.02650177129965,80.63673219330929,45.06271794838675,49.672948370396384,40
3150.0,87.9,86.5122283544161,76.84003027510158,81.45588957703264,45.05633877738346,49.67219807931451,40
3250.0,88.3,86.54912804188022,76.84907652924214,81.49044729608657,45.05868074579365,49.70005151263808,40
3350.0,86.99999999999999,85.30121775331476,75.58833213344927,80.21530585824195,45.08591189507281,49.71288561986549,40
3450.0,85.7,84.48549132718183,74.71459887376851,79.3253661213621,45.16012520581974,49.770892453413325,40
3550.0,86.3,85.69257115496981,75.92713814758694,80.49513034115738,45.197440813812435,49.76543300738287,40
3650.0,87.2,86.68754979908981,76.89470219027642,81.46786544360117,45.21968435548864,49.79284760881339,40
3750.0,87.6,86.74666518672034,76.84720909936259,81.58621929786081,45.16044588885953,49.89945608735775,40
3870.0,87.5,86.4341067175914,76.42253311298546,81.26601163235364,45.168095085237766,50.01157360460594,40
4000.0,87.2,86.01839608461745,75.88082152850257,80.72568499156462,45.29271109305283,50.137574556114885,40
4120.0,87.6,86.07047608951127,75.84182130423764,80.6882699836517,45.38220610585958,50.22865478527363,40
4250.0,87.4,85.91973665014815,75.84623227251181,80.61649439097047,45.30324225917768,50.07350437763634,40
4370.0,87.4,86.04441017385292,76.14869579520969,80.86880331173874,45.17560686211418,49.895714378643234,40
4500.0,88.2,87.04052584572939,77.16287139312257,81.93802963653462,45.10249620919477,49.87765445260682,40
4620.0,87.6,86.45323179688405,76.50577985405563,81.35024941321983,45.10298238366423,49.94745194282842,40
