Freq "Listening Window"
20.5078 45.76873623415466
21.9727 48.37518156821318
23.4375 52.55069595685066
24.9023 56.826305082050965
26.3672 55.168516293534566
27.832 58.58111883552874
29.2969 62.217491300486955
30.7617 64.09930886135342
32.2266 66.10861448917544
33.6914 68.17816526381361
35.1562 70.03396586895155
36.6211 71.59931817880576
38.0859 73.40857812897485
39.5508 74.93383266821775
41.0156 76.05422327951494
42.4805 77.11357533535825
43.9453 77.88652517638644
45.4102 78.50486261740318
46.875 79.06835923193094
48.3398 79.48082868151221
51.2695 80.1124506130275
52.7344 80.40237644058641
54.1992 80.66098443877425
55.6641 80.87427942689436
58.5938 81.3413228948915
60.0586 81.58950182795095
62.9883 81.99615644884088
64.4531 82.23068104789411
67.3828 82.75197732331864
68.8477 82.8892103542658
71.7773 83.29974066512852
74.707 83.68253791528844
77.6367 83.95812943967107
79.1016 84.06993531894544
82.0312 84.39434895236978
84.9609 84.66098899788476
87.8906 84.89590014989518
90.8203 85.13306032497384
95.2148 85.38932726253073
98.1445 85.51115239093937
101.074 85.69969861258724
105.469 85.78794113588276
108.398 85.83622428205211
112.793 85.6460369521497
117.188 85.47950129704724
120.117 85.71972360042528
124.512 85.98128430244932
128.906 85.85663371550584
133.301 85.69142713066098
139.16 85.43190397104681
143.555 85.25703007950875
147.949 85.34204030953391
153.809 85.2688509640459
159.668 84.58866404226974
165.527 84.60780721710233
171.387 84.86340698547691
177.246 84.92466077249043
183.105 84.70786481246665
188.965 84.68416915680073
196.289 84.41026971988855
203.613 84.20657881597333
210.938 84.2150352214058
218.262 84.3717570712503
225.586 84.05900253818021
232.91 83.79186193639468
241.699 83.96681701884216
250.488 83.78600921490619
259.277 84.21105362821066
268.066 84.40318535738335
276.855 83.90262499670575
287.109 83.14837752291106
297.363 83.62901530038775
307.617 83.43093214114052
319.336 83.61180909527567
329.59 84.25781603239871
341.309 84.05554632200969
353.027 84.29325323427732
366.211 84.6362264122466
379.395 84.19163050731925
392.578 84.03999272745382
405.762 83.85379713311724
420.41 83.83855157112761
435.059 84.2517053253411
451.172 84.8051187697591
465.82 85.15360160693191
483.398 84.81393054928665
499.512 84.71843053602448
517.09 84.73078242299349
536.133 85.1485171439707
555.176 85.31233079532427
574.219 86.22254284519673
594.727 85.55726622796428
615.234 86.02217382691117
637.207 86.40190323226011
659.18 85.51957206566982
682.617 85.67786982233653
707.52 85.7491764818041
732.422 86.1382631469206
757.324 87.32268330068634
785.156 86.75854625226447
811.523 86.42214000977985
840.82 86.37907433643818
870.117 85.73544278068263
900.879 85.73112852270046
933.105 85.45808280651076
965.332 85.821459618967
1000.49 85.36278520833362
1035.64 85.52288316442285
1072.27 85.39637976270753
1108.89 85.34669650712992
1148.44 85.25778384313226
1189.45 86.39829028928929
1230.47 86.14670622193
1274.41 86.08807592647321
1319.82 86.65136658658136
1366.7 86.53993710142244
1413.57 86.59893991203703
1463.38 86.75171215169401
1516.11 86.89258109517895
1568.85 87.08849336782008
1624.51 86.93481310662106
1681.64 86.70232343562867
1741.7 86.96845175751281
1803.22 87.18782265688355
1866.21 86.5760900271427
1932.13 86.42000412736294
1999.51 86.72490808135879
2069.82 86.63533654224159
2143.07 86.04324464505825
2219.24 86.35137807593884
2296.88 86.697707457553
2378.91 86.09518292629164
2462.4 85.81210509450369
2548.83 86.29468244824638
2639.65 86.03128137803694
2731.93 85.99791435015639
2828.61 86.27913747535172
2928.22 86.37401479028287
3030.76 86.15779539342073
3137.7 86.38508874963433
3249.02 86.30344547059119
3363.28 86.4617352367648
3481.93 86.25435779822617
3604.98 86.4389711305597
3732.42 86.02163983586377
3864.26 86.37069684792726
4000.49 86.01553513031578
4141.11 86.1330694042433
4287.6 86.05095343872647
4438.48 86.1255534597293
4595.21 86.26308836183844
4756.35 86.16726455032662
4924.8 85.87885773068814
5097.66 86.10593139284143
5277.83 85.53978095380388
5463.87 85.53221178986291
5657.23 85.65332231141696
5856.45 85.89316834927106
6062.99 86.03233897778053
6276.86 85.98613101544146
6498.05 85.80576938773731
6726.56 85.84898916494141
6963.87 86.31062412230816
7209.96 86.24892915545911
7464.84 85.9530896207245
7727.05 85.9820354389543
7999.51 85.53197868931238
8282.23 85.27611848663375
8573.73 85.32287856744526
8876.95 85.75227337815896
9188.96 85.91414349844939
9514.16 85.89125157555954
9849.61 85.87057194175947
10196.8 85.93417365872865
10555.7 85.9056108084058
10927.7 86.33872017468177
11313.0 87.33851710358093
11712.9 87.53575481910698
12126.0 87.16363535620789
12553.7 87.1145199717747
12996.1 87.49111961372306
13454.6 87.75780495791969
13929.2 86.79451536181398
14419.9 86.03661215971977
14928.2 85.77786260749016
15455.6 85.01158356312459
16000.5 84.07020228456965
16564.5 84.03859653227181
17148.9 83.0079882491931
17752.4 82.90110232657669
18379.4 83.5496400428088
19026.9 81.29500833264599
19697.8 79.55238255087133
19999.5 79.21352441594182
