Freq "Rear Wall Bounce"
20.0 14.092311762253559
20.2909 15.586632084968869
20.586 17.058230863389923
20.8855 18.411615178348825
21.1893 19.497394905654403
21.4975 20.304660619722455
21.8102 20.86269245671889
22.1274 21.247516173404364
22.4492 21.601930988947828
22.7758 22.113455233962867
23.1071 22.928379811567197
23.4432 24.014162809584633
23.7841 25.172187165058602
24.1301 26.22065688623684
24.4811 27.111418451587127
24.8372 27.874379111910258
25.1984 28.587236118400455
25.5649 29.321110291812857
25.9368 30.098460311955165
26.3141 30.891877054700302
26.6968 31.65426082695666
27.0851 32.36661716042008
27.4791 33.048361575607004
27.8788 33.74013863764088
28.2843 34.46363100375825
28.6957 35.20038650533519
29.1131 35.916330874963876
29.5365 36.5943447815948
29.9661 37.24571976180144
30.402 37.906361544180385
30.8442 38.61045338421533
31.2929 39.35029557632805
31.748 40.09929431377947
32.2098 40.83871241567428
32.6783 41.56825728207707
33.1536 42.31219475701542
33.6359 43.081555271565264
34.1251 43.86808556856133
34.6215 44.64860206243745
35.125 45.41663105080477
35.6359 46.1779076282225
36.1543 46.94967969371075
36.6802 47.72954169291708
37.2137 48.50345394357676
37.755 49.26885533951176
38.3041 50.033848882132716
38.8613 50.80765222777028
39.4265 51.58444977341297
40.0 52.345876587031
40.5818 53.0951550300517
41.1721 53.84606905681319
41.771 54.58772052627705
42.3785 55.27681498592581
42.9949 55.89875373031269
43.6203 56.494604869903654
44.2548 57.138764890477276
44.8985 57.84238528974001
45.5515 58.54691807044624
46.2141 59.20472813695784
46.8863 59.82173664902109
47.5683 60.42772528152918
48.2602 61.02143411003219
48.9621 61.587422438808375
49.6743 62.11782342809039
50.3968 62.61749806329273
51.1299 63.08008398672111
51.8736 63.50652401828577
52.6281 63.90147288765402
53.3936 64.26374151304282
54.1702 64.59185638303336
54.9581 64.89423420092251
55.7575 65.17736943579537
56.5685 65.44258457408937
57.3914 65.6892250334491
58.2261 65.92043281026355
59.073 66.13082653086637
59.9323 66.32112825611402
60.804 66.49796950508494
61.6884 66.66821784668724
62.5857 66.83178251498329
63.496 66.98218392360653
64.4196 67.12158381574358
65.3566 67.25711264053106
66.3073 67.39168286040626
67.2717 67.52895083166244
68.2502 67.67106399798763
69.2429 67.82407161697114
70.2501 67.9962467010239
71.2719 68.17871981846707
72.3086 68.3576399548935
73.3603 68.51592188323276
74.4274 68.6780899412552
75.5099 68.84787539880564
76.6083 68.9996323271941
77.7226 69.17343457482079
78.8531 69.39041412688745
80.0 69.62570418528969
81.1636 69.86964028567505
82.3442 70.11112990292469
83.5419 70.3442585163792
84.757 70.56360452016244
85.9899 70.77950553861022
87.2406 71.00161349747447
88.5096 71.24867426343562
89.797 71.50903697359392
91.1031 71.746974905249
92.4282 71.93663147282774
93.7726 72.0881529859538
95.1366 72.2289792470952
96.5204 72.38645364018637
97.9243 72.55995873071548
99.3486 72.7502100369001
100.794 72.94099582618759
102.26 73.11227577688564
103.747 73.26736942410189
105.256 73.40658206517625
106.787 73.5248378806906
108.34 73.60732140717204
109.916 73.6346587875395
111.515 73.64200919640771
113.137 73.67557590888075
114.783 73.70472768350749
116.452 73.71688470547659
118.146 73.72135289037256
119.865 73.7170956928073
121.608 73.68907115710127
123.377 73.6606845642407
125.171 73.64304957883874
126.992 73.61828094526527
128.839 73.57421479853087
130.713 73.4968618641542
132.615 73.38974686840596
134.543 73.28479649701649
136.5 73.21283719580912
138.486 73.14173334877945
140.5 73.03595966325356
142.544 72.88592581597548
144.617 72.73324331208698
146.721 72.64159236219295
148.855 72.59773288205979
151.02 72.53859567178912
153.217 72.4448915558066
155.445 72.36608820509603
157.706 72.23708613358605
160.0 71.97894423252636
162.327 71.80701547378027
164.688 71.70959414647567
167.084 71.69743872321646
169.514 71.68817627091799
171.98 71.38580851822712
174.481 71.12794323384767
177.019 70.99927904583895
179.594 70.94775091987151
182.206 70.93003819039872
184.856 70.94796848956622
187.545 70.9692095528532
190.273 71.01988970517701
193.041 71.03517773181518
195.849 71.01419067481746
198.697 70.97798945450347
201.587 70.85669980941483
204.52 70.66215475269158
207.494 70.47425654515959
210.512 70.34958583172107
213.574 70.31417618408007
216.681 70.28262959863777
219.833 70.16383186683187
223.03 70.05164651241427
226.274 70.00811443205886
229.565 70.04489030927176
232.905 69.98049404749034
236.292 69.94916686474062
239.729 69.9740845139454
243.216 70.05408223493582
246.754 69.99469100306675
250.343 69.81958538570791
253.984 69.77073192170856
257.678 69.76500363160835
261.426 69.77080321428662
265.229 69.70541462797209
269.087 69.45878810512491
273.001 69.38084877774024
276.972 69.46692097204212
281.0 69.42134903046687
285.088 69.41950492653356
289.234 69.47604337932994
293.441 69.58380253454158
297.709 69.45770177866204
302.04 69.33597354492755
306.433 69.01650442052492
310.89 69.04503605121505
315.412 69.06044728636375
320.0 68.81852065496851
324.655 68.54518550127597
329.377 68.46804996444335
334.168 68.43891155081359
339.028 68.29145987167124
343.959 68.4253752583633
348.962 68.25195916576305
354.038 67.99164048619531
359.188 67.95293682359979
364.412 67.73351235442472
369.713 67.60327336924725
375.09 67.5656405021341
380.546 67.4674438731519
386.081 67.48630929646959
391.697 67.30258868672978
397.394 67.15164860097582
403.175 66.93836134255359
409.039 66.8155145263907
414.989 66.74888802817114
421.025 66.70055671944091
427.149 66.62661540227214
433.362 66.55571237746656
439.665 66.53617465626886
446.06 66.47136996715527
452.548 66.43840746057813
459.131 66.42487291659243
465.809 66.41733719823205
472.584 66.43454400522694
479.458 66.45945083028226
486.432 66.48382105247975
493.507 66.52721764873965
500.686 66.57047566930865
507.968 66.60900581986492
515.357 66.65522215791277
522.853 66.69598927910192
530.458 66.73493699920665
538.174 66.77252729649732
546.002 66.80824390228092
553.943 66.84427950458002
562.001 66.87295852331724
570.175 66.89962826966286
578.469 66.91357347696525
586.883 66.9287249829901
595.419 66.9362045505126
604.08 66.94103637812923
612.866 66.93554532462485
621.78 66.91996027807114
630.824 66.89590117965908
640.0 66.86684521594735
649.309 66.82245365731285
658.753 66.77420544185145
668.335 66.71340400345397
678.056 66.64404481640238
687.919 66.56289182198535
697.925 66.47557906985635
708.077 66.38770530479762
718.376 66.29739402197342
728.825 66.20409575618854
739.426 66.11391508694402
750.181 66.03541172113474
761.093 65.96508521819825
772.163 65.90760838703982
783.394 65.86960718866813
794.789 65.85546642878404
806.349 65.85860883483892
818.078 65.8731691549635
829.977 65.90889080715269
842.05 65.95242328086246
854.298 65.99843847961137
866.724 66.04022956071141
879.33 66.07826348797371
892.12 66.09447476599634
905.097 66.09579454070258
918.262 66.07361099722469
931.618 66.02808496556221
945.169 65.96068362671997
958.917 65.87076208387776
972.864 65.77053676166251
987.015 65.66283513830388
1001.37 65.55244678706359
1015.94 65.45068613351229
1030.71 65.36529693666894
1045.71 65.29083412171902
1060.92 65.23221204828519
1076.35 65.18781169604298
1092.0 65.13540468521983
1107.89 65.06844024149551
1124.0 64.9680557383735
1140.35 64.8216995488846
1156.94 64.6242351871621
1173.77 64.3706695780351
1190.84 64.07415977184306
1208.16 63.754546022861646
1225.73 63.45137432923623
1243.56 63.22012114457594
1261.65 63.116002993543646
1280.0 63.16700162832339
1298.62 63.38529969477639
1317.51 63.72069320732217
1336.67 64.11799088386674
1356.11 64.49450121129362
1375.84 64.80987996981025
1395.85 65.02196675833414
1416.15 65.11415520948833
1436.75 65.08191636534315
1457.65 64.92998366014129
1478.85 64.67290188407235
1500.36 64.36992057338828
1522.19 64.06228978972436
1544.33 63.81223986359947
1566.79 63.66224793006526
1589.58 63.63041207936723
1612.7 63.67397124675024
1636.16 63.7547344187287
1659.95 63.80713768249403
1684.1 63.79239513166037
1708.6 63.7101669400645
1733.45 63.56265638601316
1758.66 63.38771151842347
1784.24 63.22936548625948
1810.19 63.13451484549057
1836.52 63.107139951918626
1863.24 63.146514662488585
1890.34 63.20626410134021
1917.83 63.24777340429826
1945.73 63.25666631029678
1974.03 63.230314826300685
2002.74 63.18724848774639
2031.87 63.14948221189539
2061.43 63.139156773652545
2091.41 63.16185454752841
2121.83 63.20631555187528
2152.69 63.2468938465113
2184.01 63.27108285945336
2215.77 63.252309519841106
2248.0 63.18889190038922
2280.7 63.08184483814307
2313.87 62.95886681443241
2347.53 62.86418037165704
2381.68 62.851886647903314
2416.32 62.92575762600843
2451.46 63.03215425455076
2487.12 63.06850821175526
2523.3 62.94752849611311
2560.0 62.659721988772446
2597.24 62.30882971059175
2635.01 62.088248446848056
2673.34 62.117035083552864
2712.23 62.304288709890244
2751.68 62.42496537084713
2791.7 62.32655942587516
2832.31 62.03592575875675
2873.5 61.754356280912646
2915.3 61.67783553548007
2957.7 61.767467718276635
3000.72 61.80776865518071
3044.37 61.65507143334301
3088.65 61.36940061270367
3133.58 61.144996844639195
3179.16 61.07320467507353
3225.4 61.05626356103282
3272.31 60.98009221804054
3319.91 60.82110130642127
3368.2 60.62538091114625
3417.19 60.44419422668375
3466.89 60.30651865370233
3517.32 60.27206700739393
3568.48 60.25141412435292
3620.39 60.07152622230373
3673.05 59.76157593153715
3726.47 59.66273136272899
3780.67 59.904952606625486
3835.67 60.0906865255656
3891.46 59.98312153857704
3948.06 59.92241013660225
4005.49 60.19012195367608
4063.75 60.40997405765192
4122.86 60.16438754860786
4182.82 59.568668675914935
4243.66 58.9750484811056
4305.39 58.508152417087956
4368.01 58.23370151559902
4431.55 58.17283570906696
4496.01 58.1038288109921
4561.4 58.034592618117244
4627.75 58.07398680251616
4695.06 57.84425418680836
4763.35 57.37187596479143
4832.64 57.367791857847905
4902.93 57.526050255749325
4974.24 57.39040470539446
5046.6 57.48235101661936
5120.0 57.55788648554696
5194.47 57.34604790078663
5270.03 57.450550085482604
5346.68 57.37047816052241
5424.45 57.07093619474065
5503.35 57.38134851339946
5583.4 57.50419508107093
5664.61 57.488230184995075
5747.01 57.77711673895678
5830.6 57.576592250943065
5915.41 57.186160098609534
6001.45 56.80656213907227
6088.74 56.2892372275963
6177.3 55.51375384185131
6267.15 54.59779275520856
6358.31 54.35738343065111
6450.8 53.84549022786531
6544.62 54.39879712721347
6639.82 54.70430645827338
6736.4 54.52841904567315
6834.38 54.84626198161516
6933.79 55.19422607775911
7034.64 55.71478023977828
7136.96 55.919609179293815
7240.77 55.96398738258283
7346.09 55.8607792005528
7452.94 55.94494629569944
7561.35 55.571831931827106
7671.33 55.56752075158025
7782.91 55.27005537328601
7896.12 55.09427564448886
8010.97 54.75451532844055
8127.49 54.40565382368875
8245.71 54.223471491738124
8365.65 53.8020805648753
8487.33 53.487863465893184
8610.78 52.579796080639866
8736.03 51.96171604485089
8863.09 51.177037411449035
8992.01 50.66232066924381
9122.8 51.01233966746943
9255.5 51.5007952425436
9390.12 52.164633207210855
9526.7 52.39490015122507
9665.27 52.25277416838557
9805.86 51.85856179891212
9948.49 51.19235359063454
10093.2 49.98753117967391
10240.0 48.765299667771956
10388.9 48.01304381514292
10540.1 48.05355337467854
10693.4 49.15674385867817
10848.9 50.35880529336748
11006.7 51.393342284094786
11166.8 52.16562708277996
11329.2 52.57855436862842
11494.0 52.30655638346208
11661.2 51.9656875657798
11830.8 51.56227491560183
12002.9 51.6548909708539
12177.5 52.43891346559283
12354.6 52.88758644509531
12534.3 53.1139747204668
12716.6 53.287248123376514
12901.6 53.16625671569933
13089.2 52.935561118541756
13279.6 52.74643675577808
13472.8 52.703410466505574
13668.8 52.8414227112234
13867.6 52.72673445674259
14069.3 52.402012537070846
14273.9 51.578458138297535
14481.5 50.43426540092362
14692.2 49.47250630699165
14905.9 48.77986933435929
15122.7 48.007226871845916
15342.7 47.018464111544944
15565.8 46.04921322654022
15792.2 44.63310612588256
16021.9 42.84044500887899
16255.0 41.70962651939422
16491.4 40.89478101252942
16731.3 39.48630583348492
16974.7 37.233131150225546
17221.6 34.98394208613371
17472.1 35.24298546761898
17726.2 36.164617693673364
17984.0 36.352913632133266
18245.6 35.39694530314793
18511.0 33.186888812610135
18780.2 29.646910246979672
19053.4 25.62473613721508
19330.5 26.00336622121486
19611.7 29.427289382649946
19897.0 31.20772659850411
