Freq "Sound Power"
20.5078 46.964160649600416
21.9727 53.438944144007934
23.4375 58.734684284466
24.9023 60.34891835504001
26.3672 64.39639230112871
27.832 65.08620618499452
29.2969 67.71708893081122
30.7617 69.48643441019618
32.2266 71.05283618197595
33.6914 72.90108012388387
35.1562 74.31465473383753
36.6211 75.45558476046054
38.0859 76.57059486583033
39.5508 77.56849119146632
41.0156 78.38627354929
42.4805 79.01096529216449
43.9453 79.61880893935157
45.4102 79.87468418045826
46.875 80.31094128966203
48.3398 80.56380411268425
51.2695 81.00256188080377
52.7344 81.20958704068526
54.1992 81.39710280371168
55.6641 81.54147989404005
58.5938 81.83659001550677
60.0586 82.05246550500088
62.9883 82.43059795927229
64.4531 82.57604474780808
67.3828 82.89816811617985
68.8477 83.09522847663501
71.7773 83.42377037058421
74.707 83.82543283698905
77.6367 84.12112342326097
79.1016 84.24309322302567
82.0312 84.47336390321861
84.9609 84.79294403692501
87.8906 84.96032820903238
90.8203 85.31647427929526
95.2148 85.51650044681625
98.1445 85.72566675461222
101.074 85.79641003903045
105.469 86.03477446351808
108.398 86.21053421555492
112.793 86.3028793234381
117.188 86.20262624908216
120.117 86.25208580613526
124.512 86.19790856424098
128.906 86.1310385296602
133.301 86.03140531260775
139.16 85.86163178267809
143.555 85.6610601618818
147.949 85.43059983677395
153.809 85.18202444177814
159.668 85.04965044581297
165.527 84.88189828489259
171.387 84.61840239387361
177.246 84.247729771439
183.105 83.89656248773412
188.965 83.70180976067307
196.289 83.4835375985287
203.613 83.12197627036517
210.938 82.88693778053872
218.262 82.67040121384989
225.586 82.56488793126867
232.91 82.3774100060153
241.699 82.02191111714285
250.488 81.84507394216352
259.277 81.79989756430578
268.066 81.37353574736761
276.855 81.15587508546865
287.109 81.00893262262531
297.363 81.00716320073563
307.617 80.7433226599276
319.336 80.43366071505622
329.59 80.9389538467197
341.309 80.70462317674256
353.027 80.56704689266704
366.211 80.67789420625373
379.395 80.94229713695621
392.578 80.68825327585745
405.762 80.67098035722579
420.41 80.61240154716397
435.059 80.51663914428018
451.172 80.72372894333483
465.82 80.62838727068733
483.398 80.40952978066542
499.512 80.42772951247895
517.09 80.73499142589091
536.133 80.39435773269904
555.176 80.35221812729488
574.219 80.84876357347672
594.727 80.66563284712615
615.234 80.20946289105608
637.207 80.91167463967547
659.18 80.35928015292927
682.617 79.75579578061469
707.52 78.96704784272484
732.422 78.41423759346502
757.324 78.68740022068837
785.156 82.51597186244274
811.523 81.07438306888093
840.82 81.32641404484505
870.117 81.55058428089683
900.879 81.8098621649442
933.105 82.1464652927823
965.332 83.82727545381375
1000.49 83.04179103010027
1035.64 83.93853898119755
1072.27 84.89000176494531
1108.89 85.12688344108918
1148.44 83.49637698848059
1189.45 83.29823462991277
1230.47 83.46789089047175
1274.41 82.32923099581815
1319.82 81.14634891044598
1366.7 80.41777495917637
1413.57 79.47298563456069
1463.38 78.70646763585998
1516.11 77.1231193897305
1568.85 75.78171250069123
1624.51 75.92364580764831
1681.64 75.80164699494286
1741.7 75.24862113897994
1803.22 75.39401038669536
1866.21 75.60522599616309
1932.13 75.78556144694257
1999.51 76.83181209220858
2069.82 77.44392877221809
2143.07 77.90891752724838
2219.24 77.90532534276124
2296.88 77.43933641163471
2378.91 77.20709360656241
2462.4 77.58926246392741
2548.83 77.61736881016435
2639.65 77.25026131396837
2731.93 76.33706046655524
2828.61 76.13330378198748
2928.22 76.58412841012192
3030.76 76.93582579110709
3137.7 77.11406494175012
3249.02 77.26176863468461
3363.28 77.53328253002147
3481.93 77.96922034793457
3604.98 78.13396643536518
3732.42 78.36360192846652
3864.26 78.33189992547527
4000.49 78.02112288606261
4141.11 78.39872149346655
4287.6 78.27079165675207
4438.48 78.2149986771724
4595.21 77.7967214500136
4756.35 77.88121734672353
4924.8 77.96643343683168
5097.66 77.49274495217047
5277.83 77.42457734481656
5463.87 77.49139504160401
5657.23 77.56980031596778
5856.45 77.27189872414944
6062.99 77.45738369934163
6276.86 76.6242056088177
6498.05 76.47466018711268
6726.56 76.62885671534127
6963.87 76.55828038400419
7209.96 77.00546582103343
7464.84 77.01693364481012
7727.05 76.66406731686672
7999.51 76.41979890993308
8282.23 76.00535392503251
8573.73 75.79519957167376
8876.95 75.76460773659689
9188.96 76.01580645357681
9514.16 75.82695323419094
9849.61 75.55041925838883
10196.8 75.41494368688102
10555.7 74.89069519648073
10927.7 73.65240009624908
11313.0 72.36457768465132
11712.9 70.30043446767465
12126.0 72.377439009397
12553.7 72.92420860830688
12996.1 73.22424130509663
13454.6 74.76182091860491
13929.2 75.7388619424793
14419.9 75.77675609606018
14928.2 75.3000862273653
15455.6 74.53736790222658
16000.5 73.79897359785019
16564.5 73.96374937470199
17148.9 73.27710424003519
17752.4 73.3098456884187
18379.4 74.84792259460458
19026.9 77.29828208113145
19697.8 78.7134819101214
19999.5 79.38090630658735
