Freq,On Axis,Listening Window,Sound Power,Early Reflections,Early Reflections DI,Sound Power DI,DI offset
20.5078,64.1927,64.18141866063058,63.79889701383047,63.98283409288388,40.19858456774671,40.382521646800114,40
23.4375,66.4812,66.4688010076909,66.0765173764743,66.26336700204548,40.205434005645415,40.3922836312166,40
26.3672,68.3346,68.3222723631785,67.94987431906776,68.1262917988281,40.19598056435039,40.37239804411074,40
29.2969,69.89750000000001,69.88376908686911,69.49703850519208,69.67980520345951,40.2039638834096,40.38673058167703,40
32.2266,71.46199999999999,71.44764390613642,71.06764434146649,71.24549503484745,40.20214887128897,40.37999956466993,40
35.1563,72.8274,72.81214737850814,72.4405442278371,72.61309199719202,40.19905538131613,40.37160315067105,40
38.0859,74.1249,74.1079204938501,73.7167222495881,73.89867154526794,40.20924894858216,40.391198244262,40
41.0156,75.24270000000001,75.22552781273457,74.86466207957537,75.02867716094434,40.19685065179023,40.3608657331592,40
43.9453,76.4579,76.43775348870969,76.02778582094389,76.21639116227117,40.22136232643852,40.4099676677658,40
46.875,77.5776,77.55363130103322,77.09656534973578,77.30790156758134,40.24572973345188,40.45706595129744,40
49.8047,78.5408,78.51719491096101,78.09014269452325,78.28479686351415,40.232398047446864,40.42705221643776,40
52.7344,79.5123,79.48653355945893,79.03998823640309,79.24417088891435,40.24236267054458,40.446545323055844,40
55.6641,80.3886,80.36173769380866,79.93247981148089,80.12665854747064,40.23507914633802,40.429257882327775,40
58.5938,81.30169999999998,81.27340176523305,80.85061254092912,81.039713854479,40.23368791075404,40.422789224303926,40
61.5234,82.0575,82.02473697088706,81.55031194394786,81.76342070327016,40.261316267616905,40.4744250269392,40
64.4531,82.85730000000001,82.82161008655105,82.31265604530353,82.54141747586365,40.28019261068739,40.50895404124752,40
67.3828,83.56020000000001,83.52156960903426,82.99430896665346,83.23049384180231,40.291075767231945,40.527260642380796,40
70.3125,84.1457,84.10790520765087,83.63853250711006,83.84229227245089,40.26561293519998,40.469372700540816,40
73.2422,84.7843,84.74176691754181,84.23097506929727,84.45690915529795,40.28485776224386,40.51079184824454,40
76.1719,85.3748,85.33072722916084,84.82311897541777,85.04700032405002,40.283726905110825,40.50760825374307,40
79.1016,85.8212,85.77357645073207,85.266799398952,85.48675989203574,40.28681655869633,40.50677705178006,40
82.0313,86.35679999999999,86.303090585722,85.6990818359331,85.96845314552301,40.33463744019899,40.6040087497889,40
84.9609,86.778,86.71983577136156,86.0385664524477,86.34705363480037,40.372782136561185,40.68126931891386,40
87.8906,87.0111,86.95491856493729,86.36970012123517,86.62714309649473,40.32777546844255,40.58521844370212,40
90.8203,87.2276,87.17070361768971,86.66728080357312,86.8780902644695,40.292613353220204,40.50342281411659,40
93.75,87.71199999999999,87.6421141025371,86.92525664533865,87.24416036197924,40.39795374055787,40.71685745719846,40
96.6797,87.83540000000002,87.7641006897405,87.02597529786166,87.35600364841746,40.408097041323046,40.73812539187884,40
102.539,88.1751,88.09530225108507,87.32560361256867,87.67307848791101,40.42222376317406,40.7696986385164,40
105.469,88.3098,88.22605935373605,87.40933847523148,87.78358730492113,40.44247204881492,40.81672087850457,40
108.398,88.4847,88.39682212174765,87.54808041917474,87.93580526376853,40.46101685797912,40.84874170257291,40
111.328,88.626,88.53396165854713,87.66748442562084,88.05982547108647,40.47413618746066,40.866477232926286,40
117.188,88.8086,88.70802247185878,87.7776442559143,88.20004991224346,40.507972559615325,40.930378215944486,40
120.117,88.8609,88.7562754314732,87.81933718468457,88.24202623619786,40.51424919527534,40.93693824678863,40
125.977,88.8186,88.70381156354118,87.67871341600384,88.14018057678443,40.56363098675675,41.025098147537335,40
128.906,88.80709999999999,88.68768324424751,87.59441670611432,88.09271029801641,40.594972946231096,41.09326653813319,40
134.766,88.5889,88.46302007779978,87.40763217560502,87.87836673839561,40.58465333940417,41.05538790219477,40
137.695,88.5387,88.40687442363603,87.3263788768526,87.80551888748586,40.601355536150166,41.080495546783425,40
143.555,88.5294,88.38468533252968,87.15935553397183,87.70921113038038,40.6754742021493,41.22532979855785,40
149.414,88.4985,88.34190254802499,86.97735739285487,87.59751490799148,40.74438764003351,41.36454515517012,40
155.273,88.54249999999999,88.3741499226494,86.89640196347969,87.57841130634341,40.79573861630598,41.477747959169704,40
158.203,88.5887,88.41653478545511,86.92087411195192,87.60581694920594,40.81071783624917,41.495660673503195,40
164.063,88.84199999999998,88.66054414188189,87.04511035259463,87.79654349410438,40.8640006477775,41.61543378928725,40
169.922,88.4363,88.25066155744614,86.73384410980935,87.42977875975038,40.82088279769576,41.51681744763678,40
175.781,88.2842,88.083706108691,86.49526344038418,87.22252656993253,40.86117953875848,41.588442668306826,40
181.641,88.322,88.10725061131147,86.29419441419222,87.14010073274923,40.96714987856224,41.81305619711925,40
190.43,88.4014,88.17116511095031,86.1772709918893,87.13853001440475,41.03263509654556,41.99389411906101,40
196.289,88.34189999999998,88.10173169522842,86.14890353132343,87.07992646082063,41.02180523440779,41.952828163905,40
202.148,88.43890000000002,88.18496894876085,86.00790139651822,87.07556428914293,41.10940465961792,42.17706755224263,40
210.938,88.5014,88.23867371219035,85.87275308671718,87.05428659862773,41.18438711356262,42.365920625473166,40
216.797,88.32849999999999,88.06079903380152,85.84054622009327,86.92354798251178,41.13725105128974,42.22025281370824,40
225.586,88.745,88.4485069299926,85.91871086297193,87.20473146698605,41.24377546300656,42.52979606702067,40
234.375,88.8474,88.54873586722792,85.93456772224056,87.29986158491288,41.24887428231504,42.61416814498736,40
240.234,88.6232,88.31004286943306,85.68512182284631,87.04012488374158,41.26991798569148,42.62492104658675,40
249.023,88.878,88.54513329190084,85.46329642669807,87.1074627092113,41.437670582689535,43.081836865202774,40
257.813,89.00539999999998,88.67689505386276,85.84565461767372,87.31194099130543,41.36495406255733,42.83124043618905,40
266.602,88.5742,88.22289386775681,85.11289757945316,86.73691005921668,41.48598380854013,43.10999628830365,40
278.32,88.70409999999998,88.3359206731125,85.33866881870325,86.86848284585909,41.467437827253406,42.99725185440924,40
287.109,88.8905,88.49938017817587,85.32836731756021,86.99898497120205,41.50039520697382,43.17101286061566,40
295.898,89.0807,88.6615629692811,85.32884878531083,87.12374943950852,41.53781352977259,43.33271418397028,40
307.617,88.73409999999998,88.2686899744723,85.27841943349293,86.72510077583671,41.54358919863559,42.99027054097937,40
319.336,90.0076,89.49938060742322,85.66951308682985,87.64816891374076,41.85121169368246,43.82986752059337,40
331.055,89.8379,89.37482551083102,85.49078796188725,87.61477133982392,41.7600541710071,43.884037548943766,40
342.773,89.1198,88.61751180711049,84.95129210016573,86.90200981406467,41.71550199304582,43.66621970694476,40
354.492,89.62620000000001,89.11538428067891,84.93094426155758,87.29766761584011,41.8177166648388,44.184440019121325,40
366.211,89.719,89.1713967048749,84.95587986946286,87.35450621369183,41.81689049118306,44.21551683541203,40
377.93,89.8309,89.29401879742184,85.34076886397645,87.56995303828931,41.72406575913253,43.95324993344539,40
392.578,88.7786,88.21370533372105,84.4069565215568,86.51818814946003,41.69551718426102,43.80674881216426,40
407.227,88.63649999999998,88.02734564633458,84.15665191132578,86.33081948434098,41.6965261619936,43.8706937350088,40
421.875,88.6927,88.03370586460925,84.10851343550172,86.33246893414815,41.70123693046109,43.925192429107526,40
436.523,88.72379999999998,88.04246468288757,83.86983829486441,86.19045494548664,41.852009737400934,44.17262638802316,40
451.172,89.13659999999999,88.4229595604319,83.8548347738793,86.46865646857665,41.95430309185525,44.5681247865526,40
465.82,88.67170000000002,87.95624189083857,83.83120260317915,86.1460320827725,41.81020980806606,44.12503928765942,40
483.398,88.805,88.0232647123235,83.90109529548482,86.28798387351671,41.73528083880679,44.12216941683867,40
500.977,87.8596,87.02753849345254,83.53345386220798,85.42314874598546,41.60438974746708,43.49408463124456,40
518.555,87.6105,86.71351759441157,82.93780320591242,84.76180072868446,41.95171686572711,43.77571438849915,40
536.133,88.3799,87.38595967747486,82.39954779826104,85.01273240012183,42.373227277353024,44.98641187921382,40
553.711,88.7146,87.71251828509347,82.5090166047003,85.47351936584118,42.23899891925228,45.20350168039316,40
574.219,88.1098,87.04348718928648,82.48407089179996,84.79214757827236,42.25133961101412,44.55941629748652,40
594.727,88.4008,87.33651199864028,81.68617940355887,84.67748923247481,42.659022766165464,45.65033259508141,40
615.234,88.4029,87.32382076973342,81.58298926738044,84.88726200394544,42.43655876578798,45.740831502352975,40
638.672,88.004,86.87515016964157,81.61258321630899,84.580379065405,42.294771104236574,45.26256695333258,40
659.18,87.5137,86.3317651139756,81.21531681947413,83.80606908994754,42.525696024028065,45.11644829450148,40
682.617,88.6664,87.45255125882625,81.39924645263137,84.65289044062375,42.7996608182025,46.05330480619487,40
706.055,88.7141,87.43860464280965,81.51184578268808,84.90359472500091,42.535009917808736,45.926758860121566,40
732.422,88.225,87.02355841869596,81.39422593726893,84.54496666399407,42.47859175470188,45.62933248142703,40
758.789,89.1784,87.9521769785805,82.02929534920213,85.48291157894009,42.469265399640406,45.92288162937837,40
785.156,87.5661,86.50257231642784,81.45399398304298,84.50578576948008,41.99678654694776,45.04857833338487,40
811.523,87.5588,86.69896748239137,82.01989500945787,84.85521047034433,41.843757012047035,44.6790724729335,40
840.82,87.7859,86.89837755428955,82.32919337611862,84.46878893390573,42.429588620383825,44.56918417817093,40
870.117,87.6122,86.89613775330189,81.67340053502528,84.43623137329145,42.45990638001044,45.222737218276606,40
902.344,87.63499999999999,87.09703216655252,81.84378524695556,84.65902004969261,42.43801211685991,45.25324691959696,40
931.641,87.6835,87.29130078053119,82.10192921249303,84.81406435042146,42.47723643010973,45.189371568038155,40
966.797,87.601,87.44550336215308,81.70773979805915,84.65645881675472,42.789044545398355,45.737763564093925,40
999.023,87.3375,87.44446430902599,82.15311851326285,84.80783113874413,42.636633170281854,45.291345795763135,40
1034.18,87.90179999999998,87.81656555848241,82.01801770590838,84.93847998078496,42.87808557769745,45.79854785257403,40
1072.27,87.7235,87.80322036196276,82.76944520609794,85.45089215603738,42.352328205925375,45.03377515586482,40
1110.35,87.3824,87.58165303330642,82.63576883942852,85.28378917306236,42.297863860244064,44.9458841938779,40
1148.44,88.40189999999998,88.16619897761797,83.19585559698336,85.8537877828806,42.312411194737365,44.9703433806346,40
1189.45,88.96379999999999,88.50916007772919,82.97436360798575,85.73935173822122,42.769808339507975,45.53479646974344,40
1230.47,89.19730000000001,88.55252398524351,83.0607343286699,85.75434369558604,42.798180289657466,45.491789656573616,40
1274.41,88.9708,88.26630713106302,82.8083250986545,85.77471739422238,42.49158973684064,45.45798203240851,40
1318.36,88.9572,87.91115828246166,82.6802889735155,85.58758932686294,42.32356895559872,45.230869308946154,40
1365.23,88.9391,87.46622829761544,82.47356704199916,85.35518564739155,42.111042650223894,44.992661255616284,40
1415.04,89.1437,87.48943175371598,82.08604892921363,85.19099452500062,42.29843722871536,45.403382824502344,40
1464.84,89.5002,87.66084623309257,81.92165621438758,85.09238490836782,42.56846132472475,45.73919001870499,40
1514.65,89.7499,87.8833848727869,82.03717301327339,85.27639541699006,42.60698945579685,45.84621185951352,40
1570.31,89.9057,87.938663475808,82.09450180530757,85.28023831310335,42.658425162704646,45.84416167050043,40
1623.05,89.6054,87.65473037807719,81.69676375599495,84.7837230546226,42.87100732345459,45.95796662208224,40
1681.64,89.2334,87.3007649711439,81.41049714387539,84.49293417523218,42.80783079591173,45.89026782726852,40
1740.23,89.128,87.27684881635355,81.21437888789418,84.19503351803425,43.0818152983193,46.062469928459365,40
1801.76,89.0976,87.55014712600017,81.24496553064617,84.12956972816129,43.42057739783888,46.305181595354,40
1866.21,88.0914,87.0404038110018,81.07512820638179,83.75874844621511,43.28165536478669,45.965275604620004,40
1930.66,87.277,86.59920862739642,80.78312593326491,83.28546589004726,43.31374273734916,45.81608269413151,40
2000.98,87.6515,87.39627615051515,81.05271369469477,83.62021907205464,43.77605707846051,46.343562455820376,40
2071.29,88.7582,88.56521546415601,81.72254714973803,84.38641679237105,44.17879867178496,46.84266831441798,40
2144.53,88.39010000000002,88.53732681858479,81.66331023821914,84.30948520927204,44.22784160931275,46.87401658036565,40
2217.77,88.3141,88.30844156574832,81.36110559886919,83.84791710294144,44.46052446280689,46.94733596687914,40
2296.88,89.5748,89.42048725494881,82.27668831042547,84.68032547234803,44.74016178260078,47.14379894452334,40
2378.91,90.6876,90.39651278827293,82.99642471119091,85.52308792726396,44.87342486100897,47.40008807708202,40
2460.94,90.51689999999999,90.37531021110898,83.26093585316863,85.86375257232784,44.51155763878114,47.11437435794035,40
2548.83,89.5196,89.45303538682383,82.61675086499912,85.14857897972863,44.3044564070952,46.83628452182471,40
2639.65,88.4352,88.32802544997509,80.82370715101209,83.59377550707296,44.734249942902125,47.504318298963,40
2733.4,88.1854,88.32985750732246,81.10825962389045,83.6790646970561,44.65079281026635,47.22159788343201,40
2827.15,88.1286,88.34562306957646,81.17061926794099,83.77131479519615,44.574308274380314,47.17500380163547,40
2926.76,87.6098,88.05548780785924,80.96095474731618,83.55040068265951,44.50508712519972,47.09453306054306,40
3032.23,87.779,87.75928302364478,80.74114936316023,83.43164413635482,44.327638887289964,47.01813366048455,40
3137.7,88.1938,87.88397726700698,81.01125957164197,83.62465122533757,44.25932604166941,46.87271769536501,40
3249.02,88.4663,87.70742507718838,81.04596182102696,83.54257320843077,44.16485186875761,46.66146325616141,40
3363.28,87.9178,87.20306453518324,80.80711413227841,83.34382366074001,43.85924087444323,46.39595040290483,40
3483.4,87.91550000000001,87.08640478318847,80.92142968454831,83.71504120370082,43.37136357948765,46.164975098640156,40
3606.45,86.9223,86.59242561724004,80.6843149574235,83.52377895484864,43.0686466623914,45.90811065981654,40
3732.42,86.4892,86.21939307807585,80.34793006620859,83.19285579187276,43.026537286203094,45.87146301186726,40
3864.26,87.1435,86.683760642325,80.49002649141823,83.35466436143798,43.329096280887015,46.193734150906764,40
3999.02,87.8247,87.09164996668929,80.47515057414637,83.4788288229984,43.612821143690894,46.61649939254292,40
4139.65,87.94839999999999,86.93322057490474,80.41413609919351,83.32894282220892,43.60427775269582,46.519084475711225,40
4286.13,88.5934,87.55045761350164,80.73172386504592,83.81679324758102,43.73366436592062,46.81873374845571,40
4438.48,88.8858,87.75275254591241,80.96396390710684,84.16264482548017,43.59010772043224,46.78878863880557,40
4593.75,89.2392,87.95251667684796,80.94806355594264,84.4878785934882,43.46463808335976,47.004453120905325,40
4757.81,89.2226,88.03886065356804,80.8505315417323,84.50197914740055,43.53688150616749,47.18832911183574,40
4924.8,89.2914,88.18937655286237,80.97001248999563,84.41472250863929,43.774654044223084,47.219364062866745,40
5097.66,88.37040000000002,87.35368740678663,80.5072677743246,83.73282963435346,43.62085777243317,46.84641963246203,40
5279.3,86.8953,86.35275242509636,79.98419889883564,83.29679592013142,43.05595650496494,46.36855352626071,40
5463.87,87.4083,86.39541644055922,79.92446150771462,83.43848926883682,42.9569271717224,46.47095493284459,40
5657.23,86.5829,85.79249712068165,79.48598201533753,82.9214216346615,42.871075486020146,46.30651510534412,40
5856.45,85.5075,85.82385143222695,79.71414452108195,83.00190945781472,42.821941974412226,46.109706911145,40
6061.52,86.5861,86.19634057701313,79.86038746370072,83.23663110999755,42.959709467015585,46.335953113312414,40
6275.39,86.9072,86.56325370015894,80.1374052558741,83.63532046768573,42.92793323247321,46.42584844428484,40
6498.05,87.3788,86.69951969231197,80.04449841021786,83.67540462610881,43.02411506620315,46.65502128209411,40
6726.56,87.6432,86.94165900527574,79.88739048260248,83.56927264089376,43.37238636438198,47.054268522673254,40
6963.87,87.62630000000001,86.89045284091821,79.90367479919027,83.6270157043848,43.26343713653341,46.986778041727945,40
7209.96,87.1811,86.57803739137591,79.6851317617426,83.46431442507824,43.11372296629767,46.89290562963332,40
7464.84,86.8424,86.35338977749473,79.46045701451442,83.24415082604853,43.1092389514462,46.89293276298031,40
7728.52,87.06800000000001,86.52462294717668,79.42271647071696,83.30719432158295,43.217428625593726,47.10190647645972,40
8000.98,87.6585,87.15137894900808,79.86338118828353,83.7636370965258,43.38774185248228,47.28799776072455,40
8282.23,88.08430000000001,87.49416239252585,79.86405255977617,83.85715003005214,43.63701236247371,47.63010983274968,40
8575.2,88.0788,87.73947531509484,79.91353529869609,84.02841061473197,43.71106470036287,47.82594001639875,40
8876.95,88.2157,87.55065484645571,79.77234487149039,83.83666305046854,43.71399179598717,47.778309974965325,40
9190.43,87.7674,87.32420118147485,79.54722329359717,83.59363417693692,43.73056700453793,47.77697788787768,40
9512.7,87.6279,87.25759008737188,79.5151540808464,83.68784369654355,43.56974639082833,47.74243600652548,40
9849.61,87.76259999999999,87.39252100034862,79.46283678287287,83.71430123193437,43.67821976841425,47.92968421747575,40
10195.3,88.1656,87.66499223388655,79.4869334810215,83.69564035431472,43.96935187957183,48.178058752865056,40
10555.7,88.5156,87.80897991474885,79.54976697821525,83.90242228162745,43.906557633121395,48.2592129365336,40
10927.7,88.4287,87.68690322647483,79.36497607979501,83.76575614023945,43.92114708623538,48.32192714667981,40
11314.5,88.2167,87.40271340987164,79.20249537177271,83.60384487617775,43.79886853369389,48.200218038098924,40
11712.9,87.445,86.83433295396678,79.02428184451608,83.35091221795263,43.48342073601415,47.8100511094507,40
12126.0,87.2767,86.68897390294457,79.08949124320742,83.34462420865607,43.344349694288496,47.59948265973715,40
12553.7,86.73599999999999,86.38140213158349,79.04596634458103,83.13752272526321,43.243879406320275,47.33543578700245,40
12996.1,86.47210000000001,86.07227404674379,78.99607488089035,82.98865894187335,43.08361510487043,47.07619916585344,40
13453.1,86.0417,85.8643427130455,78.84372023257242,82.69001388510362,43.17432882794188,47.02062248047308,40
13927.7,85.61179999999999,85.57256686785678,78.70140172032781,82.43423127181882,43.13833559603796,46.87116514752897,40
14419.9,85.44479999999999,85.27954931982248,78.42737097212616,82.1801766880167,43.09937263180578,46.852178347696324,40
14929.7,85.5814,85.42033907175843,78.41671583265082,82.09390472874095,43.32643434301748,47.00362323910761,40
15454.1,86.1698,85.89173737245976,78.57662229639335,82.38194454079921,43.50979283166055,47.315115076066405,40
15999.0,86.3645,86.05509922606974,78.52808015983645,82.3678369967585,43.687262229311244,47.527019066233294,40
16564.5,86.451,85.95463644300708,77.94285693556498,82.0425949379325,43.91204150507457,48.0117795074421,40
17147.5,86.9474,86.376302415878,78.04221332769625,82.20662285783033,44.169679558047676,48.334089088181756,40
17753.9,87.4218,86.7874500816365,77.94911739732105,82.27860366366288,44.50884641797363,48.83833268431546,40
18377.9,87.3699,86.62149993514979,77.43875254047683,81.90328545565104,44.71821447949874,49.18274739467296,40
19028.3,87.3966,86.54724827100452,76.92865129696955,81.55153703814453,44.99571123285999,49.61859697403497,40
