Freq "Listening Window"
20.5078 64.18141866063058
23.4375 66.4688010076909
26.3672 68.3222723631785
29.2969 69.88376908686911
32.2266 71.44764390613642
35.1563 72.81214737850814
38.0859 74.1079204938501
41.0156 75.22552781273457
43.9453 76.43775348870969
46.875 77.55363130103322
49.8047 78.51719491096101
52.7344 79.48653355945893
55.6641 80.36173769380866
58.5938 81.27340176523305
61.5234 82.02473697088706
64.4531 82.82161008655105
67.3828 83.52156960903426
70.3125 84.10790520765087
73.2422 84.74176691754181
76.1719 85.33072722916084
79.1016 85.77357645073207
82.0313 86.303090585722
84.9609 86.71983577136156
87.8906 86.95491856493729
90.8203 87.17070361768971
93.75 87.6421141025371
96.6797 87.7641006897405
102.539 88.09530225108507
105.469 88.22605935373605
108.398 88.39682212174765
111.328 88.53396165854713
117.188 88.70802247185878
120.117 88.7562754314732
125.977 88.70381156354118
128.906 88.68768324424751
134.766 88.46302007779978
137.695 88.40687442363603
143.555 88.38468533252968
149.414 88.34190254802499
155.273 88.3741499226494
158.203 88.41653478545511
164.063 88.66054414188189
169.922 88.25066155744614
175.781 88.083706108691
181.641 88.10725061131147
190.43 88.17116511095031
196.289 88.10173169522842
202.148 88.18496894876085
210.938 88.23867371219035
216.797 88.06079903380152
225.586 88.4485069299926
234.375 88.54873586722792
240.234 88.31004286943306
249.023 88.54513329190084
257.813 88.67689505386276
266.602 88.22289386775681
278.32 88.3359206731125
287.109 88.49938017817587
295.898 88.6615629692811
307.617 88.2686899744723
319.336 89.49938060742322
331.055 89.37482551083102
342.773 88.61751180711049
354.492 89.11538428067891
366.211 89.1713967048749
377.93 89.29401879742184
392.578 88.21370533372105
407.227 88.02734564633458
421.875 88.03370586460925
436.523 88.04246468288757
451.172 88.4229595604319
465.82 87.95624189083857
483.398 88.0232647123235
500.977 87.02753849345254
518.555 86.71351759441157
536.133 87.38595967747486
553.711 87.71251828509347
574.219 87.04348718928648
594.727 87.33651199864028
615.234 87.32382076973342
638.672 86.87515016964157
659.18 86.3317651139756
682.617 87.45255125882625
706.055 87.43860464280965
732.422 87.02355841869596
758.789 87.9521769785805
785.156 86.50257231642784
811.523 86.69896748239137
840.82 86.89837755428955
870.117 86.89613775330189
902.344 87.09703216655252
931.641 87.29130078053119
966.797 87.44550336215308
999.023 87.44446430902599
1034.18 87.81656555848241
1072.27 87.80322036196276
1110.35 87.58165303330642
1148.44 88.16619897761797
1189.45 88.50916007772919
1230.47 88.55252398524351
1274.41 88.26630713106302
1318.36 87.91115828246166
1365.23 87.46622829761544
1415.04 87.48943175371598
1464.84 87.66084623309257
1514.65 87.8833848727869
1570.31 87.938663475808
1623.05 87.65473037807719
1681.64 87.3007649711439
1740.23 87.27684881635355
1801.76 87.55014712600017
1866.21 87.0404038110018
1930.66 86.59920862739642
2000.98 87.39627615051515
2071.29 88.56521546415601
2144.53 88.53732681858479
2217.77 88.30844156574832
2296.88 89.42048725494881
2378.91 90.39651278827293
2460.94 90.37531021110898
2548.83 89.45303538682383
2639.65 88.32802544997509
2733.4 88.32985750732246
2827.15 88.34562306957646
2926.76 88.05548780785924
3032.23 87.75928302364478
3137.7 87.88397726700698
3249.02 87.70742507718838
3363.28 87.20306453518324
3483.4 87.08640478318847
3606.45 86.59242561724004
3732.42 86.21939307807585
3864.26 86.683760642325
3999.02 87.09164996668929
4139.65 86.93322057490474
4286.13 87.55045761350164
4438.48 87.75275254591241
4593.75 87.95251667684796
4757.81 88.03886065356804
4924.8 88.18937655286237
5097.66 87.35368740678663
5279.3 86.35275242509636
5463.87 86.39541644055922
5657.23 85.79249712068165
5856.45 85.82385143222695
6061.52 86.19634057701313
6275.39 86.56325370015894
6498.05 86.69951969231197
6726.56 86.94165900527574
6963.87 86.89045284091821
7209.96 86.57803739137591
7464.84 86.35338977749473
7728.52 86.52462294717668
8000.98 87.15137894900808
8282.23 87.49416239252585
8575.2 87.73947531509484
8876.95 87.55065484645571
9190.43 87.32420118147485
9512.7 87.25759008737188
9849.61 87.39252100034862
10195.3 87.66499223388655
10555.7 87.80897991474885
10927.7 87.68690322647483
11314.5 87.40271340987164
11712.9 86.83433295396678
12126.0 86.68897390294457
12553.7 86.38140213158349
12996.1 86.07227404674379
13453.1 85.8643427130455
13927.7 85.57256686785678
14419.9 85.27954931982248
14929.7 85.42033907175843
15454.1 85.89173737245976
15999.0 86.05509922606974
16564.5 85.95463644300708
17147.5 86.376302415878
17753.9 86.7874500816365
18377.9 86.62149993514979
19028.3 86.54724827100452
19699.2 86.67631862325014
19998.0 86.61280280679622
