Freq "On Axis"
20.5078 64.19270000000002
23.4375 66.48119999999999
26.3672 68.3346
29.2969 69.8975
32.2266 71.462
35.1563 72.8274
38.0859 74.12489999999998
41.0156 75.2427
43.9453 76.45789999999998
46.875 77.5776
49.8047 78.5408
52.7344 79.5123
55.6641 80.38860000000001
58.5938 81.3017
61.5234 82.0575
64.4531 82.8573
67.3828 83.5602
70.3125 84.1457
73.2422 84.7843
76.1719 85.3748
79.1016 85.8212
82.0313 86.3568
84.9609 86.778
87.8906 87.01110000000001
90.8203 87.2276
93.75 87.712
96.6797 87.8354
102.539 88.1751
105.469 88.3098
108.398 88.48469999999999
111.328 88.62600000000002
117.188 88.8086
120.117 88.8609
125.977 88.8186
128.906 88.8071
134.766 88.5889
137.695 88.53870000000002
143.555 88.5294
149.414 88.4985
155.273 88.5425
158.203 88.5887
164.063 88.842
169.922 88.4363
175.781 88.2842
181.641 88.32200000000002
190.43 88.40139999999998
196.289 88.3419
202.148 88.4389
210.938 88.5014
216.797 88.3285
225.586 88.745
234.375 88.8474
240.234 88.6232
249.023 88.878
257.813 89.0054
266.602 88.5742
278.32 88.7041
287.109 88.8905
295.898 89.0807
307.617 88.7341
319.336 90.00760000000001
331.055 89.8379
342.773 89.11980000000001
354.492 89.6262
366.211 89.71899999999998
377.93 89.8309
392.578 88.7786
407.227 88.6365
421.875 88.69270000000002
436.523 88.7238
451.172 89.1366
465.82 88.6717
483.398 88.805
500.977 87.8596
518.555 87.6105
536.133 88.3799
553.711 88.7146
574.219 88.10980000000002
594.727 88.40080000000002
615.234 88.4029
638.672 88.004
659.18 87.5137
682.617 88.6664
706.055 88.7141
732.422 88.22499999999998
758.789 89.1784
785.156 87.5661
811.523 87.5588
840.82 87.7859
870.117 87.6122
902.344 87.635
931.641 87.6835
966.797 87.601
999.023 87.33750000000002
1034.18 87.9018
1072.27 87.7235
1110.35 87.3824
1148.44 88.4019
1189.45 88.9638
1230.47 89.1973
1274.41 88.9708
1318.36 88.9572
1365.23 88.93909999999998
1415.04 89.14369999999998
1464.84 89.5002
1514.65 89.74989999999998
1570.31 89.90569999999998
1623.05 89.6054
1681.64 89.2334
1740.23 89.128
1801.76 89.09759999999999
1866.21 88.09140000000001
1930.66 87.277
2000.98 87.65149999999998
2071.29 88.7582
2144.53 88.3901
2217.77 88.31409999999998
2296.88 89.5748
2378.91 90.6876
2460.94 90.5169
2548.83 89.51960000000001
2639.65 88.4352
2733.4 88.1854
2827.15 88.12860000000002
2926.76 87.6098
3032.23 87.779
3137.7 88.1938
3249.02 88.4663
3363.28 87.9178
3483.4 87.9155
3606.45 86.9223
3732.42 86.4892
3864.26 87.1435
3999.02 87.8247
4139.65 87.9484
4286.13 88.5934
4438.48 88.8858
4593.75 89.2392
4757.81 89.2226
4924.8 89.2914
5097.66 88.3704
5279.3 86.8953
5463.87 87.4083
5657.23 86.5829
5856.45 85.5075
6061.52 86.5861
6275.39 86.9072
6498.05 87.3788
6726.56 87.6432
6963.87 87.6263
7209.96 87.1811
7464.84 86.8424
7728.52 87.068
8000.98 87.65850000000002
8282.23 88.0843
8575.2 88.0788
8876.95 88.2157
9190.43 87.7674
9512.7 87.6279
9849.61 87.7626
10195.3 88.1656
10555.7 88.51559999999999
10927.7 88.4287
11314.5 88.2167
11712.9 87.445
12126.0 87.2767
12553.7 86.736
12996.1 86.4721
13453.1 86.0417
13927.7 85.6118
14419.9 85.4448
14929.7 85.5814
15454.1 86.1698
15999.0 86.3645
16564.5 86.45100000000001
17147.5 86.9474
17753.9 87.4218
18377.9 87.36989999999999
19028.3 87.39660000000002
19699.2 87.5666
19998.0 87.3935
