Freq,Floor Bounce,Ceiling Bounce,Front Wall Bounce,Side Wall Bounce,Rear Wall Bounce,Total Early Reflection
22.4,8.074493510304379,8.968450838054324,8.616729713730237,8.607020930676853,7.588236887257281,8.39751435505336
23.0,9.074493510304379,9.968450838054295,9.616729713730209,9.607020930676825,8.58823688725731,9.397514355053389
23.6,9.940441679454906,10.835130591779844,10.501973457541126,10.50702093067683,9.478090849399322,10.27882444774194
24.0,10.705318067664692,11.568450838054346,11.231777962183415,11.236357575896747,10.217909751506383,11.0175032594817
25.0,11.440441679454906,12.335130591779816,11.973641593690488,11.96729331136477,10.949884858092204,11.759825089714312
25.8,13.174493510304373,14.035130591779804,13.716729713730203,13.70702093067682,12.688236887257304,13.489936509724245
26.5,14.940441679454906,15.835130591779844,15.488156740582,15.477473858901035,14.46251065097782,15.267110434425021
27.2,16.37449351030439,17.23513059177985,16.91672971373022,16.907020930676836,15.888236887257321,16.689936509724262
28.0,17.605318067664697,18.468450838054324,18.131777962183392,18.126080072942685,17.112725044397635,17.914480969679673
29.0,18.740441679454918,19.603069571042496,19.245774922195395,19.23635757589669,18.222217492797412,19.035583960715698
30.0,19.70531806766469,20.568450838054318,20.231777962183386,20.23635757589672,19.213497242297805,20.01676946853057
30.7,21.140441679454923,22.035130591779833,21.701973457541087,21.707020930676848,20.682242676890652,21.47951527426345
31.5,22.940441679454906,23.835130591779816,23.516729713730214,23.50702093067683,22.478090849399322,23.281935473052116
32.5,24.37449351030439,25.268450838054306,24.91672971373022,24.907020930676836,23.893823556257658,24.698442227244428
33.5,25.57449351030438,26.468450838054324,26.11672971373021,26.107020930676825,25.093823556257647,25.898442227244445
34.5,26.640441679454923,27.535130591779804,27.173641593690505,27.167293311364787,26.14988485809222,26.95982508971433
35.5,27.70531806766469,28.568450838054318,28.231777962183386,28.23635757589672,27.213497242297777,28.016769468530597
36.5,29.07449351030438,29.93513059177981,29.61672971373021,29.607020930676825,28.58823688725731,29.38993650972425
37.5,30.174493510304373,31.068450838054318,30.716729713730203,30.70702093067682,29.69382355625764,30.49844222724444
38.7,31.140441679454895,32.00306957104253,31.659409827879827,31.65732139187473,30.639027800586447,31.44563403864386
40.0,31.940441679454906,32.80306957104251,32.44577492219541,32.43635757589671,31.42221749279743,32.23558396071569
41.2,33.04044167945493,33.93513059177984,33.588156740581994,33.59643237264088,32.571652585388776,33.37261630442002
42.5,34.34044167945491,35.23513059177982,34.901973457541104,34.87747385890104,33.87373909399055,34.671888386913636
43.7,35.34044167945491,36.23513059177982,35.91672971373019,35.90702093067681,34.88823688725732,35.683623444169214
45.0,36.24044167945492,37.13513059177983,36.7736415936905,36.76729331136478,35.75436244072016,36.56056856460468
46.2,37.20531806766469,38.06845083805432,37.731777962183386,37.72608007294268,36.71272504439763,37.51448096967964
47.5,38.37449351030439,39.23513059177985,38.91672971373022,38.907020930676836,37.88823688725729,38.68993650972426
48.7,39.34044167945491,40.23513059177982,39.91672971373022,39.907020930676836,38.8780908493993,39.68193547305212
50.0,40.27449351030437,41.13513059177983,40.8167297137302,40.80702093067681,39.7882368872573,40.58993650972424
51.5,41.440441679454906,42.335130591779816,41.97364159369049,41.95660732901568,40.928295067835236,41.75400776180577
53.0,42.6053180676647,43.46845083805432,43.13177796218339,43.126080072942685,42.11790975150639,42.91534354050022
54.5,43.640441679454895,44.53513059177983,44.2167297137302,44.19643237264084,43.188236887257304,43.981396093442086
56.0,45.0404416794549,45.93513059177984,45.61672971373021,45.59643237264085,44.58823688725731,45.38139609344209
58.0,46.77449351030437,47.66845083805431,47.33177796218338,47.32608007294267,46.30311107127456,47.10715692371453
60.0,48.27449351030437,49.16845083805434,48.816729713730226,48.80702093067684,47.7882368872573,48.59751435505338
61.5,49.67449351030437,50.56845083805432,50.2167297137302,50.21601296222316,49.188236887257275,49.9994031886943
63.0,51.0404416794549,51.93513059177984,51.61672971373021,51.59643237264088,50.58823688725731,51.38139609344209
65.0,52.27449351030437,53.16845083805434,52.816729713730226,52.816012962223155,51.7882368872573,52.599403188694325
67.0,53.74044167945492,54.60306957104251,54.259409827879836,54.25732139187474,53.23902780058647,54.045634038643854
69.0,55.14044167945491,56.03513059177982,55.701973457541115,55.70702093067682,54.6780908493993,55.47882444774193
71.0,56.540441679454915,57.40306957104252,57.045774922195406,57.036357575896716,56.02221749279741,56.83558396071571
73.0,58.040441679454915,58.935130591779824,58.61672971373021,58.59643237264086,57.58823688725731,58.38139609344208
75.0,59.440441679454906,60.33513059177983,60.016729713730214,59.99643237264087,58.988236887257315,59.78139609344208
77.5,60.74044167945492,61.63513059177984,61.30197345754111,61.30702093067683,60.278090849399305,61.07882444774192
80.0,61.94044167945492,62.83513059177983,62.501973457541126,62.507020930676845,61.47809084939932,62.27882444774194
82.5,63.3053180676647,64.16845083805433,63.81672971373021,63.81601296222314,62.79903086401964,63.60693075967863
85.0,64.8053180676647,65.66845083805433,65.3317779621834,65.32608007294269,64.30830726160697,65.1137466678567
87.5,66.14044167945491,67.00306957104252,66.64577492219541,66.63635757589671,65.62788968062533,66.43652515771088
90.0,67.3053180676647,68.16845083805433,67.8317779621834,67.83635757589671,66.81780936038157,67.6174865577393
92.5,68.3053180676647,69.16845083805433,68.81672971373021,68.82608007294267,67.80423193555607,68.60990907174555
95.0,69.07449351030438,69.96845083805432,69.61672971373021,69.60702093067682,68.58823688725731,69.39751435505336
97.5,69.97449351030438,70.83513059177984,70.51672971373021,70.50702093067683,69.4882368872573,70.28993650972424
100.0,70.97449351030438,71.83513059177983,71.51672971373021,71.47636788972117,70.46304435170546,71.27932432645963
103.0,71.77449351030438,72.56845083805432,72.30197345754112,72.24526377402253,71.23219465406255,72.04948842830629
106.0,72.50531806766472,73.23513059177982,73.03077517867511,72.92519521204497,71.92929257494178,72.74927014728614
109.0,73.43964531976,74.03358982687998,73.91671462166477,73.74484395300804,72.76894788733662,73.60359874796507
112.0,74.20531806766472,74.70076749445563,74.64574459001024,74.4144423261523,73.4667016322075,74.30875034809334
115.0,74.7053180676647,75.1669218511605,75.14574459001024,74.89398368065018,73.95181713279761,74.79471723066122
118.0,75.17150800786938,75.6,75.61767538260806,75.27343912150752,74.34513366525925,75.22534480700624
122.0,75.57150800786938,75.9,76.00292234468206,75.61327836544564,74.69890221516259,75.58074743977454
125.0,75.97150800786939,76.23358982687996,76.30292234468207,75.91327836544563,75.03303919362168,75.91366458312352
128.0,76.17150800786938,76.43358982687998,76.53108675663174,76.11350792510002,75.21652932397771,76.11719932108137
132.0,76.43821129888742,76.63358982687997,76.74574459001023,76.2930557365903,75.4204800979317,76.33058671203158
136.0,76.63821129888743,76.8,76.93237847390093,76.47430881277803,75.58876885766826,76.51159921416478
140.0,76.77001488257476,76.93358982687997,77.04574459001023,76.57430881277804,75.72070813333791,76.63345788346197
145.0,76.93821129888744,77.03358982687998,77.16069280962286,76.68470941720258,75.84186639386276,76.75636876902045
150.0,76.97001488257477,77.03358982687998,77.24574459001023,76.73543390078717,75.86852147353174,76.79606732585916
155.0,77.07001488257475,77.06769521305294,77.26069280962285,76.7968689128927,75.91223597090756,76.84668441067275
160.0,77.07001488257475,77.03358982687998,77.31964914887527,76.78719044672624,75.9069234825247,76.84982550666177
165.0,77.10542400732662,77.00076749445562,77.31964914887527,76.76730985463635,75.89164292484766,76.84411437511447
170.0,77.07001488257475,76.93513059177984,77.29044363353323,76.72630966051419,75.82284430005741,76.7973898043203
175.0,77.03746771551315,76.83513059177983,77.24839491540854,76.63799438832795,75.7432851169908,76.73038777685986
180.0,76.97314211136084,76.73513059177982,77.2052390505273,76.55968062382506,75.67042247625139,76.65946672983117
185.0,76.93746771551315,76.67001488257476,77.17788361157317,76.50035272125504,75.60117575422204,76.60974953697915
190.0,76.87314211136083,76.57001488257477,77.14968149573671,76.40339626875314,75.51652159505153,76.53692384564633
195.0,76.80542400732661,76.47001488257477,77.06461619409998,76.31349263395057,75.41567880433233,76.44918123069691
200.0,76.77314211136083,76.37001488257475,77.04968149573673,76.21742664377854,75.31991088282403,76.38507594503774
206.0,76.67314211136085,76.23821129888744,76.96461619409997,76.08991312006641,75.20514955228113,76.27465093416585
212.0,76.57314211136084,76.1069050103546,76.86461619409997,75.95420321263818,75.07823428756437,76.15741867228272
218.0,76.57314211136084,76.04283030471974,76.80684500366415,75.88724788227294,74.99899332679232,76.10610539783521
224.0,76.50542400732661,75.94283030471972,76.75000634017073,75.77166332845229,74.88833223286574,76.0188882719568
230.0,76.43746771551314,75.84283030471975,76.65000634017072,75.64536413754993,74.77643906844312,75.9192985106003
236.0,76.33746771551314,75.7122717831562,76.59170996321622,75.5053223593201,74.67656092005441,75.81576414733233
240.0,76.23746771551315,75.57928732607432,76.49170996321622,75.36046884064403,74.55558004328192,75.69778074307831
250.0,76.17314211136083,75.4489851487955,76.39170996321623,75.243435318567,74.43915886168901,75.59434891673395
258.0,76.10542400732662,75.31227178315618,76.30489499373621,75.11542932881393,74.3074996834347,75.48786544106974
265.0,75.93746771551315,75.11916705502753,76.17686830489173,74.94570511349195,74.14983294828825,75.32601734186791
272.0,75.80542400732661,74.98219967332305,76.0477056434894,74.78691668968068,73.99783578911739,75.1858063929991
280.0,75.70542400732661,74.81916705502753,75.93305443852486,74.64570511349196,73.84113444548434,75.0541276863252
290.0,75.60542400732662,74.68982856673473,75.83142096048346,74.4954922265731,73.6649956119821,74.92760187614022
300.0,75.47387961222817,74.55260953202217,75.7755820490264,74.41557449842759,73.47961772404996,74.81515157528365
307.0,75.4100779978029,74.48982856673473,75.6891238393078,74.28924280703949,73.32581618234083,74.7213771565015
315.0,75.31007799780294,74.38982856673472,75.6606850775983,74.23990283565351,73.16105863685699,74.63927674257796
325.0,75.24680983520815,74.38982856673472,75.6606850775983,74.2463199026902,73.03086829446808,74.60742035565087
335.0,75.34680983520815,74.51916705502754,75.74673616653826,74.34679833507717,72.95729029790856,74.68583378212195
345.0,75.45380974359446,74.65260953202217,75.9320816850907,74.49419469311134,72.89503190209805,74.80332048985771
355.0,75.58407839372549,74.88219967332304,76.13208168509068,74.69430077323686,72.91100987917936,74.96965330093126
365.0,75.75380974359446,75.08219967332305,76.32031166670869,74.92569849001745,72.86996045194626,75.1362255761664
375.0,75.8840783937255,75.31227178315618,76.52031166670868,75.09857633795392,72.79699510586319,75.28943407175
387.0,75.98407839372551,75.4122717831562,76.67949971036133,75.2309277471312,72.61715589807996,75.3809313147144
400.0,75.98407839372551,75.54283030471974,76.77949971036134,75.30958820512288,72.3782949173197,75.42542395281009
412.0,76.02188682922211,75.54283030471974,76.83924275721992,75.33905501614406,72.12856978776053,75.43218348618048
425.0,75.91483523633478,75.47387961222817,76.78693201565365,75.26967443555303,71.75568609955029,75.33151595716585
437.0,75.88335937246298,75.4100779978029,76.80308599501338,75.2179384714864,71.42097212656338,75.27701635650413
450.0,75.7778308059457,75.27783080594571,76.737107409413,75.06755552466937,71.04468647707262,75.14680819531824
462.0,75.64136150423586,75.04680983520814,76.63710740941298,74.88717126368059,70.69270304134322,74.97656017192473
475.0,75.57314211136085,74.82188682922212,76.51174342066908,74.6985308683905,70.36349304689155,74.81730551016106
487.0,75.50542400732662,74.66023818113064,76.46927049179469,74.5197131097285,70.09420616717948,74.70273912904784
500.0,75.53746771551316,74.49913536951438,76.40983995672973,74.42265264459759,69.93637246285564,74.63171458231164
515.0,75.53746771551316,74.48064061661162,76.41681407381205,74.35281969745859,69.8551312338108,74.61152580486703
530.0,75.70542400732661,74.4656326896099,76.45507404400992,74.34151720434936,69.88502195350064,74.66223589816457
545.0,75.84283030471973,74.58042420054254,76.5352299986975,74.39850004479634,69.95726824216794,74.75884353029359
560.0,76.04898514879551,74.77106876148261,76.70260873947332,74.54078355549241,70.1346817328297,74.93674482770096
580.0,76.08982856673471,74.9775795046071,76.76009724486703,74.65811398470562,70.22215614897443,75.03195615828119
600.0,76.17082970284298,75.20982855556757,76.8478436944517,74.82013797595576,70.29705749739611,75.15971886859487
615.0,76.19506458035829,75.44258273663016,76.93786407071828,75.00472252636177,70.3533652214672,75.2780137443349
630.0,76.18382334167593,75.60034112939827,76.99724679194588,75.14364577282531,70.33326362081415,75.35074659538061
650.0,76.0672655885961,75.81753803239934,77.05412465712973,75.24947083469884,70.23556659879429,75.40084110540289
670.0,75.84258273663015,75.80261155895364,77.0536774985323,75.26491967610589,69.95067352533646,75.33203108253076
690.0,75.65295536787778,75.77717895989804,77.084556045663,75.29121644193101,69.6694910938598,75.28299939283157
710.0,75.37757950460713,75.66668552790021,76.97475685405688,75.16171981255992,69.30815172921068,75.11998014124642
730.0,75.2026335053877,75.48982856673473,76.93923742572728,75.01739591834576,68.97392983762754,74.98584457299052
750.0,75.05405093453075,75.24898514879551,76.901056133051,74.82415298779513,68.62056533431208,74.8328481896399
775.0,74.88042420054254,74.94898514879551,76.82678321678037,74.60074260522168,68.28856849567208,74.64682841899564
800.0,74.66563268960988,74.61627940083642,76.64377807053229,74.27356324602322,67.96786547859466,74.3906435660873
825.0,74.56563268960988,74.39471929119205,76.57613547291989,74.03223241044284,67.79817736559083,74.24585037257762
850.0,74.4656326896099,74.11627783177748,76.46886002892323,73.7390085986552,67.6395669808027,74.06786190224112
875.0,74.33855083142048,73.80265450340339,76.32213466290857,73.40609066732978,67.41425816594172,73.8544913741131
900.0,74.21192126753355,73.53469773360898,76.22148749867755,73.0737045009011,67.22705248370754,73.67022035896345
925.0,74.08573915648971,73.37269145322595,76.16327178437938,72.77730649513414,67.00406029301577,73.52830242631866
950.0,74.02812233674837,73.3165581917717,76.15581020445126,72.50979061093686,66.77218426584604,73.4473379700296
975.0,74.1026335053877,73.38759923684219,76.30259417939543,72.36450106756163,66.63535369042803,73.50492277212658
1000.0,74.24583147157398,73.51394942912606,76.4908387153714,72.27021298498485,66.43564675188107,73.61284564542143
1030.0,74.39664781293231,73.61115315731634,76.60529659444649,72.17091631525317,66.078257888502,73.68442272687092
1060.0,74.49664781293232,73.64053501177823,76.5904306262543,71.97783524477995,65.47292896176093,73.66191759261521
1090.0,74.47269145322595,73.44053501177822,76.4629587429992,71.65045852283352,64.6855798160427,73.50029552777177
1120.0,74.37269145322595,73.24053501177822,76.23231852119189,71.3029985061003,63.907147407953985,73.28030945218926
1150.0,74.29664781293232,73.00174601124772,76.07791888363577,71.03058053409269,63.18574912109082,73.1025696646577
1180.0,74.20263350538771,72.78444762363009,75.9352325238688,70.79893728547225,62.45778485641159,72.93615863952594
1220.0,74.25405093453075,72.6493489016972,75.8896058926818,70.64860747493822,61.86068172098534,72.87775653170681
1250.0,74.39723682439924,72.58256065499535,75.92377501566823,70.59338856701115,61.45103786844986,72.9060306764486
1280.0,74.65237641506431,72.53557346045842,76.01310740089757,70.6317925882578,61.183421322684666,73.00723586093703
1320.0,74.97244826645844,72.56893616304386,76.10752616348627,70.65132504058592,60.93061315128236,73.1452364423961
1360.0,75.23331023801674,72.50432912249856,76.17829351497114,70.5828367088814,60.63879103800927,73.23220748961461
1400.0,75.39471929119203,72.47277674488686,76.15247246804478,70.48797189090858,60.33767969552112,73.25542145425185
1450.0,75.43752777300028,72.4527499421436,76.03817104735394,70.30302764764491,59.884376102831396,73.19828365962883
1500.0,75.44898359150842,72.45131759580826,75.91191918762846,70.09237110091753,59.35648042444298,73.12770545885398
1550.0,75.3950645803583,72.43209919948374,75.76902727174415,69.8785151611142,58.85354193688262,73.02686394777025
1600.0,75.47641629732153,72.58230649956842,75.82951858637777,69.87179101277974,58.62925323323728,73.1017854087555
1650.0,75.57641629732153,72.73308937677078,75.91514125231687,69.93329154179696,58.47526434039635,73.20006409741491
1700.0,75.67641629732151,72.95648313414827,76.04925892617767,70.03137093259963,58.41822620625912,73.3339920782915
1750.0,75.7599996174499,73.12990957385144,76.19112329620431,70.12400316383115,58.397898518397014,73.45616059614042
1800.0,75.73469773360898,73.20473949550546,76.26720989133732,70.20070410650912,58.314532649357105,73.49688284218767
1850.0,75.40982855556756,73.05906263657509,76.16720989133732,70.05522814510736,58.07154255681566,73.30904069572014
1900.0,74.82875610128315,72.5809849055068,75.8146810239242,69.72079158354906,57.58074905251928,72.86077037371368
1950.0,74.04915203998831,71.88098490550679,75.23865380073828,69.11029450809865,56.86730902972127,72.19417456836808
2000.0,73.77100612011482,71.6033038382893,75.22873310536484,69.02837351588714,56.6944344323402,72.04605644386154
2060.0,74.27100612011482,72.00330383828928,75.91468102392419,69.61514561618237,57.13683035164867,72.61513618112977
2120.0,74.39389595883674,72.02643297742509,76.22873310536484,69.82054051415983,57.23131216048567,72.81200473784614
2180.0,74.00791075563451,71.45906263657508,76.02669989043544,69.4879958895492,56.78326913286834,72.4835799424874
2240.0,73.48573603864206,70.80473949550549,75.59885845192763,68.98714949688019,56.23071775105795,71.98588256063853
2300.0,72.98573603864206,70.10473949550548,75.08861284031575,68.45679308510411,55.65824531034933,71.44781423767768
2360.0,72.84090753602631,69.85906263657509,74.88861284031573,68.31939598246832,55.5220281782084,71.26361115568291
2400.0,73.1171947443536,69.95906263657508,75.10242810861314,68.55990105360006,55.73864875127893,71.48199365762846
2500.0,73.34915203998831,70.05906263657509,75.25359492085694,68.7730456971805,55.9236054055592,71.65625183076457
2580.0,73.29389595883674,69.79220047151571,75.15359492085693,68.61231330227383,55.660248419364535,71.539772037011
2650.0,73.04852015458806,69.1922004715157,74.75359492085694,68.19668940823786,55.06749905265406,71.15817658857735
2720.0,73.10473949550547,68.93753193576904,74.73558747477176,68.05904136873947,54.77667718997864,71.12073538507707
2800.0,73.72990957385143,69.1922004715157,75.23558747477175,68.4584810418062,54.952928165761406,71.62071225673809
2900.0,74.25648313414827,69.33753193576905,75.62187745354173,68.70060432909537,54.940087104444046,72.01120890839034
3000.0,74.18444762363009,68.93753193576904,75.57572322400237,68.39641493955567,54.34227639895181,71.89368475648665
3070.0,74.0137899675559,68.40473949550548,75.31152600729476,67.95817983144964,53.59185299657385,71.61828059706365
3150.0,73.93308937677077,68.20473949550546,75.27107058980359,67.73393729272888,53.248149933856595,71.5323128328735
3250.0,73.97277674488687,68.22643297742508,75.31994398169068,67.60838959519957,53.11866432534488,71.56065107118181
3350.0,73.71394942912606,68.10330383828928,75.10087354320453,67.30189805366932,52.89316683005164,71.32978944518214
