Freq "Floor Bounce"
22.4 8.074493510304379
23.0 9.074493510304379
23.6 9.940441679454906
24.0 10.705318067664692
25.0 11.440441679454906
25.8 13.174493510304373
26.5 14.940441679454906
27.2 16.37449351030439
28.0 17.605318067664697
29.0 18.740441679454918
30.0 19.70531806766469
30.7 21.140441679454923
31.5 22.940441679454906
32.5 24.37449351030439
33.5 25.57449351030438
34.5 26.640441679454923
35.5 27.70531806766469
36.5 29.07449351030438
37.5 30.174493510304373
38.7 31.140441679454895
40.0 31.940441679454906
41.2 33.04044167945493
42.5 34.34044167945491
43.7 35.34044167945491
45.0 36.24044167945492
46.2 37.20531806766469
47.5 38.37449351030439
48.7 39.34044167945491
50.0 40.27449351030437
51.5 41.440441679454906
53.0 42.6053180676647
54.5 43.640441679454895
56.0 45.0404416794549
58.0 46.77449351030437
60.0 48.27449351030437
61.5 49.67449351030437
63.0 51.0404416794549
65.0 52.27449351030437
67.0 53.74044167945492
69.0 55.14044167945491
71.0 56.540441679454915
73.0 58.040441679454915
75.0 59.440441679454906
77.5 60.74044167945492
80.0 61.94044167945492
82.5 63.3053180676647
85.0 64.8053180676647
87.5 66.14044167945491
90.0 67.3053180676647
92.5 68.3053180676647
95.0 69.07449351030438
97.5 69.97449351030438
100.0 70.97449351030438
103.0 71.77449351030438
106.0 72.50531806766472
109.0 73.43964531976
112.0 74.20531806766472
115.0 74.7053180676647
118.0 75.17150800786938
122.0 75.57150800786938
125.0 75.97150800786939
128.0 76.17150800786938
132.0 76.43821129888742
136.0 76.63821129888743
140.0 76.77001488257476
145.0 76.93821129888744
150.0 76.97001488257477
155.0 77.07001488257475
160.0 77.07001488257475
165.0 77.10542400732662
170.0 77.07001488257475
175.0 77.03746771551315
180.0 76.97314211136084
185.0 76.93746771551315
190.0 76.87314211136083
195.0 76.80542400732661
200.0 76.77314211136083
206.0 76.67314211136085
212.0 76.57314211136084
218.0 76.57314211136084
224.0 76.50542400732661
230.0 76.43746771551314
236.0 76.33746771551314
240.0 76.23746771551315
250.0 76.17314211136083
258.0 76.10542400732662
265.0 75.93746771551315
272.0 75.80542400732661
280.0 75.70542400732661
290.0 75.60542400732662
300.0 75.47387961222817
307.0 75.4100779978029
315.0 75.31007799780294
325.0 75.24680983520815
335.0 75.34680983520815
345.0 75.45380974359446
355.0 75.58407839372549
365.0 75.75380974359446
375.0 75.8840783937255
387.0 75.98407839372551
400.0 75.98407839372551
412.0 76.02188682922211
425.0 75.91483523633478
437.0 75.88335937246298
450.0 75.7778308059457
462.0 75.64136150423586
475.0 75.57314211136085
487.0 75.50542400732662
500.0 75.53746771551316
515.0 75.53746771551316
530.0 75.70542400732661
545.0 75.84283030471973
560.0 76.04898514879551
580.0 76.08982856673471
600.0 76.17082970284298
615.0 76.19506458035829
630.0 76.18382334167593
650.0 76.0672655885961
670.0 75.84258273663015
690.0 75.65295536787778
710.0 75.37757950460713
730.0 75.2026335053877
750.0 75.05405093453075
775.0 74.88042420054254
800.0 74.66563268960988
825.0 74.56563268960988
850.0 74.4656326896099
875.0 74.33855083142048
900.0 74.21192126753355
925.0 74.08573915648971
950.0 74.02812233674837
975.0 74.1026335053877
1000.0 74.24583147157398
1030.0 74.39664781293231
1060.0 74.49664781293232
1090.0 74.47269145322595
1120.0 74.37269145322595
1150.0 74.29664781293232
1180.0 74.20263350538771
1220.0 74.25405093453075
1250.0 74.39723682439924
1280.0 74.65237641506431
1320.0 74.97244826645844
1360.0 75.23331023801674
1400.0 75.39471929119203
1450.0 75.43752777300028
1500.0 75.44898359150842
1550.0 75.3950645803583
1600.0 75.47641629732153
1650.0 75.57641629732153
1700.0 75.67641629732151
1750.0 75.7599996174499
1800.0 75.73469773360898
1850.0 75.40982855556756
1900.0 74.82875610128315
1950.0 74.04915203998831
2000.0 73.77100612011482
2060.0 74.27100612011482
2120.0 74.39389595883674
2180.0 74.00791075563451
2240.0 73.48573603864206
2300.0 72.98573603864206
2360.0 72.84090753602631
2400.0 73.1171947443536
2500.0 73.34915203998831
2580.0 73.29389595883674
2650.0 73.04852015458806
2720.0 73.10473949550547
2800.0 73.72990957385143
2900.0 74.25648313414827
3000.0 74.18444762363009
3070.0 74.0137899675559
3150.0 73.93308937677077
3250.0 73.97277674488687
3350.0 73.71394942912606
3450.0 73.25664821100017
3550.0 72.93155215291051
3650.0 72.85412591517941
3750.0 72.78509485802375
3870.0 72.99430744544665
4000.0 73.37245249207645
4120.0 73.49780984381857
4250.0 73.12457993687899
4370.0 72.93308937677078
4500.0 73.14449659419708
4620.0 73.10994607707173
4750.0 72.82790007353127
4870.0 72.38681963215333
5000.0 71.58165387780359
5150.0 71.00993626900295
5300.0 71.18912251720924
5450.0 71.84707489675645
5600.0 71.87096325109015
5800.0 71.0930013751178
6000.0 69.9545103139124
6150.0 69.34224702149949
6300.0 69.58017536225837
6500.0 70.09509323354769
6700.0 70.28912061091218
6900.0 70.30920033289935
7100.0 70.5535216502699
7300.0 70.8959090347303
7500.0 71.1231203439938
7750.0 71.60937829065055
8000.0 72.11655819177172
8250.0 72.82643297742509
8500.0 73.33753193576906
8750.0 73.71638770313008
9000.0 74.95522280896297
9250.0 76.38256065499534
9500.0 77.17455057370108
9750.0 76.38835946822155
10000.0 74.90483255371188
10300.0 73.85730149657931
10600.0 74.29348099807184
10900.0 76.11657677405326
11200.0 77.18362512126278
11500.0 77.51274087273613
11800.0 76.02672208916904
12200.0 74.42790007353129
12500.0 75.43131741555754
12800.0 76.6667207368606
13200.0 76.40348581491061
13600.0 75.5223915743246
14000.0 74.45218761292408
14500.0 73.71498382011471
15000.0 72.82406634433558
15500.0 72.10677539847123
16000.0 71.36570276170649
16500.0 71.49242058227307
17000.0 72.11430709178903
17500.0 71.40878227604631
18000.0 69.40922325566852
18500.0 67.06698477766234
19000.0 64.91682493652957
19500.0 64.47737589849775
