Freq "Side Wall Bounce"
22.4 8.503223462322424
23.0 9.503223462322396
23.6 10.403223462322401
24.0 11.132560107542318
25.0 11.863495843010341
25.8 13.60322346232239
26.5 15.373676390546606
27.2 16.803223462322407
28.0 18.022282604588256
29.0 19.13256010754226
30.0 20.13256010754229
30.7 21.60322346232242
31.5 23.4032234623224
32.5 24.803223462322407
33.5 26.003223462322396
34.5 27.063495843010358
35.5 28.13256010754229
36.5 29.503223462322396
37.5 30.60322346232239
38.7 31.553523923520302
40.0 32.33256010754228
41.2 33.49263490428645
42.5 34.77367639054661
43.7 35.80322346232238
45.0 36.66349584301035
46.2 37.62228260458825
47.5 38.80322346232241
48.7 39.80322346232241
50.0 40.703223462322384
51.5 41.85280986066125
53.0 43.022282604588256
54.5 44.09263490428641
56.0 45.49263490428642
58.0 47.222282604588244
60.0 48.70322346232241
61.5 50.11221549386873
63.0 51.49263490428645
65.0 52.712215493868726
67.0 54.15352392352031
69.0 55.60322346232239
71.0 56.93256010754229
73.0 58.49263490428643
75.0 59.89263490428644
77.5 61.2032234623224
80.0 62.403223462322416
82.5 63.71221549386871
85.0 65.22228260458826
87.5 66.53256010754228
90.0 67.73256010754228
92.5 68.72228260458824
95.0 69.5032234623224
97.5 70.4032234623224
100.0 71.37257042136675
103.0 72.1414663056681
106.0 72.82139774369054
109.0 73.64104648465361
112.0 74.31064485779787
115.0 74.79018621229575
118.0 75.16964165315309
122.0 75.50948089709121
125.0 75.8094808970912
128.0 76.0097104567456
132.0 76.18925826823587
136.0 76.3705113444236
140.0 76.47051134442361
145.0 76.58091194884815
150.0 76.63163643243274
155.0 76.69307144453828
160.0 76.68339297837181
165.0 76.66351238628192
170.0 76.62251219215976
175.0 76.53419691997352
180.0 76.45588315547063
185.0 76.39655525290061
190.0 76.29959880039871
195.0 76.20969516559614
200.0 76.11362917542411
206.0 75.98611565171198
212.0 75.85040574428375
218.0 75.78345041391852
224.0 75.66786586009786
230.0 75.5415666691955
236.0 75.40152489096567
240.0 75.2566713722896
250.0 75.13963785021257
258.0 75.0116318604595
265.0 74.84190764513752
272.0 74.68311922132625
280.0 74.54190764513753
290.0 74.39169475821868
300.0 74.31177703007316
307.0 74.18544533868506
315.0 74.13610536729908
325.0 74.14252243433577
335.0 74.24300086672274
345.0 74.39039722475691
355.0 74.59050330488243
365.0 74.82190102166302
375.0 74.99477886959949
387.0 75.12713027877678
400.0 75.20579073676845
412.0 75.23525754778963
425.0 75.1658769671986
437.0 75.11414100313198
450.0 74.96375805631494
462.0 74.78337379532616
475.0 74.59473340003608
487.0 74.41591564137407
500.0 74.31885517624316
515.0 74.24902222910416
530.0 74.23771973599493
545.0 74.2947025764419
560.0 74.43698608713798
580.0 74.5543165163512
600.0 74.71634050760133
615.0 74.90092505800735
630.0 75.03984830447088
650.0 75.14567336634441
670.0 75.16112220775146
690.0 75.18741897357658
710.0 75.0579223442055
730.0 74.91359844999133
750.0 74.7203555194407
775.0 74.49694513686725
800.0 74.16976577766879
825.0 73.92843494208842
850.0 73.63521113030077
875.0 73.30229319897535
900.0 72.96990703254667
925.0 72.67350902677971
950.0 72.40599314258243
975.0 72.2607035992072
1000.0 72.16641551663042
1030.0 72.06711884689874
1060.0 71.87403777642552
1090.0 71.54666105447909
1120.0 71.19920103774587
1150.0 70.92678306573826
1180.0 70.69513981711782
1220.0 70.54481000658379
1250.0 70.48959109865672
1280.0 70.52799511990337
1320.0 70.54752757223149
1360.0 70.47903924052697
1400.0 70.38417442255415
1450.0 70.19923017929048
1500.0 69.9885736325631
1550.0 69.77471769275976
1600.0 69.76799354442531
1650.0 69.82949407344253
1700.0 69.9275734642452
1750.0 70.02020569547672
1800.0 70.09690663815469
1850.0 69.95143067675293
1900.0 69.61699411519463
1950.0 69.00649703974422
2000.0 68.92457604753271
2060.0 69.51134814782795
2120.0 69.7167430458054
2180.0 69.38419842119477
2240.0 68.88335202852576
2300.0 68.35299561674968
2360.0 68.21559851411389
2400.0 68.45610358524563
2500.0 68.66924822882608
2580.0 68.5085158339194
2650.0 68.09289193988343
2720.0 67.95524390038504
2800.0 68.35468357345177
2900.0 68.59680686074094
3000.0 68.29261747120124
3070.0 67.85438236309521
3150.0 67.63013982437445
3250.0 67.50459212684514
3350.0 67.19810058531489
3450.0 66.70684953291148
3550.0 66.42780195861863
3650.0 66.38583682988093
3750.0 66.40653446711987
3870.0 66.62583997907281
4000.0 66.96668047720318
4120.0 66.96996139702404
4250.0 66.43814249795216
4370.0 65.982907477193
4500.0 65.89064205307979
4620.0 65.456077192464
4750.0 64.74402319296239
4870.0 63.80381155927223
5000.0 62.649506503883586
5150.0 61.80625068690169
5300.0 61.816729056752095
5450.0 62.38812794999825
5600.0 62.56368994134613
5800.0 62.25164039626124
6000.0 61.69553214456069
6150.0 61.72066842508063
6300.0 62.34805664615581
6500.0 63.214103184170455
6700.0 63.6877546666952
6900.0 63.882330282711834
7100.0 64.17258993528777
7300.0 64.44154936550935
7500.0 64.51776659868527
7750.0 64.81748601956855
8000.0 65.1475810435416
8250.0 65.57783640951482
8500.0 65.77732012682755
8750.0 65.85128673119333
9000.0 66.75646157896169
9250.0 67.87403856169342
9500.0 68.23650211990535
9750.0 67.2022734563106
10000.0 65.47911845067813
10300.0 64.41598287709422
10600.0 64.91766405016546
10900.0 66.86584887859797
11200.0 68.0794102174088
11500.0 68.60395009224928
11800.0 67.32317761034453
12200.0 65.821427408636
12500.0 66.97646155386589
12800.0 68.18467326977402
13200.0 67.87284742744117
13600.0 66.90807323422617
14000.0 65.74122120796913
14500.0 64.80049975539693
15000.0 63.638779382331236
15500.0 62.73337942939675
16000.0 61.89896515067828
16500.0 61.92573204900326
17000.0 62.53767332540997
17500.0 61.79291830792312
18000.0 59.73520288537381
18500.0 57.29134178951492
19000.0 55.10916743994993
19500.0 54.60601304965833
