Freq "Side Wall Bounce"
22.4 8.607020930676825
23.0 9.607020930676825
23.6 10.50702093067683
24.0 11.236357575896719
25.0 11.967293311364799
25.8 13.707020930676848
26.5 15.477473858901035
27.2 16.907020930676836
28.0 18.126080072942685
29.0 19.23635757589672
30.0 20.23635757589672
30.7 21.70702093067682
31.5 23.50702093067686
32.5 24.907020930676836
33.5 26.107020930676853
34.5 27.167293311364787
35.5 28.23635757589672
36.5 29.607020930676825
37.5 30.707020930676848
38.7 31.65732139187473
40.0 32.436357575896736
41.2 33.59643237264088
42.5 34.87747385890104
43.7 35.907020930676836
45.0 36.76729331136478
46.2 37.72608007294271
47.5 38.907020930676836
48.7 39.907020930676836
50.0 40.80702093067684
51.5 41.95660732901571
53.0 43.126080072942685
54.5 44.19643237264087
56.0 45.59643237264085
58.0 47.32608007294267
60.0 48.80702093067684
61.5 50.21601296222316
63.0 51.59643237264085
65.0 52.816012962223155
67.0 54.257321391874726
69.0 55.70702093067683
71.0 57.03635757589673
73.0 58.59643237264088
75.0 59.996432372640854
77.5 61.30702093067684
80.0 62.50702093067683
82.5 63.816012962223155
85.0 65.32608007294269
87.5 66.63635757589671
90.0 67.83635757589673
92.5 68.82608007294269
95.0 69.60702093067684
97.5 70.50702093067682
100.0 71.47636788972116
103.0 72.24526377402253
106.0 72.92519521204498
109.0 73.74484395300806
112.0 74.4144423261523
115.0 74.8939836806502
118.0 75.27343912150752
122.0 75.61327836544562
125.0 75.91327836544563
128.0 76.11350792510004
132.0 76.29305573659029
136.0 76.47430881277803
140.0 76.57430881277803
145.0 76.6847094172026
150.0 76.73543390078717
155.0 76.79686891289272
160.0 76.78719044672626
165.0 76.76730985463634
170.0 76.72630966051419
175.0 76.63799438832795
180.0 76.55968062382507
185.0 76.50035272125503
190.0 76.40339626875313
195.0 76.31349263395056
200.0 76.21742664377852
206.0 76.08991312006641
212.0 75.95420321263818
218.0 75.88724788227293
224.0 75.7716633284523
230.0 75.64536413754995
236.0 75.50532235932009
240.0 75.36046884064403
250.0 75.24343531856698
258.0 75.11542932881393
265.0 74.94570511349197
272.0 74.7869166896807
280.0 74.64570511349196
290.0 74.49549222657309
300.0 74.41557449842759
307.0 74.28924280703947
315.0 74.23990283565352
325.0 74.24631990269019
335.0 74.34679833507717
345.0 74.49419469311134
355.0 74.69430077323686
365.0 74.92569849001744
375.0 75.0985763379539
387.0 75.23092774713122
400.0 75.30958820512289
412.0 75.33905501614407
425.0 75.26967443555303
437.0 75.21793847148639
450.0 75.06755552466936
462.0 74.8871712636806
475.0 74.6985308683905
487.0 74.5197131097285
500.0 74.42265264459759
515.0 74.35281969745857
530.0 74.34151720434936
545.0 74.39850004479632
560.0 74.5407835554924
580.0 74.65811398470562
600.0 74.82013797595577
615.0 75.00472252636176
630.0 75.14364577282531
650.0 75.24947083469884
670.0 75.2649196761059
690.0 75.291216441931
710.0 75.16171981255992
730.0 75.01739591834576
750.0 74.82415298779513
775.0 74.6007426052217
800.0 74.27356324602323
825.0 74.03223241044284
850.0 73.73900859865522
875.0 73.40609066732978
900.0 73.07370450090112
925.0 72.77730649513414
950.0 72.50979061093686
975.0 72.36450106756163
1000.0 72.27021298498484
1030.0 72.17091631525315
1060.0 71.97783524477995
1090.0 71.65045852283352
1120.0 71.30299850610031
1150.0 71.03058053409269
1180.0 70.79893728547223
1220.0 70.64860747493822
1250.0 70.59338856701113
1280.0 70.63179258825778
1320.0 70.65132504058592
1360.0 70.5828367088814
1400.0 70.48797189090858
1450.0 70.30302764764492
1500.0 70.09237110091755
1550.0 69.87851516111418
1600.0 69.87179101277975
1650.0 69.93329154179698
1700.0 70.03137093259961
1750.0 70.12400316383116
1800.0 70.20070410650911
1850.0 70.05522814510736
1900.0 69.72079158354906
1950.0 69.11029450809866
2000.0 69.02837351588713
2060.0 69.61514561618239
2120.0 69.82054051415983
2180.0 69.48799588954921
2240.0 68.9871494968802
2300.0 68.45679308510411
2360.0 68.31939598246832
2400.0 68.55990105360006
2500.0 68.77304569718052
2580.0 68.61231330227385
2650.0 68.19668940823784
2720.0 68.05904136873947
2800.0 68.45848104180621
2900.0 68.70060432909537
3000.0 68.39641493955567
3070.0 67.95817983144966
3150.0 67.73393729272887
3250.0 67.60838959519955
3350.0 67.30189805366932
3450.0 66.8106470012659
3550.0 66.53159942697307
3650.0 66.48963429823534
3750.0 66.5103319354743
3870.0 66.72963744742725
4000.0 67.07047794555761
4120.0 67.07375886537848
4250.0 66.5419399663066
4370.0 66.08670494554742
4500.0 65.99443952143422
4620.0 65.55987466081842
4750.0 64.84782066131682
4870.0 63.90760902762668
5000.0 62.753303972238015
5150.0 61.91004815525612
5300.0 61.92052652510651
5450.0 62.491925418352665
5600.0 62.667487409700556
5800.0 62.35543786461565
6000.0 61.799329612915116
6150.0 61.824465893435075
6300.0 62.451854114510255
6500.0 63.317900652524884
6700.0 63.79155213504961
6900.0 63.98612775106626
7100.0 64.27638740364219
7300.0 64.54534683386377
7500.0 64.6215640670397
7750.0 64.92128348792299
8000.0 65.25137851189605
8250.0 65.68163387786923
8500.0 65.88111759518198
8750.0 65.95508419954776
9000.0 66.86025904731612
9250.0 67.97783603004785
9500.0 68.34029958825978
9750.0 67.30607092466502
10000.0 65.58291591903257
10300.0 64.51978034544867
10600.0 65.0214615185199
10900.0 66.96964634695239
11200.0 68.18320768576324
11500.0 68.70774756060372
11800.0 67.42697507869896
12200.0 65.92522487699041
12500.0 67.0802590222203
12800.0 68.28847073812845
13200.0 67.97664489579562
13600.0 67.01187070258061
14000.0 65.84501867632358
14500.0 64.90429722375134
15000.0 63.742576850685666
15500.0 62.83717689775119
16000.0 62.00276261903272
16500.0 62.02952951735769
17000.0 62.641470793764384
17500.0 61.89671577627753
18000.0 59.83900035372824
18500.0 57.39513925786933
19000.0 55.21296490830436
19500.0 54.70981051801276
