Freq "Estimated In-Room Response"
20.5078 68.36370531243276
21.9727 71.00576377816918
23.4375 72.54496040397595
24.9023 74.40134294184398
26.3672 76.167373662512
27.832 77.51501749078102
29.2969 78.92430958571902
30.7617 80.37723647708887
32.2266 81.25704380713005
33.6914 82.16526814437943
35.1562 82.66921553873286
36.6211 83.4054712250422
38.0859 84.1893322718095
39.5508 84.75452115224336
41.0156 85.23132103768208
42.4805 85.66879100009957
43.9453 86.32412084393258
45.4102 86.82127103995784
46.875 87.33677033777087
48.3398 87.81431892611488
51.2695 88.52951840494177
52.7344 88.93584460160207
54.1992 89.4477705730448
55.6641 90.05610439241556
58.5938 90.53171384529251
60.0586 90.66820094100346
62.9883 90.94880265248415
64.4531 91.01002710364408
67.3828 91.11181724067609
68.8477 91.14158522812745
71.7773 91.07534208337471
74.707 91.01775343479201
77.6367 90.81464161099879
79.1016 90.69389440742967
82.0312 90.44616537310486
84.9609 90.23153039155241
87.8906 89.9083436397036
90.8203 89.57239163110805
95.2148 88.98305170544036
98.1445 88.54102806956251
101.074 88.16395161485221
105.469 88.00875896848511
108.398 88.40168303269465
112.793 88.39030432476223
117.188 88.06954037541794
120.117 87.98030058830527
124.512 88.499970731452
128.906 88.320444016277
133.301 88.27071731911256
139.16 87.98960068263234
143.555 87.6364736135138
147.949 87.14164801670088
153.809 86.9461203399942
159.668 87.18150733418518
165.527 87.0673580937881
171.387 87.53027841924428
177.246 88.27429964007277
183.105 87.27434495203062
188.965 87.3524306763848
196.289 88.19350490711487
203.613 87.86731795584583
210.938 87.30618422992644
218.262 87.3714889933405
225.586 87.34617772152265
232.91 87.03649961466185
241.699 85.95787987302529
250.488 85.77391529252603
259.277 87.3388106976746
268.066 87.576037484577
276.855 86.71933911338962
287.109 87.24695928363207
297.363 87.9743695889183
307.617 88.6176384290527
319.336 87.67064696770493
329.59 87.85089889551297
341.309 88.00374009433745
353.027 88.47657130956611
366.211 88.2401892947671
379.395 87.37676126359116
392.578 87.38674260682801
405.762 87.23315074949198
420.41 87.78985832271991
435.059 88.04021530146444
451.172 87.67859008773758
465.82 86.92775912933581
483.398 86.56701886865659
499.512 86.07003569332826
517.09 86.3727266655342
536.133 87.32898309916033
555.176 86.45955185410459
574.219 86.50422250847826
594.727 86.00176894142265
615.234 87.38184269448361
637.207 87.66128071293757
659.18 86.88077352658307
682.617 86.45567471565295
707.52 85.96087190945507
732.422 85.45132236902188
757.324 85.2508656561823
785.156 84.7238673471833
811.523 84.4037045420892
840.82 84.17391924601432
870.117 84.98904887382861
900.879 85.30812881206906
933.105 85.14924973921013
965.332 85.42187712125688
1000.49 85.44798390268916
1035.64 85.34086125168596
1072.27 85.37957189588631
1108.89 84.63257025705977
1148.44 84.16109733053537
1189.45 83.83712090510039
1230.47 83.53583366976866
1274.41 83.24130945880091
1319.82 84.37137620600024
1366.7 85.09462131941298
1413.57 85.771099857475
1463.38 86.52724260716673
1516.11 86.59884849929185
1568.85 86.76704280806715
1624.51 85.98064419962455
1681.64 85.58157225294482
1741.7 85.63201193717262
1803.22 86.0268350855849
1866.21 85.94538227522423
1932.13 85.17297891076413
1999.51 85.40480833524676
2069.82 85.7967700219424
2143.07 86.1333195109162
2219.24 86.07026230077544
2296.88 85.92335356220835
2378.91 86.57693542966179
2462.4 86.72018474048905
2548.83 86.57092575937375
2639.65 86.50581877338958
2731.93 86.80989113580341
2828.61 87.03681378483503
2928.22 86.71696512064179
3030.76 87.0088836811388
3137.7 86.97870766649746
3249.02 87.34444094295868
3363.28 86.98605888191074
3481.93 86.95539604595461
3604.98 86.9099736445685
3732.42 86.78734271677871
3864.26 86.75088464904991
4000.49 86.63054099638646
4141.11 86.25986133065001
4287.6 86.58528842006183
4438.48 86.22967659215122
4595.21 86.51876234253609
4756.35 86.22947674869927
4924.8 86.66210576494898
5097.66 86.26050054457295
5277.83 86.84732521701257
5463.87 86.59561251668086
5657.23 86.69048594049096
5856.45 86.47587061480826
6062.99 86.241323753667
6276.86 86.02919896243284
6498.05 85.51812524631495
6726.56 85.67230528602931
6963.87 85.61510653941299
7209.96 85.77383795878542
7464.84 86.14405607867965
7727.05 86.83350807657166
7999.51 87.10769870603508
8282.23 87.25438742909282
8573.73 85.1653863827665
8876.95 84.18369594624609
9188.96 85.8923505498164
9514.16 86.52043939888725
9849.61 86.78547752491954
10196.8 86.70144193980398
10555.7 86.78230393583084
10927.7 86.98414083557563
11313.0 87.2628679195276
11712.9 87.52258500921747
12126.0 87.43755817694954
12553.7 87.01220980062915
12996.1 86.53527627778925
13454.6 86.23709284489216
13929.2 85.90975955801072
14419.9 85.47162548727133
14928.2 85.14860644184418
15455.6 83.77192248007297
16000.5 80.35841521502142
16564.5 79.12402378210736
17148.9 78.52169815866614
17752.4 80.28828198827547
18379.4 78.29695727748285
19026.9 75.19018231306782
19697.8 68.03234161480853
19999.5 63.09577415707838
