Freq "Floor Bounce"
20.5078 63.98490084508704
21.9727 64.86265241461369
23.4375 66.17926698317142
24.9023 67.72333341111072
26.3672 68.61380240932662
27.832 69.8227678658247
29.2969 70.54680037379485
30.7617 71.49683334663733
32.2266 72.17886683961771
33.6914 72.92766771767685
35.1562 73.67360295037852
36.6211 74.31610663835028
38.0859 74.70281515158979
39.5508 75.27873619331176
41.0156 75.98403715571865
42.4805 76.6959350834411
43.9453 77.3620698826335
45.4102 78.00583790924345
46.875 78.61877667157522
48.3398 79.20564745792686
51.2695 80.25888849638241
52.7344 80.68526094615041
54.1992 81.0357631821308
55.6641 81.44991318216992
58.5938 82.23863624907483
60.0586 82.80085919203212
62.9883 83.98727997156776
64.4531 84.5039426071657
67.3828 85.53864071965448
68.8477 85.94942333282552
71.7773 86.79302290677386
74.707 87.65601742310638
77.6367 88.53460152922244
79.1016 88.94094400482435
82.0312 89.71771632116511
84.9609 90.43876312167329
87.8906 91.21294779734659
90.8203 91.9521863505551
95.2148 92.9013039202764
98.1445 93.30641454376723
101.074 93.56428534822818
105.469 94.22531116853219
108.398 94.46205091908165
112.793 94.64056651752695
117.188 95.2827025135156
120.117 95.38510916457089
124.512 95.3676915306609
128.906 95.03642447989641
133.301 94.45091879673117
139.16 94.32786233415369
143.555 93.93067814375347
147.949 93.66839944594871
153.809 93.26950457958166
159.668 92.65432925227996
165.527 91.64881971641974
171.387 92.57614918504517
177.246 92.34197874923667
183.105 91.80526641381614
188.965 91.72915014365925
196.289 91.5074308822928
203.613 90.99637355238588
210.938 90.79027114473666
218.262 90.43687454215683
225.586 89.89813263227231
232.91 89.48825175921029
241.699 89.18680810572356
250.488 89.02302513683848
259.277 88.68170964737882
268.066 88.26750748416721
276.855 89.00732554966413
287.109 89.05370730190054
297.363 88.86458344444911
307.617 89.03492871185739
319.336 88.67640397221342
329.59 88.57138720370676
341.309 88.68034926947234
353.027 88.4739412254364
366.211 88.58025987603712
379.395 88.64942182456666
392.578 88.94125442364543
405.762 88.83788369584923
420.41 88.50515469009045
435.059 88.28546554771528
451.172 88.46859269188933
465.82 88.35497870279673
483.398 88.31006875742926
499.512 88.2901799776163
517.09 88.29772188162734
536.133 88.3035414825941
555.176 88.46381125961535
574.219 88.39629603593941
594.727 88.46580083604434
615.234 88.54353956733489
637.207 88.841287213226
659.18 88.84560169877643
682.617 89.00587710858778
707.52 89.00355278954798
732.422 88.7999519218488
757.324 89.19070820136515
785.156 88.8287574448376
811.523 88.85276673964337
840.82 88.8240929204265
870.117 88.9842854229329
900.879 89.38768256775732
933.105 89.23097220374058
965.332 89.30484867063808
1000.49 89.17498523861157
1035.64 89.15585329791087
1072.27 88.9800095819368
1108.89 88.80404663568537
1148.44 88.97705021290385
1189.45 89.08370157588753
1230.47 89.67153567710764
1274.41 89.77918372065928
1319.82 89.41028765375894
1366.7 88.92100797022785
1413.57 88.85128559317059
1463.38 88.478586841715
1516.11 88.92984708282472
1568.85 88.62254166094162
1624.51 89.05608751286444
1681.64 88.67723482931707
1741.7 88.81715230537824
1803.22 88.85527024685427
1866.21 88.90037311226924
1932.13 89.0269233015747
1999.51 88.756326246564
2069.82 88.798822679542
2143.07 88.54119481411152
2219.24 88.07516113332673
2296.88 87.75282182065739
2378.91 87.24003714162157
2462.4 86.8659579557743
2548.83 86.60067366023814
2639.65 86.24478463305172
2731.93 85.92313098957705
2828.61 85.65519305918781
2928.22 85.8941406062121
3030.76 86.04502628003863
3137.7 85.9984144053475
3249.02 85.37691213178714
3363.28 84.5792614215769
3481.93 84.14406030521312
3604.98 84.26116507118154
3732.42 84.68472889894645
3864.26 85.40487149982498
4000.49 85.93719155114114
4141.11 86.22355501960887
4287.6 86.50689671275329
4438.48 86.7636550036524
4595.21 86.51748197932982
4756.35 86.50540967878125
4924.8 86.31449215631923
5097.66 86.06599236737345
5277.83 86.08822611021961
5463.87 85.9209241640154
5657.23 86.25315071468562
5856.45 86.8981041222926
6062.99 86.90083808143703
6276.86 86.1476018859035
6498.05 86.07242839125688
6726.56 87.53721221358956
6963.87 88.06605707809395
7209.96 87.92668093057678
7464.84 87.55622869848413
7727.05 87.13381591299252
7999.51 87.14073380423163
8282.23 87.74401090884787
8573.73 88.1611267423393
8876.95 87.94158237399598
9188.96 87.97344608825604
9514.16 88.15373701030558
9849.61 88.04699285740031
10196.8 88.32752795934464
10555.7 88.39080034155317
10927.7 88.02810447798645
11313.0 88.00394187623588
11712.9 88.05210719775846
12126.0 87.94151322457174
12553.7 88.03802821106969
12996.1 87.68598322625307
13454.6 87.13656638853261
13929.2 86.72051326500798
14419.9 86.56106359802888
14928.2 86.25747229833021
15455.6 85.958838707778
16000.5 85.83132540922385
16564.5 85.6067545112248
17148.9 84.8634253273089
17752.4 83.79259721766998
18379.4 82.89177661308119
19026.9 82.15489295781236
19697.8 81.30729255863099
19999.5 81.07761761470277
