Freq,On Axis,Listening Window,Sound Power,Early Reflections,Early Reflections DI,Sound Power DI,DI offset
20.5078,49.50526818181818,49.49779902815648,51.89960825280603,50.50596546711746,38.991833561039016,37.598190775350446,40
21.9727,47.2103681818182,47.10800054697965,51.292469493096306,49.03079069531485,38.077209851664804,35.81553105388335,40
23.4375,50.8080681818182,50.727390113069006,54.21600686346848,52.2928938629362,38.43449625013281,36.51138324960053,40
24.9023,52.88396818181819,52.87613990697075,56.825236302250644,54.817483560964305,38.058656346006444,36.050903604720105,40
26.3672,56.129868181818196,56.21690584622807,59.204052266978536,57.68401569421569,38.532890152012385,37.01285357924954,40
27.832,58.202568181818194,58.180024204173165,60.29780749011104,59.05923889189232,39.120785312280844,37.882216714062125,40
29.2969,60.3871681818182,60.3794558187446,62.30716284162939,61.18506904343336,39.194386775311244,38.07229297711521,40
30.7617,61.4990681818182,61.52208906972548,63.88142818778498,62.58553354677353,38.93655552295195,37.640660881940505,40
32.2266,64.1033681818182,64.13850213092638,66.15024857734352,65.05460823833637,39.08389389259001,37.988253553582865,40
33.6914,66.0256681818182,66.05955815468293,67.79631433845917,66.83318539689122,39.22637275779171,38.26324381622376,40
35.1562,68.2638681818182,68.2830988127557,69.64140977597548,68.86238406075141,39.42071475200429,38.64168903678022,40
36.6211,69.39336818181819,69.41878016142164,70.78505913179046,70.01251219175613,39.40626796966551,38.633721029631175,40
38.0859,70.7556681818182,70.77937833074986,72.01328042459973,71.303288005216,39.47609032553386,38.76609790615014,40
39.5508,71.9937681818182,72.0197630480259,73.25340371846511,72.55079514390084,39.46896790412505,38.766359329560785,40
41.0156,73.0775681818182,73.11625204780039,74.43937672020122,73.70791339321893,39.408338654581456,38.67687532759916,40
42.4805,74.4833681818182,74.51426294341525,75.59981713581179,74.98360606086125,39.530656882554,38.91444580760346,40
43.9453,75.5341681818182,75.56208241623114,76.5475803529482,75.98602881968571,39.57605359654542,39.01450206328293,40
45.4102,76.3800681818182,76.40769313996658,77.3514253750071,76.81144571046461,39.59624742950197,39.056267764959486,40
46.875,77.1404681818182,77.18174015385462,78.27221793611668,77.6758854065484,39.505854747306216,38.909522217737944,40
48.3398,78.01906818181818,78.04318967525894,78.7991190051384,78.35308546903092,39.69010420622803,39.24407067012055,40
51.2695,79.30176818181819,79.32228395253601,79.91885669530889,79.5561369810497,39.76614697148631,39.40342725722712,40
52.7344,79.82616818181819,79.84377778061933,80.36717189726751,80.04198518014134,39.801792600477995,39.47660588335182,40
54.1992,80.1928681818182,80.21056759782007,80.71091554935929,80.4004563416922,39.81011125612787,39.49965204846079,40
55.6641,80.4726681818182,80.49142052340234,80.98960982323372,80.68407466553383,39.80734585786851,39.50181070016862,40
58.5938,81.01046818181821,81.02579070291539,81.42349123484132,81.16787340977852,39.857917293136865,39.602299468074065,40
60.0586,81.26156818181819,81.27632783792875,81.6442627271085,81.40492149711352,39.87140634081523,39.63206511082025,40
62.9883,81.83846818181819,81.85196539631166,82.17584145687024,81.96304232270352,39.88892307360814,39.67612393944141,40
64.4531,81.9929681818182,82.00633530427855,82.31725240598102,82.11161242217887,39.894722882099686,39.68908289829753,40
67.3828,82.2115681818182,82.22259809025539,82.4709530643666,82.29769914908847,39.924898941166916,39.75164502588879,40
68.8477,82.2929681818182,82.30337468964433,82.5301700251198,82.36838903233878,39.934985657305546,39.77320466452453,40
71.7773,82.77226818181819,82.78211405519644,82.96693707701994,82.82942052137678,39.95269353381967,39.81517697817651,40
74.707,83.1992681818182,83.20812171934658,83.33925395094828,83.23190750716218,39.9762142121844,39.8688677683983,40
77.6367,83.26236818181819,83.26847131319334,83.34051151494694,83.26456097745417,40.00391033573918,39.927959798246405,40
79.1016,83.3483681818182,83.35148129436304,83.36713079191935,83.3197059356306,40.031775358732446,39.98435050244369,40
82.0312,83.6945681818182,83.69719925612178,83.70309574381227,83.65994638818233,40.03725286793944,39.99410351230951,40
84.9609,83.7497681818182,83.75854842764998,83.88061569370188,83.77868372896077,39.97986469868921,39.8779327339481,40
87.8906,83.7404681818182,83.7458925513574,83.79137382910777,83.73016124565805,40.01573130569935,39.95451872224963,40
90.8203,84.44526818181821,84.43790785466796,84.23216506121462,84.29707738082259,40.14083047384537,40.20574279345334,40
95.2148,84.0444681818182,84.05234283691699,84.20978675607878,84.09943515844678,39.95290767847021,39.84255608083821,40
98.1445,84.24846818181818,84.24561569043995,84.21891407828933,84.19732344580937,40.048292244630574,40.02670161215062,40
101.074,84.30996818181819,84.31010986417108,84.2972476802387,84.26893148462146,40.04117837954962,40.012862183932384,40
105.469,84.82406818181819,84.81584947163948,84.59733860217177,84.68064781580757,40.13520165583191,40.21851086946771,40
108.398,84.8549681818182,84.83844785217376,84.58935120905957,84.68129802985759,40.15714982231617,40.249096643114186,40
112.793,84.96436818181819,84.94378711398109,84.60191947600434,84.73890152605068,40.204885587930406,40.34186763797675,40
117.188,85.12506818181818,85.10375752013798,84.60742996710088,84.82870741408878,40.27505010604919,40.49632755303709,40
120.117,85.05326818181821,85.03663570766467,84.58563849087476,84.7836575588781,40.25297814878657,40.450997216789915,40
124.512,84.74876818181819,84.74015242146801,84.60859141661864,84.63633880038483,40.10381362108318,40.131561004849374,40
128.906,84.8306681818182,84.81668022992666,84.61216613928829,84.67647207595599,40.140208153970676,40.20451409063837,40
133.301,84.8566681818182,84.83835204153263,84.55035852189881,84.65708732906573,40.1812647124669,40.287993519633815,40
139.16,84.83856818181819,84.81400862263799,84.45243995036816,84.59194781149058,40.2220608111474,40.361568672269826,40
143.555,84.7659681818182,84.7409657810642,84.36527175420231,84.51051022397212,40.230455557092085,40.37569402686189,40
147.949,84.7112681818182,84.68492101871273,84.28315542110221,84.44332305348604,40.24159796522669,40.40176559761052,40
153.809,84.6386681818182,84.61198855535453,84.20525750875976,84.36782670662156,40.24416184873297,40.40673104659477,40
159.668,84.4365681818182,84.41126186261623,84.15648894689664,84.23063232350803,40.180629539108196,40.254772915719585,40
165.527,84.6016681818182,84.56229900535456,84.19371338182029,84.32462817476399,40.237670830590574,40.36858562353427,40
171.387,84.6977681818182,84.6503236654267,83.9811222121955,84.27588799744055,40.37443566798615,40.669201453231196,40
177.246,84.4560681818182,84.40988161534474,83.76845353234114,84.04166649192423,40.36821512342051,40.6414280830036,40
183.105,84.23636818181818,84.19280528686333,83.63928889494032,83.85924627718035,40.333559009682986,40.55351639192301,40
188.965,84.3264681818182,84.2731574266342,83.53305485709548,83.85226833918416,40.420889087450036,40.74010256953872,40
196.289,84.3010681818182,84.24094138774916,83.45325344408802,83.79454679606899,40.446394591680175,40.78768794366114,40
203.613,84.16726818181822,84.10427792893859,83.2482143546994,83.61849764681558,40.485780282123,40.85606357423919,40
210.938,84.0682681818182,84.00316031107472,83.11340700575118,83.50862597974013,40.49453433133459,40.88975330532354,40
218.262,83.9270681818182,83.86553406302521,83.03112235389366,83.40015222508949,40.46538183793572,40.834411709131544,40
225.586,83.88616818181819,83.81597337553269,82.91569108164967,83.32090437177744,40.49506900375525,40.90028229388302,40
232.91,83.8011681818182,83.72785831364385,82.70681797937458,83.17921088358449,40.54864743005936,41.02104033426927,40
241.699,83.55746818181821,83.48263944881505,82.4488325414846,82.91594933111402,40.56669011770103,41.033806907330444,40
250.488,83.46526818181822,83.37069147957136,82.16736320137545,82.70459126221586,40.666100217355506,41.20332827819591,40
259.277,83.6002681818182,83.48827898173533,82.27997636406766,82.8244172211622,40.66386176057314,41.20830261766767,40
268.066,83.5039681818182,83.39283839240787,82.02155417114467,82.6201557417029,40.772682650704965,41.371284221263195,40
276.855,83.7179681818182,83.58220661388457,81.8899212095496,82.64565801767313,40.93654859621144,41.69228540433497,40
287.109,83.2822681818182,83.20567198438135,81.86833036389955,82.4809561889462,40.72471579543516,41.33734162048181,40
297.363,83.5420681818182,83.44394737519188,81.81415960941713,82.60764337268846,40.836304002503425,41.62978776577475,40
307.617,83.3799681818182,83.24256786981134,81.62829477889333,82.40094915620583,40.84161871360551,41.614273090918005,40
319.336,83.34636818181819,83.1897868454705,81.33676607154321,82.19906094102002,40.99072590445047,41.853020773927284,40
329.59,83.1105681818182,83.02238829989646,81.23281732245752,82.11741607242172,40.904972227474744,41.78957097743894,40
341.309,83.12886818181819,82.95836069513682,81.026933787389,81.92484537623186,41.03351531890496,41.93142690774782,40
353.027,82.76636818181821,82.65083142044308,80.63013913175888,81.56898845469124,41.08184296575185,42.0206922886842,40
366.211,82.83596818181819,82.69416231968594,80.52323235599187,81.53975763344091,41.15440468624503,42.17092996369408,40
379.395,82.75466818181819,82.66496584233731,80.78895898745996,81.71519784750447,40.94976799483284,41.876006854877346,40
392.578,82.56356818181821,82.43281057462424,80.53257729763159,81.4133585033111,41.01945207131314,41.90023327699265,40
405.762,82.4496681818182,82.2681007720112,80.25264309067977,81.16939605805933,41.09870471395186,42.015457681331426,40
420.41,82.67676818181819,82.4361123721812,80.22397408501313,81.11953743909534,41.31657493308586,42.212138287168074,40
435.059,82.8058681818182,82.57269239382377,80.18186242026654,81.04741664767586,41.52527574614791,42.39082997355723,40
451.172,83.98726818181821,83.69067751537214,80.18630326607402,81.89956913437508,41.79110838099706,43.504374249298124,40
465.82,83.9612681818182,83.74573246538459,80.18288496371518,82.0327036538442,41.7130288115404,43.56284750166941,40
483.398,83.86256818181819,83.67004113808257,80.27995744042076,82.0545493690693,41.61549176901326,43.39008369766181,40
499.512,83.67036818181819,83.48657547558983,80.09302211056936,81.90268770119978,41.58388777439005,43.393553365020466,40
517.09,84.14766818181819,83.89749662419842,80.4290319992002,82.25281851906482,41.64467810513361,43.46846462499822,40
536.133,83.91116818181821,83.68474097639934,80.09129273405131,81.84659503403672,41.838145942362615,43.59344824234803,40
555.176,84.0221681818182,83.87491836116733,79.9332078723459,81.94758830304157,41.92733005812576,43.94171048882143,40
574.219,84.0036681818182,83.75834852838618,79.99640449968925,82.00952089314804,41.74882763523814,43.76194402869693,40
594.727,83.8071681818182,83.5966945151048,79.90522567244832,81.82532178406643,41.77137273103837,43.69146884265648,40
615.234,83.7126681818182,83.50380276719282,79.35193517834401,81.48078530016913,42.02301746702369,44.151867588848816,40
637.207,83.4672681818182,83.23838824676788,79.35218538578486,81.38106951010553,41.85731873666235,43.88620286098302,40
659.18,83.3571681818182,83.08084511090048,79.10435894682419,81.23077201630046,41.85007309460002,43.97648616407629,40
682.617,83.4690681818182,83.26296151104175,79.36329716962236,81.42857185196871,41.83438965907304,43.899664341419395,40
707.52,83.71106818181819,83.46973695530184,79.5396353012086,81.68093889677147,41.788798058530375,43.930101654093235,40
732.422,83.6047681818182,83.29752942051176,79.17564959879918,81.44481680170475,41.85271261880702,44.12187982171258,40
757.324,83.16036818181821,82.82402557776426,78.9320216444202,81.12073335782836,41.7032922199359,43.89200393334406,40
785.156,83.7573681818182,83.46101242556551,79.02973101542298,81.45155370751364,42.009458718051874,44.43128141014253,40
811.523,84.3905681818182,83.90750465768711,79.73166424556975,81.65067668112472,42.25682797656239,44.17584041211737,40
840.82,84.00966818181821,83.59863176323951,78.79182659990401,81.41445928345635,42.18417247978316,44.8068051633355,40
870.117,84.1899681818182,83.99382823525242,79.88268782234857,81.7574587653703,42.23636946988212,44.11114041290385,40
900.879,84.58346818181819,84.23466121896499,79.04119522222929,81.72681857703337,42.50784264193162,45.193465996735696,40
933.105,84.8306681818182,84.41268497929248,78.98511943517636,81.49329074847681,42.91939423081567,45.42756554411612,40
965.332,84.3876681818182,84.0185731111935,78.90217156283694,81.36159277421488,42.65698033697862,45.11640154835656,40
1000.49,83.76296818181821,83.35139245130632,78.44810215951841,80.95082415567926,42.40056829562707,44.90329029178791,40
1035.64,83.3258681818182,83.16963950671176,78.32839947433384,80.51681584808728,42.652823658624484,44.841240032377925,40
1072.27,83.9484681818182,83.29234097230194,77.73578768018287,80.38813205905359,42.904208913248354,45.55655329211908,40
1108.89,83.1708681818182,82.86628873135948,77.82314455211743,80.17853764969439,42.687751081665084,45.04314417924205,40
1148.44,81.70586818181819,82.0808851602712,77.419730464577,79.43559271346552,42.64529244680567,44.661154695694194,40
1189.45,83.1700681818182,82.5176212887472,77.19101564901992,79.8154077291065,42.7022135596407,45.326605639727276,40
1230.47,82.8613681818182,82.50702141083634,77.29392233905213,80.03367611832657,42.47334529250978,45.213099071784214,40
1274.41,83.2108681818182,82.76939688280005,77.18137800052962,80.16341922417087,42.605977658629186,45.58801888227043,40
1319.82,83.71276818181819,82.99540911102845,77.31666380303363,80.23097211358898,42.764436997439475,45.67874530799482,40
1366.7,83.96366818181819,83.40083379374471,77.7318192385778,80.78699702453068,42.61383676921403,45.66901455516691,40
1413.57,84.08846818181821,83.59706892920177,77.43721543082005,80.8356599498665,42.76140897933527,46.15985349838172,40
1463.38,83.6114681818182,83.36451847787016,77.22886128629571,80.75955388597372,42.60496459189645,46.13565719157445,40
1516.11,82.99396818181818,82.50077326989894,76.9665152889334,80.14624598799637,42.35452728190258,45.53425798096555,40
1568.85,82.39226818181818,81.55109662703383,76.53905496587349,79.76029710963239,41.79079951740144,45.01204166116034,40
1624.51,82.7395681818182,81.8245799907093,76.71118856067261,80.07130578964781,41.75327420106149,45.113391430036685,40
1681.64,83.49866818181819,82.93957783245709,77.29264779764489,80.77851962369989,42.1610582087572,45.6469300348122,40
1741.7,83.66376818181818,83.53706263101114,77.48136838398533,80.93927884220575,42.59778378880539,46.05569424702581,40
1803.22,84.42736818181821,84.14253800340752,77.47830303602593,81.3674180438588,42.77511995954872,46.66423496738159,40
1866.21,84.28696818181818,83.93591932163856,77.20161872162657,81.17377576564795,42.76214355599062,46.73430060001199,40
1932.13,83.7869681818182,83.31300328746572,76.67957841870792,80.70321190767574,42.60979137978998,46.6334248687578,40
1999.51,83.8311681818182,83.24632940068088,76.42437526657433,80.39630420468819,42.850025195992686,46.82195413410655,40
2069.82,84.4184681818182,83.66117442693924,76.38928293055864,80.33774588913785,43.32342853780139,47.271891496380604,40
2143.07,84.4682681818182,83.86431924169801,76.10296310949941,80.16783482845874,43.696484413239276,47.7613561321986,40
2219.24,84.11686818181819,83.51854211563126,76.10670367053524,79.95425289839856,43.5642892172327,47.41183844509602,40
2296.88,82.6233681818182,82.12285835874546,75.89059844151319,79.1143371088807,43.008521249864756,46.23225991723227,40
2378.91,81.79996818181819,81.22581063027292,75.70614423786141,78.41540172012537,42.810408910147544,45.51966639241151,40
2462.4,82.0692681818182,81.66857949117033,75.94253482546566,78.58010353437304,43.088475956797296,45.72604466570468,40
2548.83,81.6067681818182,81.5016884201235,75.69021117749675,78.49108909468255,43.01059932544095,45.81147724262675,40
2639.65,79.84866818181821,79.83510208915848,74.4666596249365,77.61615100943939,42.21895107971909,45.368442464221985,40
2731.93,78.4521681818182,78.15827237834294,73.55615903733953,76.64875645933527,41.50951591900767,44.60211334100342,40
2828.61,77.9408681818182,78.42516928969245,73.89195474480032,76.63707365842154,41.788095631270906,44.53321454489213,40
2928.22,80.19046818181819,80.2630844731865,75.12594006514617,77.75763782029836,42.50544665288814,45.13714440804033,40
3030.76,81.22626818181821,81.44448320083531,76.12683759727511,78.67352013486234,42.770963065972964,45.317645603560194,40
3137.7,82.0541681818182,82.4189251816203,76.9058548434555,79.48123518560377,42.93768999601653,45.513070338164795,40
3249.02,82.4928681818182,82.62320699952883,77.66758453741585,80.2827802767633,42.34042672276553,44.955622462112984,40
3363.28,83.48066818181819,83.35926139136497,78.12795780320884,80.90396496463897,42.455296426725994,45.23130358815612,40
3481.93,84.9226681818182,84.54634926283727,78.74896206315243,81.82700858113579,42.71934068170148,45.797387199684835,40
3604.98,85.0205681818182,84.74534523035736,79.13028822155117,82.05633458014371,42.689010650213646,45.61505700880619,40
3732.42,85.1898681818182,85.1712898707939,79.29491056058541,82.20537541312733,42.96591445766657,45.87637931020849,40
3864.26,84.49826818181818,84.90039155448481,78.86891770098013,81.8687760140722,43.031615540412616,46.03147385350468,40
4000.49,83.64836818181821,83.64757364567235,77.83973020474549,80.95897463496298,42.68859901070937,45.80784344092686,40
4141.11,84.00686818181819,83.13209215161474,77.05738768274595,80.2548205672605,42.87727158435425,46.07470446886879,40
4287.6,83.5350681818182,82.71368900024287,76.94179457159926,80.28276839867817,42.430920601564694,45.771894428643606,40
4438.48,83.9669681818182,83.18414534804236,77.36435059290478,80.7242622713109,42.45988307673146,45.81979475513758,40
4595.21,84.2490681818182,83.52631247348765,77.35290759316942,80.84186686141753,42.68444561207012,46.17340488031823,40
4756.35,83.7291681818182,83.24621217545956,77.5165945977314,80.81358986969603,42.43262230576353,45.72961757772816,40
4924.8,83.89936818181819,83.37742289036647,77.50385320369804,80.69342074431661,42.68400214604986,45.87356968666843,40
5097.66,83.57136818181822,83.49265470989461,77.59753308607011,80.68273038093237,42.80992432896224,45.895121623824494,40
5277.83,83.5092681818182,82.86460776035406,77.32742435434768,80.44874186227386,42.4158658980802,45.53718340600638,40
5463.87,83.9288681818182,83.51766758711356,77.56447608415887,80.93091252725993,42.58675505985363,45.953191502954695,40
5657.23,84.3570681818182,83.40540428847417,77.1700594551374,81.01088851126035,42.394515777213826,46.23534483333677,40
5856.45,83.8870681818182,83.03844140073674,76.90377167582695,80.5409615093549,42.49747989138184,46.1346697249098,40
6062.99,83.9163681818182,82.98802932884169,76.59492674609342,80.15643752221742,42.831591806624274,46.39310258274827,40
6276.86,83.0640681818182,82.45810490934029,76.07834280136372,79.53087696694493,42.92722794239536,46.379762107976575,40
6498.05,82.36256818181819,82.00491561167306,75.74079831591804,79.23393836694648,42.77097724472658,46.264117295755014,40
6726.56,82.4954681818182,82.16262239805312,75.8748951543421,79.33370986871823,42.828912529334886,46.28772724371102,40
6963.87,82.4309681818182,82.02037800647088,75.83770201991567,79.36168834357548,42.6586896628954,46.18267598655521,40
7209.96,82.7387681818182,82.83955334507178,76.35536574609009,79.83696878425187,43.00258456081991,46.48418759898169,40
7464.84,82.8883681818182,82.9717108260766,76.25035390045132,79.67685178607309,43.294859040003516,46.72135692562529,40
7727.05,83.05566818181819,83.18720006679725,76.41498089306432,79.84612544348752,43.34107462330972,46.77221917373292,40
7999.51,84.2096681818182,83.79935673842854,76.44960992038216,80.06138069161058,43.73797604681796,47.349746818046384,40
8282.23,83.2445681818182,82.84891600967217,75.43833347563098,79.3453614785344,43.503554531137766,47.41058253404118,40
