Freq "Early Reflections DI"
22.4 43.67047979332679
23.0 43.69553745225599
23.6 43.79688232281765
24.0 43.85417632174779
25.0 43.94674564992778
25.8 44.03349409807669
26.5 44.1569866175455
27.2 44.30703338242472
28.0 44.36392875110403
29.0 44.432708107768065
30.0 44.49723985990559
30.7 44.265427533906546
31.5 43.92871692681129
32.5 43.54594706316905
33.5 42.99192253549518
34.5 42.402172074268805
35.5 41.81522311448339
36.5 41.16275316973952
37.5 40.48570229839012
38.7 39.83335402963681
40.0 39.080066514853144
41.2 38.3366082689717
42.5 37.958823764573026
43.7 37.67137251285993
45.0 38.68059508676541
46.2 39.63343164357691
47.5 40.77801180112236
48.7 41.29709541935691
50.0 41.57041070747455
51.5 41.62235847674896
53.0 41.52656314265744
54.5 41.47979726035571
56.0 41.3278731663778
58.0 41.224980028602175
60.0 41.09913345364862
61.5 40.96935586872742
63.0 40.84944402673281
65.0 40.76004616178787
67.0 40.63132456503146
69.0 40.54165564552257
71.0 40.44170269906212
73.0 40.32512650338016
75.0 40.27002399475511
77.5 40.1720871457611
80.0 40.10055321479612
82.5 40.011025324539716
85.0 39.97043070815717
87.5 39.92139717824983
90.0 39.91181021687903
92.5 39.94693128971505
95.0 39.99217394777634
97.5 40.07820920610244
100.0 40.183364509175945
103.0 40.30316517920389
106.0 40.357410229569055
109.0 40.430656440156625
112.0 40.42271388441959
115.0 40.45213612952227
118.0 40.4329765095399
122.0 40.43939104933979
125.0 40.44333912434702
128.0 40.44862070016714
132.0 40.475947974344194
136.0 40.540290957978385
140.0 40.58738175561585
145.0 40.70651406635669
150.0 40.836568060300564
155.0 40.89850534938836
160.0 40.993909746149754
165.0 41.01402151767955
170.0 41.06141743425499
175.0 41.082103074743955
180.0 41.1663746712787
185.0 41.27462392938608
190.0 41.37461926465572
195.0 41.511467498059886
200.0 41.67131524169778
206.0 41.84612806858547
212.0 41.99071906135195
218.0 42.10226453803017
224.0 42.13397485696967
230.0 42.18520490339303
236.0 42.10302381993371
240.0 41.984061290948006
250.0 41.80652235718247
258.0 41.679944230218055
265.0 41.62400217834487
272.0 41.53824836246416
280.0 41.54138946244409
290.0 41.574175970225625
300.0 41.55491287180715
307.0 41.640095011658744
315.0 41.877908268390016
325.0 42.17131114703709
335.0 42.369302160160174
345.0 42.49870879521117
355.0 42.52438347114099
365.0 42.64629372745158
375.0 42.901287097392824
387.0 43.068596840806876
400.0 43.14671167078441
412.0 43.06240285469768
425.0 43.01261167985885
437.0 43.12771641303149
450.0 43.29729032622619
462.0 43.3870448537713
475.0 43.555807618415884
487.0 43.79756371875813
500.0 44.069792010700056
515.0 44.28846421266917
530.0 44.442696671259014
545.0 44.39195357421913
560.0 44.365851947324444
580.0 44.40167456679421
600.0 44.35496880740695
615.0 44.121709619410495
630.0 43.95181793395744
650.0 44.196075113871586
670.0 44.427676244557844
690.0 44.342856623932676
710.0 44.10831148747944
730.0 44.23486866553867
750.0 44.463956771659
775.0 44.492745528533874
800.0 44.57911914360497
825.0 44.887782756611
850.0 45.03131389618744
875.0 44.87912924642498
900.0 44.88966196745771
925.0 44.98927511853174
950.0 44.884446081967525
975.0 44.937204228466356
1000.0 44.78867439432469
1030.0 44.775970450093695
1060.0 44.63160765126129
1090.0 44.71851640872519
1120.0 44.61466455927129
1150.0 44.71667389211623
1180.0 44.78106245613132
1220.0 44.702173844105175
1250.0 44.61803719204687
1280.0 44.42596514260666
1320.0 44.641869317008315
1360.0 44.41103390572749
1400.0 44.354252884592015
1450.0 44.13831283535771
1500.0 44.158161972849456
1550.0 44.13293064836053
1600.0 44.59434876609518
1650.0 45.01035763800836
1700.0 45.32335165384771
1750.0 45.32236404172893
1800.0 45.26894825307244
1850.0 45.26098825286846
1900.0 45.150588012004405
1950.0 45.26034953118037
2000.0 45.079317727206075
2060.0 45.12163261851349
2120.0 45.034214272212154
2180.0 44.78869870169919
2240.0 44.752654922030885
2300.0 44.962862095473525
2360.0 45.24548175935509
2400.0 45.30046630816048
2500.0 45.193419624200814
2580.0 45.042723448019416
2650.0 44.905214434852965
2720.0 44.939897898814905
2800.0 45.055625237880136
2900.0 45.41640151713062
3000.0 45.56693810989569
3070.0 45.59820979404164
3150.0 45.616990021532246
3250.0 45.36852997148034
3350.0 45.353791060379066
3450.0 45.18821957687592
3550.0 45.21850006958499
3650.0 45.35929066653178
3750.0 45.61515115848397
3870.0 45.78206939352583
4000.0 46.01189037301134
4120.0 46.07516260047281
4250.0 45.87858594213067
4370.0 45.53855779901387
4500.0 45.50579635812666
4620.0 45.487207428867805
4750.0 45.40364547659445
4870.0 45.61648293074357
5000.0 45.64837923305592
5150.0 45.72133268045394
5300.0 45.75810275504155
5450.0 45.78638974095732
5600.0 45.77774950166118
5800.0 45.616025608111116
6000.0 45.49220798944994
6150.0 45.62465860495945
6300.0 45.7317883278366
6500.0 45.69069922518662
6700.0 45.63163072303752
6900.0 45.54436714234242
7100.0 45.62322873379185
7300.0 45.89039500903709
7500.0 45.99375713329057
7750.0 45.920322272289
8000.0 45.86932251757305
8250.0 46.04360189264058
8500.0 46.04597438117116
8750.0 45.902202975986626
9000.0 45.885212731356376
9250.0 45.96211336072257
9500.0 45.87734788185375
9750.0 45.812286482395976
10000.0 45.976559412907704
10300.0 46.116427804300514
10600.0 46.104728777535954
10900.0 46.03090541242206
11200.0 45.99040078177717
11500.0 46.00151514945698
11800.0 45.98936948046371
12200.0 45.97414029271735
12500.0 45.921630796064406
12800.0 45.966229897426544
13200.0 46.159870694140466
13600.0 45.58071499527901
14000.0 45.81868097176931
14500.0 45.596435524802914
15000.0 46.161200278914606
15500.0 46.30675131708372
16000.0 45.94698665987549
16500.0 45.633743521531315
17000.0 45.62294057874662
17500.0 45.79198664437426
18000.0 46.87151822657208
18500.0 46.26232524963228
19000.0 45.08768844475921
19500.0 45.95630752938699
