Freq "Sound Power"
22.4 18.65211923105437
23.0 20.716402057357897
23.6 22.904268188502954
24.0 25.231762685743462
25.0 27.63909087263295
25.8 30.128428573237755
26.5 32.641580654171264
27.2 35.04047519808026
28.0 36.51084304028339
29.0 37.92526007061181
30.0 39.68399385206999
30.7 40.67687514705378
31.5 42.471771900553875
32.5 43.7806609443372
33.5 44.563050181352565
34.5 45.81775611224407
35.5 47.36586925256398
36.5 49.26337257625693
37.5 51.235964321279965
38.7 53.108615360526414
40.0 54.753215318780406
41.2 56.10901203538313
42.5 57.412487160243444
43.7 58.83462503055661
45.0 60.11003745368846
46.2 61.09634361493271
47.5 61.194245720761046
48.7 61.8371816083593
50.0 62.75227988703688
51.5 63.84183389231893
53.0 65.10852771866706
54.5 66.50192066356786
56.0 68.12741188576013
58.0 69.41474580476893
60.0 70.45313194077515
61.5 71.56761996887869
63.0 72.79427995894974
65.0 73.96799172367444
67.0 74.87517516848348
69.0 75.49722277262025
71.0 75.90637910398607
73.0 76.2905370626734
75.0 76.68701014626946
77.5 77.1942601454439
80.0 77.66148087427757
82.5 77.96519826350318
85.0 78.22555859510737
87.5 78.55297949446751
90.0 78.78046441049719
92.5 79.05238038436732
95.0 79.38351856640111
97.5 79.53080688221641
100.0 79.62766520169086
103.0 79.6586754166868
106.0 79.64458842731733
109.0 79.63485233661214
112.0 79.53051978363277
115.0 79.46419527733704
118.0 79.43343164117812
122.0 79.37483545554315
125.0 79.24564797893716
128.0 79.36950770785313
132.0 79.44496226943981
136.0 79.39196955196199
140.0 79.46289210110874
145.0 79.1400615967909
150.0 78.99165980007862
155.0 78.85061876220342
160.0 78.76401439302184
165.0 78.95290767574534
170.0 79.07054066010522
175.0 79.30331426967028
180.0 79.34877560228756
185.0 79.22693220376283
190.0 79.02476533455645
195.0 78.80838095781894
200.0 78.53304969123303
206.0 78.28835234674669
212.0 77.85128510752571
218.0 77.4364174287364
224.0 77.08410338697702
230.0 76.59868800299787
236.0 76.44420003019765
240.0 76.59994743332547
250.0 76.92923064013361
258.0 77.18002292485085
265.0 77.40301458034739
272.0 77.6968599609359
280.0 77.73205572288582
290.0 77.66433388242987
300.0 77.60839690395271
307.0 77.44783042609157
315.0 77.0277725969658
325.0 76.62805908380216
335.0 76.37693223761562
345.0 76.19391330808452
355.0 76.1304420055029
365.0 76.01676486033958
375.0 75.7269003372401
387.0 75.57408813130264
400.0 75.61537443717448
412.0 75.74948808425303
425.0 75.79474711458809
437.0 75.59749522424502
450.0 75.36366958835256
462.0 75.41045559591528
475.0 75.47817076106392
487.0 75.28273359736572
500.0 74.7105559617885
515.0 74.05857462698296
530.0 73.73814628851736
545.0 73.96278224482964
560.0 74.0792318825639
580.0 73.764437486965
600.0 73.1540546320251
615.0 72.41589528266167
630.0 71.25189192321409
650.0 69.83742393453547
670.0 69.3850290694887
690.0 69.81399034491453
710.0 70.58502881266011
730.0 71.08711557692392
750.0 71.39281567341263
775.0 71.59803604353743
800.0 72.06373108944943
825.0 71.98918085351612
850.0 71.41778136869087
875.0 71.7009103208351
900.0 72.03566080502104
925.0 71.87664668272839
950.0 72.24040951635203
975.0 71.98870294026747
1000.0 71.73130985500012
1030.0 71.30065738396219
1060.0 71.61408811219633
1090.0 71.33221587876545
1120.0 71.29413948801289
1150.0 71.39963140438518
1180.0 71.74927961276023
1220.0 71.89172145073528
1250.0 72.01493408784359
1280.0 72.45785578594004
1320.0 72.41828357030028
1360.0 72.91916977234999
1400.0 72.56754173372944
1450.0 72.84660883404763
1500.0 72.08154501475272
1550.0 71.92225106617974
1600.0 71.33141176254757
1650.0 71.14985459185996
1700.0 70.16881735461558
1750.0 69.98682593028065
1800.0 69.7145166444197
1850.0 69.2657060117885
1900.0 69.46912574049666
1950.0 69.24568728076464
2000.0 69.86936492783025
2060.0 70.04195855957511
2120.0 70.80941803096903
2180.0 71.70182257700402
2240.0 72.19338748839681
2300.0 72.15113618313092
2360.0 71.40381293681519
2400.0 70.30986149122633
2500.0 69.55187108041521
2580.0 69.0457750670388
2650.0 68.77109502884824
2720.0 68.94582694778424
2800.0 69.22698169460467
2900.0 69.53032822058256
3000.0 69.83867638314412
3070.0 70.43577431408744
3150.0 70.45681826220888
3250.0 69.98347574863344
3350.0 68.89492859675612
3450.0 68.60088286173718
3550.0 69.17725552292853
3650.0 69.36273548442523
3750.0 69.51402811321344
3870.0 69.4605904895413
4000.0 68.83859686559624
4120.0 69.14743218482072
4250.0 69.6484605495127
4370.0 68.99572942007089
4500.0 68.93746900231774
4620.0 69.52415469435368
4750.0 69.86775614073895
4870.0 69.93278531519094
5000.0 69.81131995682487
5150.0 69.14628454575018
5300.0 68.9265275131861
5450.0 69.09809436039144
5600.0 69.08969790857279
5800.0 68.75083286302605
6000.0 68.49570872366162
6150.0 68.62486546323686
6300.0 69.08920726506639
6500.0 68.8949889831108
6700.0 68.98903667228238
6900.0 67.93032697138996
7100.0 68.47650319284544
7300.0 70.02150899950337
7500.0 71.13892158365722
7750.0 70.35094559384672
8000.0 70.21413421736709
8250.0 69.12193769879869
8500.0 69.35982710909933
8750.0 70.48649912323424
9000.0 70.93712954496456
9250.0 70.29783930072433
9500.0 71.3685257177537
9750.0 71.93136705945685
10000.0 69.84266206326757
10300.0 70.47900387119417
10600.0 70.67947763578607
10900.0 71.01278371981138
11200.0 71.1860154899971
11500.0 71.65652857836591
11800.0 70.96300556647702
12200.0 70.0518895371923
12500.0 71.51081149883557
12800.0 70.74098355842203
13200.0 70.0868014338788
13600.0 72.05919955807718
14000.0 68.91090745728455
14500.0 67.36635611079755
15000.0 66.59148061178293
15500.0 66.97739279468252
16000.0 70.67493657188155
16500.0 72.40684778842576
17000.0 74.51010624840615
17500.0 72.86347186892952
18000.0 63.16351302968748
18500.0 66.03687290212824
19000.0 65.74430566824935
19500.0 58.585017163616214
