Freq "Estimated In-Room Response"
22.4 21.558455719895946
23.0 22.088063509638104
23.6 22.432289309775783
24.0 22.534562778141733
25.0 22.325797262718154
25.8 21.708363870624012
26.5 20.5116137676424
27.2 18.454006418009627
28.0 15.171471769457597
29.0 13.794670926860519
30.0 18.759257983349684
30.7 23.62388458769975
31.5 27.332656370594677
32.5 30.313270183777362
33.5 32.79053975208082
34.5 34.91845619619998
35.5 36.82784563909435
36.5 38.58678885813781
37.5 40.24986326032597
38.7 41.88954810498667
40.0 43.52546392119886
41.2 45.175630456024734
42.5 46.84694346298933
43.7 48.50689857767456
45.0 50.14004016844663
46.2 51.74177142854445
47.5 53.26853047360724
48.7 54.74329706961096
50.0 56.159986065385354
51.5 57.50021636362436
53.0 58.76341934886882
54.5 59.98875993129896
56.0 61.16545972538076
58.0 62.2608181410332
60.0 63.31679234115039
61.5 64.32130187295571
63.0 65.23188509767888
65.0 66.0971767107637
67.0 66.89268437596911
69.0 67.61397797593791
71.0 68.25876109393954
73.0 68.81175422670435
75.0 69.29990333756288
77.5 69.68290980865497
80.0 69.97368119069684
82.5 70.22440537295851
85.0 70.4016966238873
87.5 70.55530335356643
90.0 70.68570472013535
92.5 70.79575553637808
95.0 70.85472526405077
97.5 70.86598683197647
100.0 70.8168213836356
103.0 70.71474390485984
106.0 70.58148667148443
109.0 70.4876734865721
112.0 70.41579126929683
115.0 70.3510880121355
118.0 70.25500336708511
122.0 70.08674010338821
125.0 69.83492310490915
128.0 69.57159597195033
132.0 69.42168387521734
136.0 69.44824034901923
140.0 69.4869921256604
145.0 69.46981159354236
150.0 69.29734928606287
155.0 69.04018362372221
160.0 68.93405527147824
165.0 68.92748715522582
170.0 68.95364424459324
175.0 68.85004701862768
180.0 68.65765604901951
185.0 68.6018720943839
190.0 68.78458855055031
195.0 68.99194231242744
200.0 68.9581459575444
206.0 68.80621796535043
212.0 68.72400635439344
218.0 68.4073670441906
224.0 67.79039349037544
230.0 67.689946813112
236.0 68.70662047443439
240.0 69.90653027969385
250.0 70.53339215690211
258.0 70.68695556785488
265.0 70.34490675908926
272.0 69.74480768226029
280.0 69.504067957583
290.0 68.95878250719699
300.0 68.19288783387033
307.0 67.83767639641728
315.0 67.37080831630709
325.0 66.83228935771972
335.0 66.51459640801744
345.0 65.72287064104351
355.0 64.99259822129106
365.0 64.37031523855732
375.0 63.94566890693969
387.0 63.969761533160735
400.0 64.06268050045803
412.0 64.07810688256102
425.0 64.02559500179696
437.0 63.93929832722763
450.0 63.88270216702041
462.0 63.58832465715474
475.0 62.89360252209072
487.0 62.75048000008172
500.0 64.44738075782591
515.0 64.97402591418515
530.0 65.05730792419466
545.0 65.46982574506006
560.0 66.36984067029192
580.0 66.8180629829325
600.0 66.9560290046242
615.0 66.77659115662992
630.0 66.23176771524274
650.0 65.83988962100865
670.0 65.89637005553634
690.0 66.84619418361376
710.0 67.24689368627077
730.0 66.87307050540576
750.0 66.40000174535815
775.0 65.59556965645473
800.0 64.99575393381295
825.0 65.17909092253299
850.0 65.72038845783312
875.0 65.97966642769269
900.0 65.93007924288412
925.0 66.12076802776198
950.0 65.93944378873613
975.0 65.7683246205452
1000.0 65.73622824011049
1030.0 65.63680107844358
1060.0 65.31534797466992
1090.0 65.32484308968726
1120.0 65.26451114899707
1150.0 64.45306921600215
1180.0 63.95858460294632
1220.0 65.16896269582799
1250.0 65.45864282486289
1280.0 65.67953849452122
1320.0 65.53050182755639
1360.0 64.99863965607325
1400.0 64.26616535756993
1450.0 63.22011569931246
1500.0 62.68295981884178
1550.0 62.70457615882147
1600.0 63.68280546961496
1650.0 64.26907260345625
1700.0 63.89809772305051
1750.0 63.69362127164372
1800.0 63.572117790711175
1850.0 63.856831323441625
1900.0 63.707360511060145
1950.0 63.78099177679299
2000.0 63.175742963835944
2060.0 62.847335709788936
2120.0 61.98713294084523
2180.0 62.21094576341204
2240.0 62.20524540831593
2300.0 61.57205947056913
2360.0 62.06452064296029
2400.0 61.17173361761283
2500.0 60.51119858984235
2580.0 60.43400081017511
2650.0 61.019275240130156
2720.0 61.87325150460295
2800.0 62.2893047232112
2900.0 62.15680262879064
3000.0 61.48074588776251
3070.0 60.931620799336926
3150.0 61.2067924797834
3250.0 61.27052772635109
3350.0 61.165101672402386
3450.0 61.517679961152865
3550.0 62.013503380002504
3650.0 62.30254988744656
3750.0 62.5613809057962
3870.0 62.7122949960234
4000.0 61.966859815789206
4120.0 61.06048067661642
4250.0 60.76388487437647
4370.0 60.91333814590266
4500.0 61.595999162460544
4620.0 62.41210234892013
4750.0 61.92228688048429
4870.0 61.47736498864582
5000.0 62.05885664136798
5150.0 61.73832398306779
5300.0 62.255550529044484
5450.0 62.81089925439484
5600.0 63.046380150807934
5800.0 63.05123548549099
6000.0 63.01616197508086
6150.0 63.11980499277509
6300.0 63.11706252370095
6500.0 62.704732699379605
6700.0 62.92442766841458
6900.0 62.509991738984255
7100.0 62.310754476313306
7300.0 61.52306054457074
7500.0 61.863700337604655
7750.0 63.3218483181421
8000.0 63.645000870759276
8250.0 61.68343431826453
8500.0 61.17808604710024
8750.0 62.59909854907025
9000.0 64.0685039044986
9250.0 64.64085862128763
9500.0 63.39047012752428
9750.0 63.254405702309086
10000.0 63.537446348657554
10300.0 65.59987365975734
10600.0 65.72868243833734
10900.0 63.76804508992244
11200.0 63.62804150994373
11500.0 64.23021747519364
11800.0 64.83827803551978
12200.0 64.15420653588777
12500.0 65.0537530949231
12800.0 65.47753692066173
13200.0 62.475222332023165
13600.0 64.13962023973816
14000.0 63.933889551370854
14500.0 65.45168100342568
15000.0 65.1023301961916
15500.0 64.0297979704231
16000.0 60.500540476680996
16500.0 61.186770639557736
17000.0 61.50830276531546
17500.0 59.978490387064994
18000.0 59.13955226456474
18500.0 58.248200272026935
19000.0 58.93416888042107
19500.0 57.8648100214361
