Freq "Listening Window"
22.4 47.21982751333162
23.0 47.88307504996949
23.6 48.52135845963092
24.0 49.171082442103895
25.0 49.421699225445295
25.8 49.27285058293292
26.5 48.888484073509446
27.2 48.4878819880022
28.0 48.46971158124917
29.0 48.793300475312876
30.0 49.23073584053587
30.7 49.924326521495615
31.5 50.98377181905694
32.5 52.27599079597188
33.5 53.572196710041695
34.5 54.91559944192356
35.5 56.22750303889579
36.5 57.48975560038825
37.5 58.75128104183007
38.7 59.95938021545901
40.0 61.2855558618116
41.2 62.67951913911149
42.5 63.82038576709404
43.7 65.06151720832644
45.0 66.18255857183067
46.2 67.24680370601996
47.5 68.42299215110614
48.7 69.53337770111224
50.0 70.58811790182013
51.5 71.49858708365264
53.0 72.34371548980619
54.5 73.1873681853024
56.0 73.9873681853024
58.0 74.91993480676422
60.0 75.84167169211271
61.5 76.74167169211272
63.0 77.6633003237114
65.0 78.76330032371139
67.0 79.86330032371141
69.0 80.89654598369815
71.0 81.89654598369815
73.0 82.67432502200913
75.0 83.29654598369815
77.5 84.2295390771595
80.0 85.10774122906292
82.5 85.80774122906293
85.0 86.18583342238536
87.5 86.38583342238535
90.0 86.88583342238536
92.5 87.61993480676422
95.0 88.36431699670199
97.5 88.96431699670198
100.0 89.69858708365264
103.0 90.28710651788694
106.0 90.6758578846766
109.0 90.89858708365264
112.0 91.09858708365265
115.0 91.19858708365264
118.0 91.22145756781158
122.0 91.27762342179076
125.0 91.3663501676976
128.0 91.27762342179076
132.0 91.17762342179077
136.0 91.07762342179078
140.0 90.88939668785656
145.0 90.73537880409218
150.0 90.66886784539481
155.0 90.68066483860781
160.0 90.61506667616474
165.0 90.51506667616474
170.0 90.59512470231232
175.0 90.61908911836726
180.0 90.75398022282177
185.0 90.85398022282176
190.0 90.9660930157972
195.0 90.97817211924168
200.0 91.03466741792907
206.0 90.97817211924168
212.0 90.77817211924169
218.0 90.5589668326876
224.0 90.43521574286815
230.0 90.29489578092667
236.0 90.2279307382868
240.0 90.176200890499
250.0 90.12161547294751
258.0 90.07620089049901
265.0 90.06968037783929
272.0 90.05785346841596
280.0 90.01859866444515
290.0 89.86809243945599
300.0 89.71368299453918
307.0 89.65053964800197
315.0 89.63331759401584
325.0 89.65821540711472
335.0 89.65821540711472
345.0 89.44141591097635
355.0 89.15413542081176
365.0 88.97580355941906
375.0 88.97580355941906
387.0 88.78512125110183
400.0 88.49597326112327
412.0 88.22878769627333
425.0 88.1807873854718
437.0 88.33221229614965
450.0 88.45129349986833
462.0 88.65129349986832
475.0 88.87722642174019
487.0 89.12635585805538
500.0 89.46703603478171
515.0 89.63338248916865
530.0 89.61894792704943
545.0 89.47549616935466
560.0 89.24634180403162
580.0 88.79163951129036
600.0 88.1985753374005
615.0 87.80873610074032
630.0 87.60951123057424
650.0 87.68710096509663
670.0 87.91942127849879
690.0 88.18629806011434
710.0 88.30084427903147
730.0 88.1562963533677
750.0 87.84088344773232
775.0 87.48006489806194
800.0 87.22138232629639
825.0 87.22138232629639
850.0 87.53480945656479
875.0 87.79576159603215
900.0 87.99460643657815
925.0 88.07129158663112
950.0 88.01896784184174
975.0 88.02859709778835
1000.0 88.3032452977681
1030.0 88.51028595542978
1060.0 88.55805792096963
1090.0 88.49169186266651
1120.0 88.33108192974535
1150.0 88.08968226758053
1180.0 87.76093890123528
1220.0 87.4979725021462
1250.0 87.21562744549394
1280.0 87.01160075498892
1320.0 87.01532897967775
1360.0 87.40071537464652
1400.0 87.89697920530573
1450.0 88.27027711812862
1500.0 88.2518643159383
1550.0 87.81207956912084
1600.0 87.1381189142752
1650.0 86.4684306188255
1700.0 86.24847199424906
1750.0 86.53028209863459
1800.0 87.24382453517052
1850.0 87.912428185233
1900.0 88.07771162635868
1950.0 87.81059349635267
2000.0 87.21682509086526
2060.0 86.81412328906363
2120.0 86.90737139128936
2180.0 87.56884989761303
2240.0 88.01978722906867
2300.0 87.82229777421485
2360.0 87.20132761182641
2400.0 86.72303474703024
2500.0 86.96527820189341
2580.0 87.60475087150658
2650.0 87.88883803132642
2720.0 87.76347764553202
2800.0 87.58719129785148
2900.0 87.69921567900796
3000.0 87.78842751365806
3070.0 87.41075144172933
3150.0 86.86264217776046
3250.0 86.73387262170948
3350.0 86.63040550471528
3450.0 86.5614491795005
3550.0 86.580295529619
3650.0 86.5575478912416
3750.0 86.36801238851886
3870.0 86.68233491334797
4000.0 86.6352326768927
4120.0 86.25443372503142
4250.0 85.9598246261934
4370.0 85.88329734410358
4500.0 85.70129873281287
4620.0 85.3709781553561
4750.0 85.2921349536504
4870.0 85.22901845768715
5000.0 84.93898009334406
5150.0 84.8441058499094
5300.0 84.635290432631
5450.0 84.38231749611873
5600.0 84.46005146481478
5800.0 84.67240693205397
6000.0 84.59533662555863
6150.0 84.39125409749293
6300.0 84.01470150893402
6500.0 83.55416786221501
6700.0 83.76440495805657
6900.0 83.70331138252668
7100.0 83.25548098786888
7300.0 82.86442437046641
7500.0 82.71148153856187
7750.0 82.49150624331924
8000.0 82.48324259302028
8250.0 82.14095164359287
8500.0 81.819123473867
8750.0 81.64250120721702
9000.0 81.71605408397573
9250.0 81.56077175312646
9500.0 81.25761750625168
9750.0 80.54022458493762
10000.0 80.3430645611393
10300.0 78.29059969505518
10600.0 76.73243554448358
10900.0 77.32958424491783
11200.0 78.92432684770854
11500.0 80.33782220784273
11800.0 80.46628893447335
12200.0 79.76658954836329
12500.0 79.13718411444596
12800.0 79.80651628331067
13200.0 79.52568973736433
13600.0 78.78091656531687
14000.0 78.48105616406097
14500.0 77.4042592800965
15000.0 75.81542533915935
15500.0 76.11209590137626
16000.0 75.73070496910182
16500.0 75.36526186289247
17000.0 74.2666750208701
17500.0 73.60811524276305
18000.0 72.04686532567884
18500.0 70.8752974212854
19000.0 69.46050077309111
19500.0 66.89811090337535
