Freq "Estimated In-Room Response"
22.4 33.91174445763289
23.0 35.05258114131365
23.6 37.308165522669185
24.0 39.151869583108294
25.0 39.88759458730408
25.8 41.38379154917371
26.5 42.54361890646655
27.2 43.00315628849927
28.0 42.98685518480613
29.0 44.02072698525237
30.0 44.23201156494764
30.7 45.072885509253524
31.5 46.80647798349244
32.5 47.75846694898112
33.5 48.81112907340278
34.5 50.63311293020726
35.5 53.03638418438467
36.5 55.218189701325855
37.5 57.582223585324186
38.7 60.22011157576674
40.0 62.70067067433128
41.2 65.15420654883991
42.5 67.83764496705979
43.7 71.04918329709386
45.0 73.0140767610475
46.2 74.47027221375636
47.5 76.19277353739008
48.7 77.73938090868705
50.0 79.12518478026799
51.5 80.35544909357057
53.0 81.44941661600465
54.5 82.41634975381163
56.0 83.20888729068763
58.0 83.78291896235162
60.0 84.27665841997417
61.5 84.5599724476577
63.0 84.71334699530526
65.0 84.8831588495565
67.0 85.06214648039659
69.0 85.28957844773649
71.0 85.52764010545098
73.0 85.74157424983352
75.0 86.02878866172362
77.5 86.30974129547477
80.0 86.4948714657911
82.5 86.60479060556418
85.0 86.67653150443492
87.5 86.66168067677975
90.0 86.53127594606008
92.5 86.27339481445972
95.0 85.88145505096963
97.5 85.5802617051927
100.0 85.43629268865391
103.0 85.42140314293917
106.0 85.5675001321771
109.0 85.78521703503898
112.0 86.07796222807501
115.0 86.26850978949656
118.0 86.36215975866395
122.0 86.39094044697023
125.0 86.35960816816706
128.0 86.24827367591408
132.0 86.13207127232096
136.0 86.00365135855867
140.0 85.78681591907846
145.0 85.48127672482619
150.0 85.37889184635101
155.0 85.41862016094215
160.0 85.5575994947784
165.0 85.76731719628185
170.0 85.88021663449535
175.0 85.78862247182708
180.0 85.58699825464991
185.0 85.32577603566112
190.0 85.06930388974094
195.0 84.82971298555839
200.0 84.49263356482682
206.0 84.28541959766886
212.0 84.41103232178158
218.0 84.79042386864396
224.0 85.29796499656265
230.0 85.8084629000957
236.0 86.05014679958664
240.0 86.02912342304957
250.0 85.91903113768947
258.0 85.76935564083793
265.0 85.63830465526567
272.0 85.54128858147443
280.0 85.49430257149501
290.0 85.47331649718721
300.0 85.38797221965976
307.0 85.26109491052505
315.0 85.13782795979711
325.0 84.97219088467088
335.0 84.79911300204387
345.0 84.62148893074121
355.0 84.48016066717784
365.0 84.4321450404371
375.0 84.50027026069458
387.0 84.51013792766378
400.0 84.41875361856694
412.0 84.09403721203279
425.0 83.55433656455192
437.0 82.96620875790413
450.0 82.50097186276292
462.0 82.16463972358343
475.0 82.13251962515652
487.0 82.23003113427
500.0 82.33771596956319
515.0 82.49834754454858
530.0 82.5706676035165
545.0 82.33582542486575
560.0 81.97293887381795
580.0 81.53717908988176
600.0 81.01999607465083
615.0 80.6990266503732
630.0 80.56477860592506
650.0 80.55398223449352
670.0 80.75701584441951
690.0 81.11611004814394
710.0 81.38972260990428
730.0 81.40221851306936
750.0 80.95235593178052
775.0 80.22674002053678
800.0 79.74678787337956
825.0 79.59423801513454
850.0 80.01913596692866
875.0 80.70889866032806
900.0 81.1828079790889
925.0 81.44807250927718
950.0 81.43550813694127
975.0 81.28854556931873
1000.0 81.12448983049492
1030.0 80.94003931799261
1060.0 80.88273439677491
1090.0 80.81290535948631
1120.0 80.78283310365313
1150.0 80.80645969367185
1180.0 80.83487501392442
1220.0 80.80052444054616
1250.0 80.71653977655171
1280.0 80.60533736995069
1320.0 80.64470493960425
1360.0 80.76057348662206
1400.0 80.82911841175745
1450.0 80.67998511773246
1500.0 80.32372222357036
1550.0 80.13171959151825
1600.0 79.83392537861157
1650.0 79.61750134853523
1700.0 79.44239473549382
1750.0 79.01632060449232
1800.0 78.5748287804631
1850.0 78.19741266683707
1900.0 77.88861772281413
1950.0 77.78645364356389
2000.0 77.88136840104266
2060.0 78.0929866097407
2120.0 78.21668026502545
2180.0 78.390171980807
2240.0 78.23912798235305
2300.0 77.87896692562337
2360.0 77.93314911646549
2400.0 77.82773732168832
2500.0 77.8197040224909
2580.0 78.0790859589164
2650.0 78.0242568778211
2720.0 77.96234472175587
2800.0 77.71199513409465
2900.0 77.47293847028874
3000.0 77.6656667054504
3070.0 77.91624255509974
3150.0 78.22700337823336
3250.0 78.44010749601682
3350.0 78.13872878823226
3450.0 77.52162068675742
3550.0 77.44256796191078
3650.0 77.7764565299799
3750.0 78.00097389160486
3870.0 78.13719985190318
4000.0 78.61358018231434
4120.0 79.05412511185006
4250.0 78.80278780885529
4370.0 78.40390485195842
4500.0 77.7988889375277
4620.0 78.2340030409967
4750.0 78.63459808462997
4870.0 78.4937008490845
5000.0 78.4502749445264
5150.0 78.48347097003594
5300.0 78.32759322325104
5450.0 78.30690285291215
5600.0 78.38573860996252
5800.0 78.09015296396939
6000.0 77.86828993845756
6150.0 77.78485625013863
6300.0 78.22774816071751
6500.0 78.54192620315732
6700.0 78.97077007837044
6900.0 79.21769727385794
7100.0 78.97389533807875
7300.0 78.66364744506629
7500.0 78.07829011111416
7750.0 78.00446932606303
8000.0 78.8335754135765
8250.0 79.12053673197948
8500.0 79.4640227881651
8750.0 79.47140731870718
9000.0 79.70592678596783
9250.0 80.11463388382212
9500.0 80.05263628092544
9750.0 79.84989930874261
10000.0 79.56732742015377
10300.0 79.81878256085727
10600.0 80.56975746460384
10900.0 80.60586322308646
11200.0 79.65376525982427
11500.0 79.00209648023886
11800.0 78.33718981589965
12200.0 77.51222046604369
12500.0 79.11561397697433
12800.0 78.53934367332694
13200.0 78.2252262636076
13600.0 79.08698111394425
14000.0 79.56795357555279
14500.0 78.50449611315844
15000.0 77.53459400654438
15500.0 74.84152038886344
16000.0 75.96392971515814
16500.0 74.28017894281098
17000.0 74.38028169438745
17500.0 73.4057905020934
18000.0 70.27333841023984
18500.0 68.33269540807267
19000.0 62.77102895229797
19500.0 62.703339518632305
