Freq,On Axis,Listening Window,Sound Power,Early Reflections,Early Reflections DI,Sound Power DI,DI offset
20.5078,54.78559999999999,54.83601064037177,55.03648668069633,54.880523035272915,39.95548760509885,39.79952395967544,40
21.9727,54.560599999999994,54.578605177901295,54.87645171904566,54.62726728249007,39.95133789541123,39.70215345885563,40
23.4375,55.313500000000005,55.33164604798435,55.78425555342801,55.45056338164454,39.88108266633981,39.54739049455634,40
24.9023,56.9451,56.953801622952966,57.186946113700714,56.972509908543884,39.98129171440908,39.76685550925225,40
26.3672,56.959299999999985,56.95378252527664,57.032564640578585,56.880639493317204,40.07314303195943,39.92121788469805,40
27.832,60.16300000000001,60.152460488888096,60.05247395354169,59.99019922552125,40.162261263366844,40.0999865353464,40
29.2969,62.05760000000001,62.05421234853752,62.091743279538306,61.97276298252278,40.08144936601474,39.96246906899921,40
30.7617,63.4752,63.46691577115742,63.53426507989133,63.40431729906335,40.062598472094066,39.93265069126609,40
32.2266,65.7192,65.70873572923738,65.69573290168763,65.6053040752886,40.103431653948775,40.01300282754974,40
33.6914,67.6684,67.65605925959991,67.56497964177507,67.52382656768557,40.13223269191434,40.091079617824846,40
35.1562,69.4579,69.45134342209894,69.48047565576115,69.38383086011628,40.06751256198267,39.97086776633779,40
36.6211,71.3799,71.36980079048459,71.3128929817111,71.26319787459889,40.1066029158857,40.05690780877349,40
38.0859,73.2316,73.22092917241149,73.12637274964797,73.0969010399893,40.12402813242218,40.09455642276352,40
39.5508,74.81809999999999,74.8090322131602,74.7273541781149,74.69679191275036,40.11224030040984,40.0816780350453,40
41.0156,76.2979,76.28739572672485,76.17804048080745,76.16777453708765,40.1196211896372,40.1093552459174,40
42.4805,77.019,77.00608709919439,76.86946136241211,76.87070110533219,40.1353859938622,40.13662573678228,40
43.9453,77.8759,77.86274890290365,77.70689557373329,77.7208308579273,40.14191804497635,40.155853329170355,40
45.4102,78.3187,78.30454618540712,78.11663651824031,78.14903352929406,40.15551265611306,40.18790966716681,40
46.875,78.6865,78.67047565751076,78.44089134917107,78.49521329364931,40.17526236386145,40.229584308339696,40
48.3398,79.0053,78.98863361468469,78.73997844536473,78.80519105276511,40.18344256191958,40.24865516931996,40
51.2695,79.4299,79.41337004192114,79.15832267267314,79.22900679105851,40.18436325086263,40.255047369248004,40
52.7344,79.64150000000001,79.62438048702252,79.37146660575809,79.4422344313191,40.18214605570343,40.25291388126443,40
54.1992,79.8649,79.8467591705924,79.57160864989213,79.65591679331766,40.19084237727475,40.27515052070028,40
55.6641,80.0935,80.0751645571877,79.78873999004941,79.88063245432755,40.19453210286015,40.2864245671383,40
58.5938,80.53039999999999,80.51173306456275,80.22509436879082,80.31827572039163,40.19345734417112,40.28663869577193,40
60.0586,80.7985,80.77852555449311,80.48744590680892,80.58307915645776,40.19544639803536,40.2910796476842,40
62.9883,81.417,81.39515205178922,81.05069313589735,81.17612459519661,40.21902745659261,40.34445891589188,40
64.4531,81.63830000000002,81.61504067439417,81.24814860420942,81.38514087920454,40.229899795189624,40.36689207018475,40
67.3828,82.0326,82.00875453194863,81.62392567506332,81.77051377691781,40.238240755030816,40.384828856885306,40
68.8477,82.1338,82.11042167960574,81.7426931923,81.88188644080162,40.22853523880411,40.36772848730574,40
71.7773,82.4091,82.38483113035596,82.01687329678491,82.15806449407877,40.22676663627719,40.367957833571054,40
74.707,82.5819,82.55925769862172,82.21766281579403,82.34817167121754,40.21108602740418,40.34159488282769,40
77.6367,82.67250000000001,82.64896803692469,82.30775237225598,82.43870701729205,40.21026101963264,40.34121566466871,40
79.1016,82.74860000000001,82.72427698293197,82.37096521274361,82.50809058724892,40.21618639568305,40.353311770188355,40
82.0312,83.0298,83.00314038794875,82.61141350788697,82.76912141073947,40.234018977209274,40.39172688006178,40
84.9609,83.15979999999999,83.13244360998695,82.72891165773514,82.89363013013565,40.2388134798513,40.40353195225181,40
87.8906,83.1218,83.0954721730416,82.73128470433939,82.87686254630466,40.218609626736935,40.36418746870221,40
90.8203,83.3728,83.34638788650368,83.03164295618384,83.15220113654559,40.19418674995809,40.31474493031983,40
95.2148,83.7064,83.67636516048536,83.24500186177794,83.42832373693864,40.248041423546724,40.431363298707424,40
98.1445,83.8878,83.85690468179449,83.3542140568928,83.58002191724341,40.276882764551075,40.50269062490169,40
101.074,83.86790000000002,83.83819284155378,83.39255664435761,83.59165600477778,40.246536836776,40.445636197196166,40
105.469,83.82940000000002,83.80219538978008,83.45251750943106,83.59548443910202,40.20671095067806,40.34967788034902,40
108.398,83.8633,83.8266853054656,83.41749406767896,83.58458594245255,40.242099363013054,40.409191237786644,40
112.793,83.7449,83.70230636060931,83.2885537997443,83.45283189696823,40.24947446364108,40.41375256086501,40
117.188,83.6501,83.60292778100421,83.04647120319646,83.2890661856502,40.31386159535401,40.55645657780775,40
120.117,83.5547,83.50893170331064,82.90977570659444,83.17597989568856,40.33295180762208,40.59915599671619,40
124.512,83.5937,83.54621640888453,82.8853669465102,83.18641201586289,40.35980439302165,40.66084946237433,40
128.906,83.33439999999999,83.2799173043959,82.5195530051967,82.87165271085313,40.40826459354277,40.760364299199196,40
133.301,83.0421,82.99475370469528,82.34063180354912,82.63316823619351,40.36158546850177,40.65412190114617,40
139.16,82.7183,82.66306094640504,82.03668891321486,82.30918187600062,40.35387907040442,40.62637203319018,40
143.555,82.7935,82.72418716046792,81.91684358821593,82.2805367914574,40.44365036901053,40.807343572251995,40
147.949,82.8802,82.81544299354111,81.88496151404175,82.32467864756015,40.49076434598096,40.93048147949936,40
153.809,82.6791,82.61677467476812,81.61199025755992,82.10038064341511,40.516394031353016,41.0047844172082,40
159.668,82.5616,82.50176428411335,81.61478995977966,82.03469798798014,40.46706629613321,40.88697432433369,40
165.527,82.3928,82.32619768517488,81.55197398059619,81.89914366760085,40.42705401757402,40.77422370457869,40
171.387,82.5452,82.48153712203288,81.54335431113398,81.99655179043103,40.48498533160185,40.938182810898894,40
177.246,82.4095,82.34352131752465,81.47211083979164,81.86916669051412,40.47435462701053,40.87141047773301,40
183.105,82.5258,82.44569894424711,81.48257098181392,81.93100415622077,40.51469478802635,40.96312796243319,40
188.965,82.70759999999999,82.62431348591251,81.4810174793908,82.0397900982273,40.58452338768521,41.14329600652171,40
196.289,82.91560000000001,82.83181742318558,81.7000070318648,82.26451469160382,40.56730273158176,41.13181039132078,40
203.613,83.0793,82.98985026454794,81.7887771780775,82.3951099300986,40.59474033444934,41.201073086470444,40
210.938,83.2609,83.17254653061376,81.80899726930868,82.50144878741435,40.67109774319941,41.36354926130508,40
218.262,83.26,83.17474160642148,81.97221780951847,82.57365766758932,40.60108393883216,41.20252379690301,40
225.586,83.50049999999999,83.41424559130894,82.01661318192507,82.71721082670584,40.6970347646031,41.397632409383874,40
232.91,83.4839,83.38998075999197,81.91141523939335,82.65920035990976,40.73078040008221,41.47856552059862,40
241.699,83.38210000000001,83.28527956729154,81.7178252415726,82.52918966095281,40.75608990633873,41.56745432571894,40
250.488,83.4937,83.38363092699603,81.65577138961238,82.56266306334764,40.82096786364839,41.72785953738365,40
259.277,83.6267,83.5226991888751,81.81071717763939,82.73259371963717,40.79010546923793,41.711982011235705,40
268.066,83.3676,83.2598637680188,81.46861881768615,82.42162058231835,40.83824318570045,41.791244950332654,40
276.855,83.217,83.12153850234444,81.38997916606534,82.34186536575348,40.77967313659096,41.73155933627909,40
287.109,82.7473,82.6706732267771,81.23033175549568,81.96430767523304,40.70636555154405,41.440341471281414,40
297.363,83.3397,83.22698260617864,81.30779959763389,82.31435545922201,40.91262714695662,41.91918300854475,40
307.617,83.0888,83.02453693497597,81.26056589483696,82.19683272060168,40.82770421437429,41.76397104013901,40
319.336,83.3414,83.20499130433141,81.13732969309127,82.22422109324178,40.980770211089634,42.06766161124014,40
329.59,82.9899,82.91495066633358,80.94772037469701,82.00807109051574,40.90687957581784,41.96723029163657,40
341.309,83.2806,83.13699780357547,80.99271951691426,82.10627981217479,41.03071799140068,42.144278286661205,40
353.027,82.9562,82.8750030067661,80.82564913996794,81.92731578196364,40.94768722480245,42.04935386679816,40
366.211,83.3281,83.22962857230613,80.92321048874868,82.14147334678886,41.08815522551727,42.306418083557446,40
379.395,83.2943,83.19499344247127,81.19034889882732,82.30146767345403,40.893525769017245,42.00464454364395,40
392.578,82.9947,82.88485895920292,80.8830035777389,81.95291199165459,40.93194696754833,42.00185538146401,40
405.762,83.506,83.34761273832974,80.80740685070228,82.20413960628547,41.14347313204428,42.540205887627465,40
420.41,83.37199999999999,83.28707844309105,80.93669846443852,82.1872682791253,41.09981016396574,42.350379978652526,40
435.059,83.356,83.2809595516649,80.91233941979625,82.14184231544424,41.13911723622067,42.36862013186865,40
451.172,83.2688,83.17569479042413,80.93839629710826,82.1720234317956,41.00367135862854,42.237298493315876,40
465.82,83.5383,83.37743564008497,80.89263534295631,82.18834513315294,41.18909050693203,42.48480029712866,40
483.398,83.3028,83.18552405991431,80.75049292546099,81.9292215260991,41.256302533815216,42.435031134453325,40
499.512,83.80539999999999,83.59069463845347,80.85467120684814,82.22638364440456,41.36431099404891,42.73602343160533,40
517.09,83.70779999999999,83.5782193590184,81.09992342409329,82.39681484478687,41.18140451423153,42.478295934925114,40
536.133,83.8937,83.69242231248163,80.82528031342437,82.29834717953187,41.39407513294975,42.86714199905725,40
555.176,84.0323,83.8240116236728,80.9435405763346,82.38660813040377,41.43740349326903,42.880471047338204,40
574.219,84.42679999999999,84.11186452412608,81.2323196666525,82.70660053986033,41.405263984265744,42.879544857473576,40
594.727,84.6583,84.18495014794358,80.96794993342232,82.58635382980859,41.598596318134994,43.21700021452126,40
615.234,85.1011,84.62849059219883,80.49720230666047,82.44011191666517,42.188378675533656,44.13128828553836,40
637.207,84.3825,84.20236682403743,80.00741739234465,82.0607960110871,42.14157081295032,44.19494943169278,40
659.18,84.1476,83.9788440149554,80.19096072115713,82.2871572954742,41.6916867194812,43.787883293798274,40
682.617,84.32,83.85472059172469,80.05239566573644,82.15136380897545,41.70335678274924,43.802324925988245,40
707.52,84.227,84.04461002530613,80.06113301505229,82.21587469921134,41.82873532609479,43.983477010253836,40
732.422,83.9644,83.81414426841259,80.21751109334006,82.35219244022397,41.46195182818862,43.596633175072526,40
757.324,84.503,84.12452962127009,79.73304608744567,81.9681751790663,42.15635444220379,44.39148353382441,40
785.156,84.2577,84.04551256955259,79.96863121047177,82.22201503691507,41.82349753263752,44.076881359080815,40
811.523,84.6919,84.46541340547712,79.98474061257566,82.31577809917826,42.14963530629886,44.48067279290146,40
840.82,84.62959999999998,84.35424513472447,79.99251493562035,82.34791218822281,42.00633294650166,44.361730199104116,40
870.117,84.3123,84.11816786142289,80.44848966476354,82.62611707918458,41.49205078223831,43.66967819665935,40
900.879,84.424,84.17157571818109,80.334828431694,82.67183127718974,41.49974444099135,43.83674728648708,40
933.105,84.384,84.41299137484606,80.49327779238155,82.81815308614911,41.59483828869695,43.91971358246451,40
965.332,84.47540000000001,84.00484963382272,80.03652362495886,82.56012566622155,41.44472396760116,43.968326008863855,40
1000.49,84.05190000000002,83.90893524429116,80.42832421007567,82.88675308293409,41.022182161357065,43.480611034215485,40
1035.64,84.048,83.91353986151003,80.33721384450723,83.08498767278302,40.828552188727016,43.5763260170028,40
1072.27,83.4581,83.04338527453143,80.04227773145168,82.65815061219435,40.38523466233708,43.001107543079755,40
1108.89,83.8435,83.64996102537191,80.1600997575919,82.99212072195894,40.65784030341297,43.489861267780014,40
1148.44,83.9718,83.3568728890372,79.86995164662966,82.62731702408257,40.729555864954634,43.48692124240755,40
1189.45,84.53829999999999,83.91947534358937,79.92025502282186,82.53220089934949,41.38727444423988,43.999220320767506,40
1230.47,85.1965,84.43444659219331,79.78413531787318,82.53109177142228,41.90335482077103,44.65031127432013,40
1274.41,84.638,84.21608085619651,79.54268411003567,82.14960460371186,42.06647625248465,44.67339674616085,40
1319.82,84.24260000000001,84.09548841829506,79.13716015161519,82.08380776470109,42.01168065359397,44.95832826667987,40
1366.7,84.2933,83.77566726062496,78.6312590628262,81.66154067431026,42.1141265863147,45.144408197798754,40
1413.57,83.0305,82.74425045067552,78.18646641699793,81.25859234786468,41.485658102810845,44.55778403367759,40
1463.38,81.8151,81.47790253256382,77.12161717213023,80.31966537269497,41.15823715986885,44.35628536043359,40
1516.11,81.0701,80.77062829319706,76.18392884053726,79.42183883266901,41.34878946052805,44.5866994526598,40
1568.85,80.9947,80.60770535888393,75.73830113426999,78.99944302424595,41.608262334637985,44.869404224613945,40
1624.51,81.1368,80.55379354850066,75.29106116643581,78.55226209026439,42.00153145823627,45.262732382064854,40
1681.64,82.1994,81.47626474527684,75.63964747684187,78.94672329058506,42.52954145469178,45.83661726843496,40
1741.7,83.5286,82.66824762760916,76.28061289887907,79.45375032681143,43.21449730079773,46.38763472873009,40
1803.22,82.9691,82.34733599923734,76.07381954563289,79.35183509174371,42.995500907493636,46.27351645360446,40
1866.21,82.49359999999999,82.09359039428298,76.12182551120912,78.96511899455916,43.12847139972382,45.97176488307386,40
1932.13,82.8859,81.85497227692493,75.83925996629434,79.45675887960158,42.398213397323346,46.01571231063059,40
1999.51,82.7617,81.93842888910284,76.14952741002485,79.15545170806388,42.78297718103896,45.78890147907799,40
2069.82,83.3355,82.21368972507932,75.80937295088586,78.75642223825614,43.457267486823184,46.40431677419346,40
2143.07,82.3563,81.92356093457019,75.89803987934381,78.76542496197555,43.158135972594636,46.02552105522638,40
2219.24,81.9621,81.11819469811758,75.53329467683496,78.45245494302307,42.665739755094506,45.58490002128262,40
2296.88,81.36089999999999,80.46427368242598,75.23022512637466,77.90596296971594,42.55831071271004,45.23404855605132,40
2378.91,81.2268,81.40225008504869,75.93192959726088,78.56509344696258,42.837156638086114,45.470320487787816,40
2462.4,82.4462,82.49675507089492,76.18231970915276,78.94214435271734,43.554610718177585,46.314435361742156,40
2548.83,81.9758,82.08507744859901,76.08467820194308,78.89018160339202,43.194895845206986,46.00039924665593,40
2639.65,81.1636,81.06260749315084,75.43581585624506,78.46396296885628,42.598644524294556,45.62679163690578,40
2731.93,80.5717,80.29927556396528,74.93766608210893,77.92975932928384,42.36951623468144,45.36160948185635,40
2828.61,80.7589,80.74028267441017,75.0160642667816,77.92759064239903,42.81269203201114,45.72421840762857,40
2928.22,81.4854,81.39147421500566,75.28784509741833,78.21498825291516,43.176485962090496,46.10362911758733,40
3030.76,81.44059999999999,81.31823971557807,75.32466647942914,78.2612212581548,43.05701845742327,45.99357323614893,40
3137.7,81.2041,81.0508303400067,75.13679726947727,78.09987193649498,42.95095840351172,45.91403307052943,40
3249.02,80.8168,80.856601100529,75.28341720782382,78.01465916577806,42.84194193475095,45.57318389270519,40
3363.28,80.24680000000001,80.9963075604473,75.43120527685318,78.11133096015135,42.88497660029596,45.56510228359413,40
3481.93,80.3202,81.26000233109202,75.72689192013118,78.44183884500198,42.81816348609004,45.533110410960845,40
3604.98,81.0114,81.83852430018815,76.21379232317219,79.18509843820047,42.653425861987685,45.62473197701597,40
3732.42,81.39759999999998,82.43419581602195,76.28597421430241,79.56455733882395,42.86963847719801,46.14822160171954,40
3864.26,81.3984,81.81412785931568,75.86050175862044,79.51506643997881,42.299061419336866,45.95362610069523,40
4000.49,82.4807,82.14692794852257,75.98013028166542,79.44088381930014,42.706044129222434,46.16679766685715,40
4141.11,82.6054,82.58731479406612,76.19919225062637,79.56632800554948,43.02098678851664,46.38812254343975,40
4287.6,82.7707,82.63145845456091,76.27056408568173,79.69740675424147,42.93405170031944,46.36089436887919,40
4438.48,83.8999,83.10373718051578,76.00052449757021,79.81137848699375,43.29235869352203,47.10321268294557,40
4595.21,83.0337,82.3263195419139,75.47680281405418,79.21443704548625,43.111882496427654,46.84951672785972,40
4756.35,83.48839999999998,82.85480859957528,76.0005895892749,79.55798067606278,43.296827923512495,46.85421901030038,40
4924.8,83.8458,83.130553170649,76.25310748281169,79.67002679117549,43.46052637947351,46.87744568783731,40
5097.66,83.1807,82.20291181738453,76.22211414203431,79.66020225342207,42.54270956396246,45.98079767535022,40
5277.83,83.0035,82.21592698714444,76.31135348121066,79.73358091152824,42.482346075616206,45.90457350593378,40
5463.87,82.8905,82.36140177234923,76.48994528609012,79.76966572428906,42.59173604806017,45.871456486259106,40
5657.23,83.08589999999998,82.14929214397819,76.36005175066092,79.56200302911651,42.587289114861676,45.78924039331727,40
5856.45,82.5643,81.7075834213898,76.3754766577523,79.55009234530536,42.15749107608444,45.3321067636375,40
6062.99,83.2954,81.89060010094192,76.66291816083442,79.96799463211161,41.92260546883031,45.2276819401075,40
6276.86,81.5829,80.54653085839952,76.55427408080641,79.92890338268023,40.61762747571929,43.99225677759311,40
6498.05,80.01239999999999,79.95815357617012,76.79147543701166,79.76452901393408,40.19362456223604,43.16667813915846,40
6726.56,77.2471,79.20377488844957,76.90803265511819,79.89289744830587,39.3108774401437,42.29574223333138,40
6963.87,77.6014,79.76422251877852,76.97649504251595,80.35631947951325,39.40790303926528,42.787727476262575,40
7209.96,81.3298,81.55074558199198,77.11610511858143,80.66590312324885,40.88484245874312,44.434640463410545,40
7464.84,81.833,82.34151012051916,76.44044942567332,80.1400319581039,42.201478162415256,45.90106069484584,40
7727.05,82.62969999999999,82.95131421994903,76.47399324986075,80.09107112807501,42.86024309187401,46.47732097008827,40
7999.51,82.632,82.88992073190016,76.00494288278344,79.60365836374031,43.28626236815985,46.88497784911672,40
8282.23,82.2558,82.41558158519803,75.83648220500254,79.81476607382207,42.600815511375956,46.57909938019549,40
8573.73,82.0259,82.20923723659351,75.62681326956255,79.87480189262087,42.33443534397264,46.58242396703096,40
8876.95,82.1544,82.12048818452013,75.18091036054655,79.17707720783775,42.94341097668237,46.93957782397358,40
9188.96,82.5863,82.31709654214121,74.84091167116847,78.84999881764668,43.467097724494536,47.476184870972745,40
9514.16,82.7232,82.49961886813097,74.80866805754718,79.00509398937751,43.49452487875345,47.690950810583786,40
9849.61,83.047,82.72167629457954,74.60649134990891,79.02643241501866,43.69524387956088,48.11518494467063,40
10196.8,83.3945,82.93106859975791,74.35661472401007,78.85072835879272,44.080340240965185,48.574453875747835,40
10555.7,83.375,82.63329108724177,73.92809814358513,78.42539445392481,44.20789663331696,48.70519294365664,40
10927.7,82.9748,82.5131265764511,73.75108156183757,78.20923852329643,44.303888053154665,48.762045014613534,40
11313.0,82.9575,82.55198481172025,73.50998348652455,78.21954489244467,44.33243991927557,49.0420013251957,40
11712.9,82.99859999999998,82.43237395244579,73.22994930612383,77.9372367509224,44.49513720152339,49.20242464632196,40
12126.0,82.7774,82.28926019588451,72.9747897873156,77.78145470557844,44.50780549030607,49.31447040856891,40
