Freq "Listening Window"
20.5078 55.071733367644526
21.9727 54.81432790517405
23.4375 55.56736877525711
24.9023 57.189524350225724
26.3672 57.189505252549395
27.832 60.388183216160854
29.2969 62.28993507581028
30.7617 63.702638498430176
32.2266 65.94445845651013
33.6914 67.89178198687267
35.1562 69.6870661493717
36.6211 71.60552351775735
38.0859 73.45665189968425
39.5508 75.04475494043295
41.0156 76.52311845399761
42.4805 77.24180982646715
43.9453 78.0984716301764
45.4102 78.54026891267988
46.875 78.90619838478352
48.3398 79.22435634195745
51.2695 79.6490927691939
52.7344 79.86010321429528
54.1992 80.08248189786516
55.6641 80.31088728446046
58.5938 80.7474557918355
60.0586 81.01424828176587
62.9883 81.63087477906198
64.4531 81.85076340166692
67.3828 82.24447725922138
68.8477 82.3461444068785
71.7773 82.62055385762872
74.707 82.79498042589448
77.6367 82.88469076419744
79.1016 82.95999971020473
82.0312 83.2388631152215
84.9609 83.36816633725971
87.8906 83.33119490031436
90.8203 83.58211061377644
95.2148 83.91208788775812
98.1445 84.09262740906725
101.074 84.07391556882654
105.469 84.03791811705284
108.398 84.06240803273836
112.793 83.93802908788207
117.188 83.83865050827697
120.117 83.7446544305834
124.512 83.78193913615729
128.906 83.51564003166865
133.301 83.23047643196804
139.16 82.8987836736778
143.555 82.95990988774068
147.949 83.05116572081387
153.809 82.85249740204088
159.668 82.73748701138611
165.527 82.56192041244763
171.387 82.71725984930563
177.246 82.5792440447974
183.105 82.68142167151987
188.965 82.86003621318527
196.289 83.06754015045834
203.613 83.2255729918207
210.938 83.40826925788652
218.262 83.41046433369424
225.586 83.6499683185817
232.91 83.62570348726473
241.699 83.5210022945643
250.488 83.61935365426879
259.277 83.75842191614785
268.066 83.49558649529156
276.855 83.3572612296172
287.109 82.90639595404986
297.363 83.4627053334514
307.617 83.26025966224873
319.336 83.44071403160417
329.59 83.15067339360634
341.309 83.37272053084823
353.027 83.11072573403885
366.211 83.46535129957888
379.395 83.43071616974403
392.578 83.12058168647567
405.762 83.5833354656025
420.41 83.5228011703638
435.059 83.51668227893767
451.172 83.41141751769689
465.82 83.61315836735773
483.398 83.42124678718707
499.512 83.82641736572623
517.09 83.81394208629116
536.133 83.92814503975438
555.176 84.05973435094556
574.219 84.34758725139883
594.727 84.42067287521634
615.234 84.86421331947159
637.207 84.43808955131018
659.18 84.21456674222816
682.617 84.09044331899744
707.52 84.28033275257889
732.422 84.04986699568535
757.324 84.36025234854284
785.156 84.28123529682534
811.523 84.70113613274988
840.82 84.58996786199722
870.117 84.35389058869565
900.879 84.40729844545385
933.105 84.64871410211882
965.332 84.24057236109547
1000.49 84.14465797156392
1035.64 84.14926258878279
1072.27 83.27910800180419
1108.89 83.88568375264467
1148.44 83.59259561630996
1189.45 84.15519807086213
1230.47 84.67016931946607
1274.41 84.45180358346927
1319.82 84.33121114556782
1366.7 84.01138998789772
1413.57 82.97997317794828
1463.38 81.71362525983658
1516.11 81.00635102046982
1568.85 80.84342808615669
1624.51 80.78951627577342
1681.64 81.7119874725496
1741.7 82.90397035488192
1803.22 82.5830587265101
1866.21 82.32931312155574
1932.13 82.09069500419768
1999.51 82.1741516163756
2069.82 82.44941245235208
2143.07 82.15928366184295
2219.24 81.35391742539034
2296.88 80.69999640969874
2378.91 81.63797281232145
2462.4 82.73247779816768
2548.83 82.32080017587177
2639.65 81.2983302204236
2731.93 80.53499829123804
2828.61 80.97600540168293
2928.22 81.62719694227842
3030.76 81.55396244285083
3137.7 81.28655306727946
3249.02 81.09232382780176
3363.28 81.23203028772006
3481.93 81.49572505836478
3604.98 82.07424702746091
3732.42 82.66991854329471
3864.26 82.04985058658843
4000.49 82.38265067579533
4141.11 82.82303752133888
4287.6 82.86718118183367
4438.48 83.33945990778854
4595.21 82.56204226918666
4756.35 83.09053132684804
4924.8 83.36627589792175
5097.66 82.43863454465729
5277.83 82.4516497144172
5463.87 82.59712449962198
5657.23 82.38501487125095
5856.45 81.94330614866256
6062.99 82.12632282821468
6276.86 80.78225358567228
6498.05 80.19387630344288
6726.56 79.43949761572233
6963.87 79.99994524605128
7209.96 81.78646830926473
7464.84 82.57723284779192
7727.05 83.18703694722178
7999.51 83.12564345917292
8282.23 82.65130431247078
8573.73 82.44495996386627
8876.95 82.35621091179289
9188.96 82.55281926941397
9514.16 82.73534159540372
9849.61 82.9573990218523
10196.8 83.16679132703067
10555.7 82.86901381451453
10927.7 82.74884930372386
11313.0 82.787707538993
11712.9 82.66809667971854
12126.0 82.52498292315727
12553.7 82.24708936641757
12996.1 81.79466048523982
13454.6 80.97818292087732
13929.2 80.19183797229189
14419.9 80.10791239413119
14928.2 80.53532465552392
15455.6 81.08715804169746
16000.5 81.4797032220515
16564.5 81.48077788254167
17148.9 81.08674041587881
17752.4 80.22230744111056
18379.4 78.95183083401895
19026.9 77.60551212017066
19697.8 76.32660628805978
19999.5 75.82588816316016
