Freq "Listening Window"
20.5078 53.02443301888266
23.4375 57.39808691236806
26.3672 62.01979988910534
29.2969 66.30508551732937
32.2266 69.99385796150186
35.1563 73.1033035988216
38.0859 75.60881916364875
41.0156 77.4375151894306
43.9453 78.84788307476
46.875 79.82879561030106
49.8047 80.61331177898914
52.7344 81.25327979162088
55.6641 81.8335913741917
58.5938 82.39855526891321
61.5234 82.82899551074513
64.4531 83.24963715216188
67.3828 83.72051754132696
70.3125 84.12960863558604
73.2422 84.49215626221877
76.1719 84.87784835571055
79.1016 85.13357361087303
82.0313 85.50910249498426
84.9609 85.82814058527467
87.8906 85.91013088066043
90.8203 85.85958808116371
93.75 86.2743974022579
96.6797 86.53223602670303
102.539 86.6730563652548
105.469 86.72771376538546
108.398 86.83140838795994
111.328 86.98484421610063
117.188 87.15535475343657
120.117 87.29944320602864
125.977 87.31962560411354
128.906 87.24199428968362
134.766 87.19360478649261
137.695 87.14778690900424
143.555 87.019723741654
149.414 87.0903145630007
155.273 87.1414324785477
158.203 87.13752058935071
164.063 87.07491556880848
169.922 86.87941162700369
175.781 86.7190437560614
181.641 86.6830556021509
190.43 86.66458601264587
196.289 86.54566748604563
202.148 86.49970702029199
210.938 86.41843324742705
216.797 86.21025906463584
225.586 86.35089511458641
234.375 86.28103441555697
240.234 86.10328154525811
249.023 86.07174486500142
257.813 86.00041877912115
266.602 85.62226151297544
278.32 85.45095954165028
287.109 85.50211541124419
295.898 85.59462469672219
307.617 85.35087931704
319.336 85.2982847858501
331.055 85.34492664974115
342.773 85.43161711128175
354.492 85.5831940629082
366.211 85.68949102208684
377.93 85.64920069243819
392.578 84.80291479640296
407.227 84.81221747731573
421.875 85.57889021226823
436.523 85.91395701406688
451.172 86.58838685657861
465.82 86.54790451356358
483.398 86.30433718153196
500.977 86.15240665955005
518.555 85.63078791226408
536.133 85.85651453391137
553.711 85.71861260010864
574.219 85.49306895755899
594.727 84.99152193121738
615.234 84.67069982028953
638.672 85.38441963874784
659.18 87.13604788071588
682.617 88.07124950373402
706.055 88.47954040093569
732.422 88.08952870866483
758.789 88.12450758933346
785.156 87.74355441674915
811.523 87.36117851290962
840.82 86.92320791595932
870.117 86.39299798018214
902.344 86.28976345499412
931.641 86.3252662168733
966.797 85.99642482621957
999.023 85.43356896967829
1034.18 85.87207064221974
1072.27 86.28577173352379
1110.35 85.9715794062003
1148.44 85.92009444192736
1189.45 86.42252079694482
1230.47 86.57898747146923
1274.41 86.73693562281032
1318.36 86.76888116684923
1365.23 86.45616308608399
1415.04 85.88662446791122
1464.84 85.79528070303638
1514.65 85.86253649512605
1570.31 85.8810030415807
1623.05 85.64777337447165
1681.64 85.36813460361209
1740.23 85.83598744850607
1801.76 86.28424337192371
1866.21 85.81190574167263
1930.66 85.04832723556495
2000.98 85.32161740027014
2071.29 85.80494532413697
2144.53 85.2698630059299
2217.77 84.43257565959831
2296.88 85.2868828855602
2378.91 86.07866328330404
2460.94 85.52279825562613
2548.83 85.41527642815586
2639.65 86.07118318859614
2733.4 86.01666929081918
2827.15 86.10358475303627
2926.76 86.12650381064836
3032.23 86.34867243070093
3137.7 86.7189881953689
3249.02 86.51213873580502
3363.28 86.2855037269008
3483.4 86.62341866137801
3606.45 86.50068375114991
3732.42 86.2596739899754
3864.26 86.44802099102452
3999.02 86.44684688224454
4139.65 86.06840854897267
4286.13 86.90688162278701
4438.48 87.21475458709612
4593.75 87.4905976940286
4757.81 87.34155583007215
4924.8 87.40919930046698
5097.66 87.36908814402365
5279.3 86.95970551544335
5463.87 87.15844490877751
5657.23 86.74390903850603
5856.45 86.90151225391412
6061.52 87.14913248646738
6275.39 87.3675242504553
6498.05 87.38779807102306
6726.56 87.282227929525
6963.87 87.22766079692515
7209.96 86.98398637726149
7464.84 86.89333013933671
7728.52 87.03899358107097
8000.98 87.50289504335717
8282.23 87.88901656588902
8575.2 87.90663185109496
8876.95 87.63527598552815
9190.43 87.3163357757509
9512.7 87.18693527523833
9849.61 87.24460667105244
10195.3 87.54417372179716
10555.7 87.7169353939226
10927.7 87.61797844027572
11314.5 87.42915092755005
11712.9 87.02383017579665
12126.0 86.94572929893066
12553.7 86.88165089970366
12996.1 86.7544054921244
13453.1 86.55251621818509
13927.7 86.19608232499523
14419.9 86.05191443525045
14929.7 86.3123081375999
15454.1 86.69583488627647
15999.0 86.911522729837
16564.5 86.89256927305117
17147.5 87.22847141210178
17753.9 87.6291085998449
18377.9 87.49031996106817
19028.3 87.61036851699686
19699.2 88.06771172110714
19998.0 88.16906426020718
