Freq,On Axis,Listening Window,Sound Power,Early Reflections,Early Reflections DI,Sound Power DI,DI offset
22.4,24.200000000000017,24.514240569616845,25.339138632155766,24.912943163914264,29.60129740570258,29.17510193746108,30
23.0,26.0,26.26919486783487,27.081713701502196,26.65006838352454,29.61912648431033,29.187481166332674,30
23.6,27.700000000000017,28.014240569616845,28.822099302854923,28.418341703359687,29.59589886625716,29.192141266761922,30
24.0,29.400000000000006,29.714240569616834,30.493756510798562,30.10067339993779,29.613567169679044,29.220484058818272,30
25.0,31.200000000000017,31.424683461421438,32.16761138152472,31.777836278830677,29.64684718259076,29.257072079896716,30
25.8,32.79999999999998,33.09177612109562,33.81940424445716,33.44267255007463,29.649103571020987,29.27237187663846,30
26.5,34.5,34.73510130284026,35.456975539339794,35.089465478506696,29.645635824333567,29.27812576350047,30
27.2,36.099999999999994,36.335101302840286,37.05729879110129,36.69175242015939,29.643348882680897,29.277802511738997,30
28.0,37.79999999999998,37.95634471847234,38.637894978190985,38.291988197400315,29.664356521072023,29.318449740281352,30
29.0,39.400000000000006,39.55634471847233,40.20796198394069,39.88309485249644,29.67324986597589,29.34838273453164,30
30.0,40.900000000000006,41.13510130284027,41.741666688618096,41.41545973809028,29.719641564749992,29.393434614222173,30
30.7,42.5,42.656344718472354,43.254071685700836,42.952446994346616,29.70389772412574,29.402273032771518,30
31.5,44.0,44.156344718472354,44.738785895217404,44.44454463381206,29.711800084660297,29.41755882325495,30
32.5,45.5,45.656344718472354,46.19521146998099,45.913270189689655,29.7430745287827,29.461133248491365,30
33.5,47.0,47.06717378562655,47.6241674982889,47.34517851308348,29.72199527254307,29.443006287337653,30
34.5,48.400000000000006,48.511735857115866,49.02485131133355,48.75289332547061,29.758842531645257,29.486884545782317,30
35.5,49.8,49.91173585711587,50.41376601980771,50.15591431917588,29.755821537939994,29.497969837308162,30
36.5,51.2,51.31173585711585,51.78402609751072,51.539742576041164,29.771993281074685,29.52770975960513,30
37.5,52.5,52.61173585711586,53.09218562115289,52.85001285736806,29.761722999747803,29.519550235962967,30
38.7,53.900000000000006,53.97797591781378,54.41142229794448,54.19296097904085,29.78501493877293,29.566553619869296,30
40.0,55.2,55.27797591781378,55.69258651234611,55.49067467387947,29.78730124393431,29.585389405467666,30
41.2,56.5,56.577975917813774,56.96103123484012,56.76539577807081,29.812580139742963,29.616944682973653,30
42.5,57.8,57.789001920046644,58.17151565103015,57.99105067593334,29.797951244113307,29.617486269016496,30
43.7,59.0,59.0,59.364667192457745,59.18876336462351,29.81123663537649,29.635332807542255,30
45.0,60.2,60.2,60.55115724478543,60.385330137324786,29.814669862675217,29.648842755214574,30
46.2,61.400000000000006,61.400000000000006,61.69305347277225,61.53920301711675,29.860796982883258,29.706946527227757,30
47.5,62.5,62.511225499858426,62.8107493240439,62.671587545553734,29.839637954304692,29.70047617581453,30
48.7,63.599999999999994,63.599999999999994,63.865044002848904,63.72700200938499,29.872997990615005,29.73495599715109,30
50.0,64.6,64.6,64.83995507850963,64.72261777509837,29.877382224901623,29.760044921490362,30
51.5,65.6,65.6,65.79999543172633,65.69150226446027,29.908497735539726,29.800004568273664,30
53.0,66.5,66.5,66.69688413291821,66.59992568334599,29.900074316654013,29.803115867081786,30
54.5,67.4,67.4,67.56831595208733,67.48764092595266,29.912359074047345,29.831684047912674,30
56.0,68.20000000000002,68.20000000000002,68.38872071777732,68.29987607540757,29.90012392459245,29.8112792822227,30
58.0,69.0,69.01122549985841,69.16539266488304,69.09338276085046,29.917842739007952,29.84583283497537,30
60.0,69.8,69.78900192004663,69.87152863574948,69.81707996776126,29.97192195228537,29.917473284297145,30
61.5,70.4,70.4,70.49902406875978,70.44998217419082,29.950017825809184,29.900975931240225,30
63.0,71.0,71.0,71.04038470602231,71.00739967741055,29.992600322589453,29.95961529397769,30
65.0,71.5,71.5,71.5445470393686,71.50967839305744,29.990321606942558,29.955452960631405,30
67.0,72.0,71.96692185116049,71.97254382789012,71.9599481044025,30.006973746757993,29.99437802327037,30
69.0,72.3,72.31122549985841,72.34145107528201,72.31428000663774,29.996945493220665,29.9697744245764,30
71.0,72.7,72.7,72.6759855626832,72.67151540296747,30.02848459703253,30.024014437316808,30
73.0,73.1,73.1,73.05132203994621,73.05796489837542,30.042035101624577,30.04867796005378,30
75.0,73.4,73.4,73.35194345535281,73.36195582307872,30.03804417692129,30.048056544647196,30
77.5,73.6,73.61122549985842,73.58334901345384,73.59837902450857,30.012846475349846,30.02787648640458,30
80.0,73.8,73.8,73.73518433060948,73.76016213200158,30.039837867998415,30.064815669390512,30
82.5,74.0,73.94472895057721,73.8493808361034,73.89289215561664,30.05183679496058,30.095348114473808,30
85.0,74.0,74.01122549985841,73.91939774847503,73.96276673195685,30.048458767901565,30.091827751383377,30
87.5,74.1,74.1,73.94921775285448,74.00445684473863,30.095543155261367,30.150782247145514,30
90.0,74.1,74.07797591781377,73.92107238087027,73.98409225002322,30.09388366779055,30.156903536943503,30
92.5,74.0,74.0,73.84247170465207,73.90895917414105,30.091040825858954,30.15752829534793,30
95.0,74.0,73.94472895057721,73.74098944302585,73.8222909863207,30.12243796425652,30.20373950755136,30
97.5,73.8,73.8,73.57713179464339,73.66717566166092,30.132824338339077,30.222868205356605,30
100.0,73.7,73.64472895057722,73.43503278686568,73.52708355520363,30.117645395373586,30.20969616371154,30
103.0,73.5,73.44472895057723,73.19601630787294,73.30640210471503,30.138326845862196,30.24871264270429,30
106.0,73.29999999999998,73.24472895057721,72.97350838939151,73.09151811279432,30.153210837782893,30.2712205611857,30
109.0,73.1,73.0447289505772,72.7417665835626,72.86158116995492,30.183147780622278,30.3029623670146,30
112.0,72.9,72.87797591781379,72.53207499541274,72.67249245939102,30.205483458422762,30.345900922401043,30
115.0,72.7,72.68925841531062,72.33973161710702,72.48934710222156,30.19991131308906,30.3495267982036,30
118.0,72.6,72.54472895057721,72.16423707954237,72.32694344058648,30.217785509990733,30.380491871034835,30
122.0,72.5,72.44472895057723,72.03596887109282,72.21060687093096,30.23412207964627,30.40876007948441,30
125.0,72.5,72.40051167804049,71.96285079486614,72.14788762320423,30.25262405483626,30.437660883174345,30
128.0,72.4,72.38925841531062,71.93118093229103,72.13016678824776,30.25909162706286,30.458077483019594,30
132.0,72.5,72.42293110248065,71.90650394128718,72.12533416405782,30.297596938422828,30.516427161193462,30
136.0,72.5,72.47797591781378,71.92243375757612,72.15800149136687,30.319974426446905,30.555542160237664,30
140.0,72.6,72.53409756292211,71.94428345246789,72.20512410642914,30.328973456492974,30.589814110454228,30
145.0,72.7,72.60051167804048,71.93994192420197,72.21888047337359,30.38163120466689,30.6605697538385,30
150.0,72.6,72.55634471847233,71.86922786408131,72.17574561212916,30.38059910634317,30.68711685439102,30
155.0,72.6,72.50051167804048,71.73222356544994,72.06966726277824,30.430844415262243,30.76828811259054,30
160.0,72.5,72.42293110248065,71.59394581701518,71.95946640654553,30.463464695935116,30.828985285465464,30
165.0,72.4,72.27899271118895,71.41249231757368,71.79771544280865,30.481277268380296,30.86650039361527,30
170.0,72.3,72.17899271118894,71.23766456270897,71.64869380814588,30.53029890304306,30.94132814847997,30
175.0,72.19999999999999,72.13409756292211,71.12341486879144,71.57436800510992,30.55972955781219,31.010682694130665,30
180.0,72.19999999999999,72.07950687011969,71.02385224010402,71.50435562547788,30.575151244641802,31.055654630015667,30
185.0,72.19999999999999,72.05686156553041,70.94515115910733,71.44213990539419,30.614721660136226,31.111710406423086,30
190.0,72.19999999999999,72.11274477799037,70.91059514605432,71.45254099406854,30.66020378392183,31.202149631936052,30
195.0,72.3,72.2015232095018,70.91375945686829,71.49708586176202,30.704437347739784,31.28776375263351,30
200.0,72.4,72.23562068408569,70.88478865579032,71.50202984751616,30.733590836569533,31.350832028295372,30
206.0,72.4,72.23562068408569,70.80724081610836,71.47346718868252,30.76215349540317,31.428379867977327,30
212.0,72.4,72.22419779300913,70.69512053671502,71.40314030857783,30.821057484431293,31.5290772562941,30
218.0,72.3,72.15837672536982,70.54614046112309,71.31018764077163,30.84818908459819,31.612236264246732,30
224.0,72.19999999999999,72.09177612109562,70.3932793893026,71.2011215486152,30.890654572480415,31.698496731793014,30
230.0,72.19999999999999,72.05837672536983,70.25488598550523,71.10461599802923,30.953760727340594,31.8034907398646,30
236.0,72.19999999999999,72.0356206840857,70.14788138250096,71.0493545093652,30.986266174720498,31.887739301584745,30
240.0,72.19999999999999,72.03762776013771,70.0400327466779,70.99989851853876,31.037729241598953,31.997595013459815,30
250.0,72.19999999999999,72.03762776013771,69.95171811654902,70.9677283567734,31.069899403364303,32.08590964358869,30
258.0,72.19999999999999,72.00328449402552,69.81116522059446,70.88874033904963,31.11454415497589,32.19211927343106,30
265.0,72.19999999999999,71.96063752019828,69.66402586786866,70.803433789543,31.15720373065527,32.29661165232962,30
272.0,72.1,71.9376277601377,69.53453472506806,70.72641065415706,31.211217105980637,32.403093035069645,30
280.0,72.1,71.9376277601377,69.42470880982805,70.67662724919839,31.26100051093931,32.512918950309654,30
290.0,72.19999999999999,71.96063752019828,69.37964888397066,70.69917417750545,31.26146334269282,32.580988636227616,30
300.0,72.3,72.06063752019827,69.36800257457193,70.73941360328665,31.32122391691162,32.69263494562634,30
307.0,72.3,72.06063752019827,69.28190388460852,70.72108414622039,31.33955337397788,32.778733635589745,30
315.0,72.3,72.06063752019827,69.17364554944675,70.66855277298745,31.392084747210816,32.886991970751524,30
325.0,72.19999999999999,72.04901542823474,69.03965018047141,70.60263482518958,31.446380603045156,33.00936524776333,30
335.0,72.19999999999999,72.04901542823474,68.96044761846596,70.57611212737802,31.472903300856714,33.088567809768776,30
345.0,72.3,72.06063752019827,68.9188755092203,70.57937498213172,31.481262538066545,33.14176201097797,30
355.0,72.4,72.16063752019826,68.91719048364966,70.6470861586953,31.513551361502962,33.2434470365486,30
365.0,72.4,72.22869601737452,68.87488682597223,70.6617532063718,31.56694281100272,33.35380919140229,30
375.0,72.4,72.24901542823474,68.82899357218102,70.65828880281828,31.590726625416465,33.42002185605372,30
387.0,72.4,72.24901542823474,68.75804890569815,70.63446290445398,31.61455252378076,33.490966522536596,30
400.0,72.4,72.16063752019826,68.64182752885226,70.54838326646973,31.612254253728537,33.518809991346004,30
412.0,72.3,72.06063752019827,68.4589590875539,70.41456072655512,31.646076793643147,33.60167843264438,30
425.0,72.1,71.91725487435673,68.23772901435898,70.225318941745,31.691935932611727,33.67952585999775,30
437.0,72.1,71.84037254002034,68.12866072006783,70.1576561381268,31.682716401893543,33.71171181995251,30
450.0,72.1,71.84037254002034,68.05856038276953,70.1035674589676,31.736805081052736,33.78181215725081,30
462.0,72.0,71.81725487435673,67.99002527604785,70.06127897434207,31.75597590001466,33.82722959830889,30
475.0,71.9,71.64037254002034,67.78361154787859,69.88285933988092,31.757513200139414,33.856760992141744,30
487.0,71.7,71.42896215694927,67.45793405626229,69.60481164747601,31.824150509473256,33.97102810068698,30
500.0,71.9,71.64037254002034,67.59305668653268,69.77584149725512,31.864531042765222,34.04731585348766,30
515.0,72.6,72.36363182410125,68.2277753215951,70.44218933410573,31.921442489995513,34.135856502506144,30
530.0,73.0,72.69855684849736,68.48859415317041,70.7453436254199,31.953213223077455,34.20996269532695,30
545.0,72.8,72.49855684849737,68.19539369150134,70.4811768328126,32.01738001568478,34.303163156996035,30
560.0,72.4,72.05574945230593,67.62615158295053,69.96643609280245,32.08931335950348,34.429597869355405,30
580.0,72.3,71.97892674764836,67.43058478559007,69.80243563197601,32.17649111567235,34.54834196205829,30
600.0,72.5,72.17892674764836,67.50319726167325,69.94243570786135,32.23649103978701,34.67572948597511,30
615.0,72.5,72.11453682579611,67.27146383271044,69.77899952235934,32.335537303436766,34.84307299308567,30
630.0,72.3,71.89542515610898,66.90551353735285,69.47112559750158,32.4242995586074,34.98991161875614,30
650.0,72.19999999999999,71.79542515610899,66.68237070411172,69.3138132727246,32.48161188338439,35.11305445199727,30
670.0,72.0,71.59542515610899,66.31622926230902,69.01920505591211,32.57622010019688,35.279195893799965,30
690.0,72.1,71.65502917746159,66.19503909626555,68.9857174813316,32.66931169612998,35.45999008119604,30
710.0,72.5,72.03652716646842,66.4009624108426,69.27762190141223,32.758905265056185,35.63556475562582,30
730.0,72.0,71.48251605563581,65.64491642685937,68.60129965997069,32.88121639566512,35.837599628776445,30
750.0,70.70000000000002,70.23679901441587,64.26032535239797,67.24401044766053,32.99278856675534,35.976473662017895,30
775.0,68.8,68.28578177876187,62.454460146032744,65.33607876104685,32.949703017715024,35.83132163272913,30
800.0,67.6,67.0217296982294,62.749675310837745,65.12455093984784,31.897178758381557,34.27205438739165,30
825.0,67.8,67.28933309473359,63.93444401651048,66.23167139228454,31.057661702449053,33.35488907822311,30
850.0,69.69999999999999,69.21717763121866,65.78642999604638,68.20592485285833,31.01125277836033,33.43074763517228,30
875.0,71.4,71.06199688107523,69.84597206789081,71.72918306192012,29.332813819155106,31.21602481318442,30
900.0,71.2,71.07307300945781,70.21072445492237,71.60636411813,29.466708891327812,30.862348554535444,30
925.0,71.5,70.91587887080158,65.1657032416854,67.98371306680863,32.932165803992945,35.75017562911617,30
950.0,71.1,70.51107304499288,64.16608319787363,67.39653360353793,33.11453944145495,36.34498984711925,30
975.0,69.6,68.9479461242351,62.557758850403275,65.89514775518599,33.052798369049114,36.39018727383183,30
1000.0,68.0,67.30844672173755,60.59474054644936,64.09541137205905,33.213035349678506,36.713706175288195,30
1030.0,69.6,68.95019148090819,65.4446945414744,68.3127855303432,30.637405950564983,33.50549693943378,30
1060.0,70.9,70.95884824686416,71.89640619270725,73.91778069541833,27.041067551445835,29.062442054156918,30
1090.0,70.6,70.23795930987293,68.19010608140007,70.01180398438161,30.22615532549132,32.04785322847286,30
1120.0,71.2,70.6018719684921,64.81873485791884,67.51143430281311,33.09043766567899,35.783137110573264,30
1150.0,71.7,71.03355699243674,64.54544948101811,67.57476494961249,33.45879204282426,36.48810751141863,30
1180.0,72.9,72.15301714704114,65.42991017411714,68.62245933504605,33.530557811995095,36.723106972924,30
1220.0,73.0,72.34144017686361,65.58413536990732,68.80849376432096,33.53294641254266,36.7573048069563,30
1250.0,73.0,72.36980596682665,65.15172006887428,68.31776627099642,34.05203969583023,37.21808589795236,30
1280.0,73.5,72.81991106204923,66.20197196350436,69.7860292646853,33.03388179736393,36.617939098544866,30
1320.0,74.0,73.34794612423511,66.79604051262925,70.34368094901144,33.004265175223665,36.55190561160586,30
1360.0,73.20000000000002,72.66174643580872,66.66909831017362,70.15823875589926,32.50350767990946,35.9926481256351,30
1400.0,73.7,73.0543531213686,66.3191073928226,70.06242736715302,32.991925754215586,36.735245728546005,30
1450.0,74.4,74.03796589797642,68.65994299039326,72.36580555877485,31.672160339201568,35.37802290758316,30
1500.0,71.7,71.29011446704021,64.81671644890122,68.33737336769482,32.95274109934539,36.473398018138994,30
1550.0,66.5,66.14885738173209,60.66393669216349,64.67280828271574,31.47604909901635,35.4849206895686,30
1600.0,68.8,68.5824989352108,63.49413990992356,67.53082248777162,31.051676447439178,35.08835902528723,30
1650.0,68.20000000000002,68.29487928008214,63.87133173584179,68.13959374132322,30.155285538758918,34.42354754424035,30
1700.0,67.9,67.19114007383365,61.47388756393957,64.9244688109246,32.26667126290906,35.71725250989408,30
1750.0,68.7,68.1199796088641,61.230783529248725,65.11321619161848,33.00676341724562,36.889196079615374,30
1800.0,68.9,69.13823740425445,66.2588714611384,70.55332918253161,28.58490822172284,32.879365943116056,30
1850.0,69.5,68.72481659008609,59.79759127607966,63.05516637477514,35.66965021531095,38.927225314006435,30
1900.0,69.69999999999999,68.73284598471531,59.76142006415904,64.30415978420194,34.42868620051337,38.97142592055627,30
1950.0,70.9,69.76308213101125,60.386923316219296,64.56476671438465,35.1983154166266,39.37615881479195,30
2000.0,72.4,71.68259376238989,63.18202643509858,68.23033765347317,33.452256108916714,38.50056732729131,30
2060.0,72.4,73.86759583430316,72.83155469217968,76.60488423447039,27.26271159983277,31.03604114212348,30
2120.0,72.4,71.93706163866376,64.67756185689012,68.24307689020321,33.69398474846055,37.25949978177364,30
2180.0,72.19999999999999,71.75453801571203,64.25994517122703,68.087941503749,33.666596511963036,37.494592844485,30
2240.0,71.6,71.15165392067951,63.98258069818591,68.32675519201528,32.82489872866422,37.169073222493594,30
2300.0,71.4,70.92537079128941,63.719812186917196,67.94167536147481,32.9836954298146,37.205558604372214,30
2360.0,71.9,71.34696478700141,64.08815762336488,68.08680326254513,33.26016152445628,37.25880716363653,30
2400.0,72.5,71.82337469528899,64.22840345742466,68.26180316099746,33.56157153429153,37.59497123786433,30
2500.0,72.6,71.74666963152481,63.96269816196531,68.04120835572297,33.70546127580184,37.7839714695595,30
2580.0,72.6,71.74436829178607,63.98945499269516,68.11089102756375,33.63347726422232,37.754913299090916,30
2650.0,72.1,71.34554451578572,63.71262307317248,67.78560501964836,33.55993949613736,37.63292144261324,30
2720.0,71.5,70.72772488946622,62.944597614411165,67.18972186707565,33.53800302239057,37.78312727505505,30
2800.0,71.1,70.37558435050069,62.89281447081916,66.94690470508891,33.428679645411776,37.48276987968153,30
2900.0,70.9,70.29184143084434,62.97210649058276,66.88675292177672,33.405088509067625,37.31973494026158,30
3000.0,70.6,69.9460136547072,62.85183329292971,66.64076648087189,33.30524717383531,37.09418036177749,30
3070.0,70.5,69.85286307466181,62.72180266463971,66.50190399801981,33.350959076642,37.1310604100221,30
3150.0,69.9,69.21878323731765,62.14733737427612,65.83478290618874,33.38400033112892,37.07144586304153,30
3250.0,68.8,68.33191916917924,61.37425984765187,64.8961577017928,33.43576146738644,36.95765932152737,30
3350.0,68.0,67.52466056298715,59.98601277579783,63.74546998315223,33.77919057983492,37.53864778718932,30
3450.0,66.6,66.04836514709574,58.465068289950665,62.4156939128746,33.632671234221135,37.58329685714507,30
3550.0,68.20000000000002,67.46149987091952,59.8342794596513,63.88716176923353,33.574338101685996,37.627220411268226,30
3650.0,69.0,67.9970726870902,60.34430367688775,64.39122744709087,33.605845239999326,37.65276901020245,30
3750.0,69.30000000000001,68.22849294105157,60.47855630708354,64.47443570249452,33.75405723855705,37.749936633968034,30
3870.0,69.4,68.15236113748932,60.508437305042094,64.43565258643739,33.71670855105194,37.64392383244723,30
4000.0,70.1,68.84429710915279,61.503795001134364,65.3766133231581,33.467683785994694,37.34050210801843,30
4120.0,71.4,69.86962810124314,62.14703373675091,66.12144719360487,33.74818090763827,37.722594364492224,30
4250.0,71.2,69.6685188119435,61.89804180451509,65.98021773942142,33.68830107252208,37.77047700742841,30
4370.0,71.4,69.64554052330011,61.67144846607479,65.93801631523695,33.70752420806316,37.97409205722532,30
4500.0,71.7,69.84424764568595,61.825934872065375,66.10229834905272,33.74194929663324,38.01831277362058,30
4620.0,71.7,70.09395946290587,62.040654996372425,66.32016409103576,33.77379537187011,38.05330446653345,30
