Freq "Listening Window"
22.4 9.44453683006411
23.0 8.040254415682611
23.6 7.345366597893317
24.0 9.457125984732144
25.0 12.835130864042853
25.8 9.000511678040468
26.5 7.836937284374059
27.2 7.317845336225602
28.0 11.878312951293069
29.0 15.498558037682344
30.0 18.579512857911126
30.7 21.95635060125609
31.5 25.200255846555862
32.5 27.889777334053136
33.5 30.700773453005823
34.5 32.511741800636386
35.5 34.556350601256085
36.5 37.57900455186676
37.5 39.61174180063638
38.7 41.211741800636375
40.0 43.20102343142831
41.2 44.911741800636364
42.5 46.511741800636386
43.7 48.57900455186679
45.0 50.10102343142833
46.2 51.979004551866765
47.5 53.74524128393411
48.7 55.33410347591827
50.0 57.24524128393411
51.5 59.234103475918275
53.0 61.07823306508388
54.5 62.767431573271736
56.0 64.3341034759183
58.0 65.7563506012561
60.0 67.03410347591829
61.5 67.98925841531063
63.0 68.72293703069971
65.0 69.27823306508388
67.0 69.55635060125609
69.0 69.53410347591829
71.0 69.31199695642738
73.0 69.0782330650839
75.0 68.85635060125608
77.5 68.72319152961714
80.0 68.66795310641209
82.5 68.64524128393411
85.0 68.67900455186678
87.5 68.7452412839341
90.0 68.8452412839341
92.5 68.9452412839341
95.0 69.0452412839341
97.5 69.13435732133559
100.0 69.17900455186677
103.0 69.3010292540023
106.0 69.4343573213356
109.0 69.52344601362165
112.0 69.57900455186676
115.0 69.62344601362166
118.0 69.57900455186676
122.0 69.41225209722838
125.0 69.15712598473216
128.0 68.9460186532139
132.0 68.91225209722838
136.0 69.0351366410682
140.0 69.14627180316306
145.0 69.3351366410682
150.0 69.40153498891125
155.0 69.42447592572397
160.0 69.26921833250995
165.0 69.21378897689497
170.0 69.21378897689497
175.0 69.16921833250996
180.0 69.05839436855935
185.0 68.73589808623544
190.0 68.53589808623545
195.0 68.31479768828609
200.0 68.63714958368776
206.0 68.76921833250995
212.0 68.59206176469569
218.0 68.56921833250995
224.0 68.28052357459738
230.0 68.1588821073765
236.0 68.18227624746116
240.0 68.42697396538446
250.0 68.88306496829031
258.0 69.13740325112748
265.0 69.24853850404119
272.0 69.23864316146734
280.0 69.20508659472621
290.0 69.07299648822503
300.0 68.91653658641452
307.0 68.68455466676357
315.0 68.52981269459748
325.0 68.3978762921759
335.0 68.7634435181731
345.0 69.08455466676357
355.0 69.01783468717458
365.0 68.97425492103233
375.0 69.00784658617594
387.0 68.98580975535282
400.0 68.89760199682111
412.0 68.80963585954204
425.0 68.65307665372497
437.0 68.60936230592658
450.0 68.50936230592659
462.0 68.4858097553528
475.0 68.59681591188205
487.0 68.57597694513785
500.0 68.58580975535281
515.0 68.46239902854657
530.0 68.53075429487446
545.0 68.57631425400884
560.0 68.93460277593117
580.0 69.33596316866868
600.0 69.66975236128816
615.0 69.62612118726138
630.0 69.41378151319753
650.0 69.05063454494316
670.0 69.16395549307572
690.0 69.73188260975965
710.0 69.94070803827782
730.0 70.00784658617594
750.0 69.85155803418034
775.0 69.57346459844359
800.0 69.2175217159578
825.0 68.69681591188206
850.0 68.1187971072397
875.0 67.92076820579713
900.0 68.0557859299643
925.0 68.29025505299113
950.0 68.56982433460449
975.0 68.89270082937166
1000.0 69.20447439991155
1030.0 69.50447439991156
1060.0 69.72164490873409
1090.0 69.70991785772084
1120.0 69.44392849051984
1150.0 69.08837005443549
1180.0 68.9331327248767
1220.0 68.91339863947748
1250.0 68.78293353765778
1280.0 68.82876392317617
1320.0 69.55221520499698
1360.0 70.4604931166973
1400.0 70.56223209975245
1450.0 69.98342302449122
1500.0 69.0751954151335
1550.0 68.25439166467282
1600.0 67.87441444573533
1650.0 68.01582224264756
1700.0 68.74917851937421
1750.0 69.51346344898836
1800.0 69.74661902299894
1850.0 69.3639684210212
1900.0 69.30220819350312
1950.0 69.93708784453213
2000.0 70.19613049927642
2060.0 69.70012009258667
2120.0 69.06916661491573
2180.0 69.29652432130924
2240.0 69.2979110301358
2300.0 68.7590060331677
2360.0 68.74972076138212
2400.0 69.1766582146387
2500.0 68.7909860539023
2580.0 68.50280465125887
2650.0 68.72491369764981
2720.0 68.79515322689892
2800.0 68.98579505486101
2900.0 69.16852114282206
3000.0 69.15512337538784
3070.0 69.54574036233113
3150.0 69.19282853578055
3250.0 68.86333497110918
3350.0 69.10402531136627
3450.0 68.79741393118717
3550.0 68.94795409858857
3650.0 69.09341048206731
3750.0 69.18154876417263
3870.0 69.25028115673054
4000.0 69.00726543825444
4120.0 69.1224585449929
4250.0 69.19919596902947
4370.0 69.58054611720749
4500.0 69.28490431224203
4620.0 69.10885686503677
4750.0 68.86018273342724
4870.0 68.64468567645967
5000.0 68.86810024859302
5150.0 68.36116582991123
5300.0 68.43082461760346
5450.0 68.61436634795056
5600.0 68.239854985763
5800.0 68.4446607654471
6000.0 68.82927962503784
6150.0 68.91591504077027
6300.0 68.85630803810945
6500.0 69.13274282441144
6700.0 69.4190333548041
6900.0 69.32570122228178
7100.0 69.05087317806043
7300.0 68.79445327557535
7500.0 68.6710005011502
7750.0 68.8005544515695
8000.0 69.06229905199969
8250.0 69.3964486014861
8500.0 69.49606824400608
8750.0 69.41228067465467
9000.0 69.37514851520051
9250.0 69.47469625423429
9500.0 69.65661059119431
9750.0 69.54813248323272
10000.0 69.52238074462868
10300.0 69.34171674969042
10600.0 69.30813766056748
10900.0 69.38167861890763
11200.0 67.7843336969277
11500.0 67.16718648830697
11800.0 68.0210720392111
12200.0 68.7318725849028
12500.0 67.71276126519702
12800.0 67.71882561305816
13200.0 68.0411942322609
13600.0 68.51137935417547
14000.0 69.20731659745802
14500.0 69.14692770717565
15000.0 69.08779254295
15500.0 68.79788157109772
16000.0 68.41465105434528
16500.0 68.4759355536675
17000.0 68.67146313372474
17500.0 69.22185559412522
18000.0 69.58132045907614
18500.0 69.41722156897502
19000.0 68.7187828959933
19500.0 67.41687068670878
