Freq "On Axis"
22.4 9.399999999999963
23.0 7.999999999999986
23.6 7.299999999999997
24.0 9.499999999999986
25.0 12.899999999999991
25.8 8.999999999999986
26.5 7.8999999999999915
27.2 7.499999999999986
28.0 11.999999999999986
29.0 15.600000000000009
30.0 18.60000000000001
30.7 21.999999999999986
31.5 25.200000000000003
32.5 27.89999999999999
33.5 30.700000000000003
34.5 32.499999999999986
35.5 34.60000000000001
36.5 37.60000000000001
37.5 39.60000000000001
38.7 41.2
40.0 43.2
41.2 44.89999999999999
42.5 46.5
43.7 48.60000000000001
45.0 50.10000000000001
46.2 51.999999999999986
47.5 53.8
48.7 55.39999999999999
50.0 57.3
51.5 59.3
53.0 61.10000000000001
54.5 62.8
56.0 64.40000000000002
58.0 65.8
60.0 67.1
61.5 68.00000000000001
63.0 68.8
65.0 69.3
67.0 69.6
69.0 69.6
71.0 69.40000000000002
73.0 69.10000000000001
75.0 68.9
77.5 68.8
80.0 68.7
82.5 68.7
85.0 68.7
87.5 68.8
90.0 68.9
92.5 69.0
95.0 69.10000000000001
97.5 69.2
100.0 69.2
103.0 69.40000000000002
106.0 69.49999999999999
109.0 69.6
112.0 69.6
115.0 69.7
118.0 69.6
122.0 69.49999999999999
125.0 69.2
128.0 69.0
132.0 69.0
136.0 69.10000000000001
140.0 69.2
145.0 69.40000000000002
150.0 69.49999999999999
155.0 69.49999999999999
160.0 69.40000000000002
165.0 69.3
170.0 69.3
175.0 69.3
180.0 69.2
185.0 68.9
190.0 68.7
195.0 68.5
200.0 68.8
206.0 68.9
212.0 68.8
218.0 68.7
224.0 68.39999999999999
230.0 68.3
236.0 68.39999999999999
240.0 68.6
250.0 69.10000000000001
258.0 69.3
265.0 69.40000000000002
272.0 69.40000000000002
280.0 69.40000000000002
290.0 69.3
300.0 69.10000000000001
307.0 68.9
315.0 68.8
325.0 68.6
335.0 69.0
345.0 69.3
355.0 69.3
365.0 69.2
375.0 69.3
387.0 69.2
400.0 69.2
412.0 69.10000000000001
425.0 68.9
437.0 68.9
450.0 68.8
462.0 68.8
475.0 68.9
487.0 68.9
500.0 68.9
515.0 68.7
530.0 68.8
545.0 68.9
560.0 69.2
580.0 69.6
600.0 70.0
615.0 69.9
630.0 69.7
650.0 69.3
670.0 69.40000000000002
690.0 70.0
710.0 70.2
730.0 70.3
750.0 70.1
775.0 69.8
800.0 69.49999999999999
825.0 69.0
850.0 68.39999999999999
875.0 68.2
900.0 68.39999999999999
925.0 68.6
950.0 68.9
975.0 69.3
1000.0 69.6
1030.0 69.9
1060.0 70.2
1090.0 70.2
1120.0 70.0
1150.0 69.6
1180.0 69.40000000000002
1220.0 69.49999999999999
1250.0 69.40000000000002
1280.0 69.49999999999999
1320.0 70.2
1360.0 71.1
1400.0 71.2
1450.0 70.59999999999998
1500.0 69.7
1550.0 68.8
1600.0 68.39999999999999
1650.0 68.6
1700.0 69.49999999999999
1750.0 70.3
1800.0 70.59999999999998
1850.0 70.3
1900.0 70.4
1950.0 71.2
2000.0 71.60000000000001
2060.0 71.1
2120.0 70.50000000000001
2180.0 70.8
2240.0 70.7
2300.0 70.1
2360.0 70.3
2400.0 70.7
2500.0 70.4
2580.0 70.0
2650.0 70.0
2720.0 69.9
2800.0 70.0
2900.0 70.1
3000.0 70.2
3070.0 70.4
3150.0 69.8
3250.0 69.0
3350.0 69.10000000000001
3450.0 68.6
3550.0 68.8
3650.0 69.10000000000001
3750.0 69.40000000000002
3870.0 69.49999999999999
4000.0 69.0
4120.0 69.0
4250.0 68.5
4370.0 68.9
4500.0 68.6
4620.0 68.7
4750.0 68.7
4870.0 68.6
5000.0 69.0
5150.0 68.6
5300.0 68.8
5450.0 69.10000000000001
5600.0 68.7
5800.0 68.9
6000.0 69.40000000000002
6150.0 69.3
6300.0 69.2
6500.0 69.6
6700.0 70.0
6900.0 70.0
7100.0 69.9
7300.0 69.49999999999999
7500.0 69.3
7750.0 69.40000000000002
8000.0 69.6
8250.0 69.9
8500.0 70.0
8750.0 70.0
9000.0 69.9
9250.0 70.0
9500.0 70.2
9750.0 70.2
10000.0 70.1
10300.0 70.0
10600.0 70.0
10900.0 70.2
11200.0 68.6
11500.0 68.00000000000001
11800.0 69.0
12200.0 69.7
12500.0 68.7
12800.0 68.8
13200.0 69.2
13600.0 69.8
14000.0 70.59999999999998
14500.0 70.59999999999998
15000.0 70.50000000000001
15500.0 70.2
16000.0 69.7
16500.0 69.8
17000.0 69.9
17500.0 70.4
18000.0 70.7
18500.0 70.7
19000.0 70.2
19500.0 68.8
