Freq,Floor Bounce,Ceiling Bounce,Front Wall Bounce,Side Wall Bounce,Rear Wall Bounce,Total Early Reflection
22.4,59.36574968072247,57.42988141850623,58.242203461818264,58.96564188785939,60.557286096693545,59.04129689787658
23.0,59.76574968072248,57.82988141850623,58.642203461818255,59.386599340784386,60.9624524063684,59.44688813435245
23.6,60.20062193191998,58.229881418506224,59.04220346181826,59.80894397950186,61.38109295047465,59.86410499747119
24.0,60.600621931919974,58.59603577521111,59.49634985520093,60.18659934078438,61.77103311261649,60.26124296148602
25.0,61.06955560350552,58.99603577521111,59.896349855200924,60.565641887859385,62.15559795388667,60.667791497021994
25.8,61.4360189344052,59.32988141850623,60.29634985520093,60.94506331201242,62.49592442506194,61.030662312906
26.5,61.83601893440519,59.6960357752111,60.665032658833624,61.32290421111978,62.84397762358674,61.40193355909358
27.2,62.236018934405195,60.12988141850623,61.09634985520094,61.72290421111978,63.241990915803925,61.81126302631009
28.0,62.6360189344052,60.49603577521111,61.49634985520092,62.12290421111979,63.62245306869488,62.2012531622761
29.0,63.036018934405206,60.86346533273564,61.91942072151386,62.522904211119794,63.98815413334653,62.59131477890655
30.0,63.43601893440521,61.229881418506224,62.319420721513865,62.90212164000859,64.36700422452975,62.97689384109343
30.7,63.90520567854281,61.629881418506244,62.719420721513856,63.30212164000861,64.75296777548763,63.388521662719626
31.5,64.30520567854282,62.02988141850622,63.13491267008612,63.702121640008585,65.16197208283415,63.79364753717144
32.5,64.70520567854281,62.42988141850623,63.51942072151385,64.10212164000859,65.54211744398077,64.18555325452029
33.5,65.10520567854282,62.82988141850623,63.934912670086135,64.5021216400086,65.95296777548764,64.5911815778098
34.5,65.50520567854284,63.229881418506224,64.35831134244411,64.90212164000859,66.34211744398078,64.9922501375661
35.5,65.90520567854281,63.62988141850623,64.75831134244412,65.3021216400086,66.73018905151127,65.38899802957665
36.5,66.30520567854283,63.99756476210494,65.15831134244411,65.64051503695879,66.99649322410389,65.73653664205972
37.5,66.63601893440521,64.32988141850622,65.54290278391554,65.99803677143393,67.25772649502412,66.06381266792526
38.7,67.00520567854284,64.69756476210493,65.91192068417116,66.29803677143393,67.54157054173443,66.3968464902177
40.0,67.33601893440519,64.99756476210494,66.28212524480625,66.63549627079037,67.82447092855016,66.71947396362299
41.2,67.73601893440521,65.39756476210493,66.66680109446112,66.99803677143393,68.13017828364156,67.08519555719427
42.5,68.06955560350552,65.76424451583044,67.06680109446113,67.33549627079037,68.44911816826925,67.43244871599552
43.7,68.46955560350551,66.13218349509313,67.43598961900935,67.73549627079038,68.78154587619892,67.80542223238231
45.0,68.8360189344052,66.53218349509312,67.83598961900933,68.0734967375679,69.1184896471238,68.16969952985309
46.2,69.2360189344052,66.89756476210493,68.20635941456071,68.45388203738136,69.45813045233632,68.5406597573182
47.5,69.60062193191997,67.23218349509312,68.60635941456073,68.83276572070312,69.7873098840757,68.90183800092673
48.7,69.96732522293804,67.63218349509312,69.03101886789075,69.1524758073291,70.04651690528192,69.24871032871982
50.0,70.30062193191998,68.03218349509314,69.46048187510705,69.49167097432428,70.3465169052819,69.6029020455042
51.5,70.70062193191998,68.43601893440521,69.88540245418767,69.87121565567753,70.63272668909408,69.97756425049154
53.0,71.06574968072248,68.8360189344052,70.28540245418768,70.2304848366407,70.93156948998637,70.33801400499108
54.5,71.46574968072247,69.2360189344052,70.68540245418767,70.6304848366407,71.24219889251106,70.71768409586028
56.0,71.83218349509313,69.6360189344052,71.08540245418767,71.01021194267568,71.56352015337652,71.08807841500631
58.0,72.23218349509312,70.03601893440519,71.48540245418766,71.36984691511189,71.90971084402038,71.46820736740759
60.0,72.59756476210494,70.4360189344052,71.91075633159682,71.72957443699978,72.20971084402039,71.83524083095296
61.5,72.99756476210493,70.83601893440522,72.31075633159682,72.08938980475966,72.4907987750019,72.20173195935737
63.0,73.32988141850623,71.2360189344052,72.74035665473725,72.46939065302108,72.75890885656155,72.55983037657069
65.0,73.72988141850622,71.63601893440521,73.16597409752097,72.85021568642176,73.06899678520135,72.94277361377155
67.0,74.12988141850624,72.0360189344052,73.58095287546541,73.25021568642177,73.3886459849644,73.32952063078085
69.0,74.49603577521111,72.47194422877035,73.98095287546542,73.61067446419582,73.69913677361312,73.7009848198858
71.0,74.8960357752111,72.87194422877033,74.38095287546541,74.01067446419583,73.99913677361312,74.0811766287406
73.0,75.3291139240506,73.34138570720678,74.90692207406234,74.43094520425302,74.3503207074658,74.5214590918915
75.0,75.8291139240506,73.8413857072068,75.40692207406232,74.87213837016634,74.72905310143005,74.986886857322
77.5,76.26270375093058,74.34138570720678,75.90692207406232,75.31389042608568,75.0908453472929,75.43365179571896
80.0,76.72911392405061,74.8413857072068,76.40692207406232,75.77441896759022,75.47983849666579,75.89750103198841
82.5,77.1960357752111,75.31131359737365,76.86278373114092,76.23509849395803,75.85845733449818,76.34527613758604
85.0,77.69603577521112,75.81131359737364,77.40692207406234,76.71663286575439,76.2630180421497,76.83478838542666
87.5,78.1960357752111,76.31131359737364,77.96278373114092,77.2166328657544,76.67357084512972,77.33209311888494
90.0,78.69603577521112,76.87809907284611,78.47777349769854,77.69851139451731,77.08385872302898,77.82742226792949
92.5,79.16346533273563,77.3780990728461,78.97777349769855,78.179454490814,77.45760880508656,78.29471052657162
95.0,79.62988141850623,77.84828097907814,79.47777349769856,78.64146593946612,77.84677007692062,78.75613817297592
97.5,80.09756476210494,78.31131359737364,79.9627837311409,79.08355686660641,78.16793451958098,79.19875332946471
100.0,80.49756476210493,78.74828097907815,80.40436515047519,79.44475766434317,78.47921115766592,79.59338982100888
103.0,80.89756476210493,79.14828097907815,80.80436515047518,79.82716406901547,78.78423180269704,79.97542136833914
106.0,81.26574968072248,79.48172345607279,81.20436515047518,80.2099018190209,79.06289498778663,80.33495404244815
109.0,81.56574968072246,79.7857864833511,81.53400891778682,80.49132851642133,79.27420185823694,80.62617870849598
112.0,81.83218349509312,80.01894249078534,81.83400891778682,80.73264353431597,79.43724084220116,80.87559725340675
115.0,82.06574968072248,80.24828097907815,82.10436515047516,80.95425109804506,79.59619953427999,81.10474702456011
118.0,82.26574968072248,80.41894249078533,82.30436515047518,81.09724823889096,79.69107323778054,81.27422129628287
122.0,82.36574968072247,80.41894249078533,82.37586542780414,81.17728532554688,79.6923248015911,81.33320268669792
125.0,82.40062193191999,80.41894249078533,82.43400891778683,81.2205859762935,79.61377258525877,81.35464141645136
128.0,82.40062193191999,80.35670111688653,82.44909815806504,81.20407709795839,79.55686916914448,81.33775289055052
132.0,82.30062193191999,80.15670111688655,82.33400891778682,81.02058597629349,79.32547390711483,81.18454818293493
136.0,82.16574968072247,79.85670111688654,82.13400891778683,80.82791953284215,79.0633794136549,80.97928653577172
140.0,81.90062193192,79.49500238464748,81.87586542780416,80.5495505543364,78.7067835445599,80.68694852831405
145.0,81.60062193191999,79.06664169705088,81.57586542780415,80.2495505543364,78.34734408001606,80.36015735415683
150.0,81.30062193191998,78.56664169705087,81.20308646297431,79.89367278014069,77.93766248386228,79.98697147003351
155.0,80.90062193191999,77.96664169705089,80.80308646297432,79.49367278014068,77.41845591070259,79.54389975684843
160.0,80.40062193192,77.33874649086681,80.30308646297433,79.01181441020864,76.8574645500255,79.02248606421988
165.0,79.86955560350553,76.64539175582809,79.75890892160965,78.49367278014068,76.2466089815533,78.45914154003638
170.0,79.26955560350551,76.07809751555902,79.21595838568116,77.99367278014068,75.63232039088402,77.89746783607698
175.0,78.66955560350553,75.69106259968827,78.71595838568118,77.51181441020864,75.03001002486525,77.37707144435255
180.0,78.07488111843531,75.45091131093956,78.28687059869591,77.11181441020865,74.46725155695042,76.92102395482722
185.0,77.48172345607279,75.67809751555902,77.98687059869593,76.81181441020864,73.99083786432139,76.60731171806728
190.0,76.92808837535986,76.1387464908668,77.88687059869591,76.71181441020865,73.6679067284079,76.47466655584236
195.0,76.53874649086681,76.92808837535986,77.98687059869593,76.7936727801407,73.64584298866154,76.59373640738225
200.0,76.19106259968827,77.79007906642242,78.23076604842234,77.01181441020866,73.76149247755635,76.85366526784146
206.0,76.34704182169912,78.91894249078533,78.80308646297432,77.47369338708833,74.20252849552477,77.46962160223305
212.0,76.74704182169913,79.98172345607279,79.47586542780415,78.01547462054052,74.80573499336742,78.18297857487167
218.0,77.87303117266698,81.34504084631767,80.57586542780415,79.06188034082916,76.00829894064144,79.36733892681275
224.0,78.98559387066666,82.51131359737366,81.47912026422134,79.92004918179794,77.03317004944881,80.38792356531297
230.0,79.46242416206736,82.7748811184353,81.62277982501843,80.02867781116916,77.29184377545972,80.62486867479026
236.0,79.71534904860299,82.60520567854282,81.44909815806506,79.82867781116917,77.2126181023523,80.52476494092495
240.0,79.57194422877035,82.00520567854284,80.87912026422133,79.28881965656913,76.68694698473081,80.02820816331138
250.0,79.36732522293804,81.26955560350552,80.30759870552076,78.73356002363653,76.15177986876171,79.48089868655501
258.0,79.10062193191999,80.40520567854281,79.74909815806505,78.23356002363654,75.76366787395352,78.91810087275562
265.0,78.6360189344052,79.50520567854284,79.22277982501842,77.70919242177487,75.09170617840482,78.28916879918
272.0,78.17809907284612,78.31131359737364,78.79440108404611,77.15878458425318,74.23566145404493,77.6010007799459
280.0,77.75670111688652,77.16664169705089,78.63825981710889,76.82879810092322,73.06324247867727,77.04577293264488
290.0,77.26457655539743,77.15780637772858,78.6840315279035,76.98969314951451,73.29499227320048,76.99758188657621
300.0,77.07169666068076,77.3720537176525,78.90513602513728,76.93482387689265,72.07725435654027,76.96839746542916
307.0,77.37169666068077,77.61293726572656,79.30513602513727,76.8599905908188,71.39327906275902,77.15733565313712
315.0,78.07973520415425,78.72661343371236,79.70513602513728,77.36094696809953,72.26783177555099,77.83341289244652
325.0,78.95091131093956,78.8978942640185,80.21450522969185,77.85463007646646,72.07565745727416,78.30378797607412
335.0,79.73874649086682,78.95437846333911,80.56835668127053,78.14285858387282,72.23099300251769,78.67664095811412
345.0,80.26168610451617,79.11293726572657,80.82728937495764,78.45744456410408,72.6511875436343,79.00080378681287
355.0,80.62808837535985,78.9978942640185,81.04275333011941,78.53294990654001,73.24452733949443,79.18590851891284
365.0,80.69994362689359,78.42149291214861,81.34275333011942,78.86429381781574,73.74896010559824,79.28337004018869
375.0,80.6241785044089,77.87826596403892,81.6969055594954,79.42172997198224,74.44076409440211,79.44432138573205
387.0,80.72417850440891,78.70553022137213,81.7559484771802,79.20230609686173,74.56447205646475,79.5811043935516
400.0,80.59106259968826,77.79179583223957,81.80367178349627,78.80604180728932,73.38554878852253,79.28369229399124
412.0,79.91072600938482,78.2167131608928,81.82255252211397,78.56323953713822,74.56147902964085,79.21012140298194
425.0,79.67763407863866,78.7801021590628,81.93254991395906,78.17649942818294,73.70832910133878,79.17614698503579
437.0,79.23832533125464,79.87763407863866,82.1828976587961,78.18233957125835,73.41752650756882,79.38728939037283
450.0,79.58010215906279,79.80180537727657,82.60551449452632,77.98911215149187,71.88458903745308,79.51235976863614
462.0,80.1100988295574,79.90156641612705,82.96354571610956,78.9025388779211,71.4056390627718,79.90939541870794
475.0,79.83409061081868,80.30012004416544,82.93199020705461,79.00022291067833,71.88158206863315,79.95365129481539
487.0,79.61450102870958,79.03849221470118,82.43980358707691,78.79986526477805,72.19237401384534,79.43937849685919
500.0,79.27809751555904,77.81671316089279,81.2928500420646,77.72919602236283,70.93889839430007,78.47008751586596
515.0,78.58679520227014,74.91995341519967,79.21379748661664,74.98884690188243,70.27327975599144,76.6067790411586
530.0,76.89714499061293,72.73719243460758,76.95082619813354,71.3502451026616,68.43752935514357,74.4061352848124
545.0,75.09259424643162,69.07450865155464,77.17868085880549,72.36953842762034,67.24553752069862,73.62364302809733
560.0,76.20156641612705,72.53906000112234,78.48277780185208,73.34179808203085,63.56121920783812,74.88597823320286
580.0,77.93385341955607,72.99508794265978,79.98879947146551,75.4273492621716,68.7073992602108,76.51535774652675
600.0,79.31254853434612,72.2230963416002,80.95669413149963,76.33952813148187,70.28512374289892,77.48830343184724
615.0,79.37488615884712,71.41970533192806,81.4873310122456,76.9314673639228,70.18132843572775,77.79688082696052
630.0,78.52692376786916,69.2561387057398,81.38289765879608,76.58692060839763,69.26361258885737,77.34268944607595
650.0,76.70979246030149,70.51213971336274,81.10030322853254,75.6509218376087,70.89501696883053,76.7392220961572
670.0,76.20079923760282,68.78056417485794,80.82800050203639,75.09879846618583,69.30468822867478,76.25562647297919
690.0,75.04367984489554,73.35061467760484,80.24808850338385,74.68682643057772,68.72188818047835,75.94004951910358
710.0,73.12329025862067,75.16938923271667,79.65130593725046,75.15974251599084,70.4350065627744,75.7876226305522
730.0,72.77606471695047,73.8732428021256,78.88277780185207,74.6700044360681,68.21904561570337,74.95845682198964
750.0,72.55668026550752,73.50615584031922,77.55082619813354,72.30683964284802,66.30993483944644,73.75174186962391
775.0,68.34550654187213,71.39815940776964,76.95920059489961,71.67207936034772,65.64512330594484,72.4868486960836
800.0,68.598777257619,69.20628205066467,76.87184523929676,71.2891841445555,63.243990783378564,72.03033060047396
825.0,68.58268183850112,73.56228264579353,76.3780787104174,70.73036094540907,66.53424431630583,72.53781334043988
850.0,71.86902463982247,69.25430467405184,77.03382094419335,72.00136714177638,64.52540098695935,72.6951189158253
875.0,69.37585763940902,66.88651322324557,76.62993663334454,71.49953353993635,63.19747038903557,71.80589635284095
900.0,70.47584030844668,68.07914309790965,76.04067257713288,70.33026606675585,62.61929597200037,71.48521127834694
925.0,72.0613354044807,69.55223426804443,75.57947363299226,70.25649945227977,65.47080743915993,71.781943790096
950.0,71.93077364097024,68.61142042361902,75.40012138532111,70.97591332047861,62.590552306202596,71.57588301663107
975.0,74.41880686627658,68.87463725573588,75.3786808588055,70.9973507666833,62.919350673901135,72.27491327951083
1000.0,72.73259973896123,68.50122418204398,75.21191037566597,71.12050812004864,62.49636738716438,71.68891762382083
1030.0,74.87108414962545,68.14185479678676,74.86753446705819,69.87945874327153,60.03671659673644,71.96587900764023
1060.0,74.79162714470581,66.66609154258093,75.17947363299224,69.4711483170756,59.60195023467385,71.90360943395073
1090.0,73.92381611026087,66.67151403072263,75.84434725395144,71.53079301144683,60.2821211852133,72.20270260058238
1120.0,73.9078438915885,67.10823958478913,75.48733101224562,71.15744412195745,62.4318664933695,72.03644312143771
1150.0,75.20629288394863,67.20061025228861,75.29672500939245,70.11606305052221,59.9261036551743,72.22834986346727
1180.0,75.23443199171531,67.85073524627772,75.42586534409372,70.25030123057559,60.33130154066862,72.35661925738238
1220.0,75.27847158883333,67.85336686504871,75.58553019432762,69.93767149304172,58.5539430771921,72.38439038602202
1250.0,74.59714499061295,66.53575547331641,75.08777515041723,69.00410293973556,60.83896422274883,71.74684306213157
1280.0,73.84933348809383,67.79676228649515,75.1917640512904,69.00509021165126,60.27972533298151,71.60486449093393
1320.0,74.0897320148577,65.91977694243255,75.7921261334333,68.81167644401125,59.351604341830836,71.8166668656454
1360.0,74.0649755388538,66.8782659640389,75.80918447416553,67.91735686630008,58.65473815273299,71.78369832118307
1400.0,72.93663773190707,67.85668026550753,76.3554276318015,68.12485889812599,60.123238696225016,71.84672383966785
1450.0,75.05076565563874,69.93840886866522,77.17243453836574,67.85670244991091,60.663500209250486,73.06520742744804
1500.0,75.95908787087788,69.72000461152881,78.07243453836573,68.41111006025994,61.44063537838372,73.8488857687719
1550.0,75.56065191534174,70.67592129208572,78.43407905572306,69.89052849438724,61.791370605863946,74.1045363121942
1600.0,74.53435116442215,69.22095245685249,78.66011379187606,67.64758101166261,61.67016845070043,73.71088507707918
1650.0,74.99054357991427,70.44085758589014,78.36693799870524,67.19489745066562,61.394067543781944,73.72548405367871
1700.0,74.02533126502914,69.17495005740585,78.81306792028447,68.16137750029792,62.9776836274214,73.73483701958351
1750.0,73.56634914212341,68.69877470862103,78.79856256219989,67.64294993145941,62.34569786143382,73.56038560780785
1800.0,71.94615738963455,68.28770152529387,78.28319815587828,67.27770454728842,60.00438633238079,72.83692085704317
1850.0,70.55669338089147,68.11404733936561,78.6799136775104,67.56083336461487,62.79701136952116,72.9772076680538
1900.0,70.85695144211107,68.70156219050905,79.20710942982376,69.8294283459463,66.25879957335466,73.68287389656616
1950.0,71.32809788812492,67.16522100382412,79.22097462193838,69.98290460205467,62.23893522200963,73.5792609941197
2000.0,69.36848579277728,66.74306579496306,79.22729872742909,69.55444267148141,59.666064436155466,73.30504713678907
2060.0,68.34299903581783,64.73832317631998,79.20912322288653,68.95010059446952,62.915645869699986,73.13724581697288
2120.0,68.98145574830134,68.2440729991556,78.81508129269615,68.2354432152614,63.71277285515001,72.99801850032514
2180.0,70.27495005740585,67.65147609364891,78.722075889848,68.20610273210028,60.21653594290747,72.95139098254387
2240.0,70.43302534388664,69.65950478213477,78.4212988395271,66.94588927041039,59.33604830544944,72.81604509730235
2300.0,69.88447299551112,70.45369386092959,78.44646338528138,66.60191545974965,58.766358503595995,72.83715135673866
2360.0,69.9031792192244,70.61827331697303,78.5349237694942,67.00644516489382,58.45474317590367,72.94005526117408
2400.0,67.37466629325091,69.864200070833,77.49470547317989,65.74909268933479,57.385494512154864,71.79704049680174
2500.0,68.21136020682073,68.8912209717043,77.14093416724245,64.34646309508473,56.69684639891881,71.41955791160171
2580.0,69.43147052668758,68.85479437719991,77.84093416724242,65.23760258669306,57.721215158499746,72.10658141975084
2650.0,70.50816569952858,69.87189167480803,78.1639753222101,65.90015525695532,58.92839867120877,72.60768210035884
2720.0,70.42653597406044,71.56796870679123,78.53503324913316,66.76459839665475,63.31719642232949,73.16565865827184
2800.0,72.38932493598669,72.5077824902708,78.81350688936452,65.01722237224351,61.125894369256386,73.64419200963351
2900.0,73.81638177166488,71.08676101378258,79.0367362522684,60.549316125290005,59.46684989002881,73.76756323230687
3000.0,74.76658163956375,70.72401653777321,79.22535198555339,65.61905098779815,57.525631058974426,74.13829005239599
3070.0,74.84504084631767,69.94779386554393,78.9986972602875,66.99968144291807,55.618959348716885,73.98565043323447
3150.0,74.91306661489647,71.47499953090708,78.86931590118935,66.44838727873089,54.6727168103605,74.0423798192983
3250.0,75.76042690531798,70.84353442873874,78.60213013594257,64.30224316608631,56.00733640109536,73.99288371536758
3350.0,77.03917865191127,71.98871295948797,81.43988141387726,64.61607287480335,60.89212802279009,76.22867228179686
