Freq,Floor Bounce,Ceiling Bounce,Front Wall Bounce,Side Wall Bounce,Rear Wall Bounce,Total Early Reflection
20.5078,61.72546986286696,61.62020971735883,61.75770117189309,61.7694848189537,61.304745814758974,61.63893495281923
21.9727,62.46748138069958,62.21335452539765,62.43205367622552,62.48606614218238,62.15486766165073,62.352960376646706
23.4375,63.878191744184065,63.82531682793841,63.90834649141958,63.96566291098995,63.72393189031463,63.861060188022265
24.9023,64.69751994087478,64.61143880924187,64.71664974104708,64.76445202176505,64.48753154893281,64.65660708828248
26.3672,65.56741817608162,65.49335546347555,65.58687700787735,65.64486638979265,65.38404814645045,65.53623808637936
27.832,66.66076141027396,66.61589124532131,66.69326270080423,66.72867928329156,66.47020830512493,66.63468379096986
29.2969,67.52098952242487,67.43534632387268,67.54014721305016,67.56475827258528,67.272545678957,67.46805110623632
30.7617,68.18035203285322,68.10329403762456,68.19734482911734,68.23520456581691,68.01499255071626,68.14694328026171
32.2266,69.11776684689094,69.10547503768092,69.15805617106732,69.18398797162281,68.95060403845305,69.10393370689143
33.6914,70.02604044211085,69.98414391810604,70.06469616550635,70.0668166563816,69.78186017189701,69.98598807098541
35.1562,70.79542881301593,70.71466273983795,70.81698170349271,70.80648585933449,70.50756805577224,70.72976080603132
36.6211,71.66465785228444,71.58218407108326,71.68165966348057,71.67588965564482,71.40257605814377,71.60266859285495
38.0859,72.43069154697044,72.3612708707576,72.4489234001298,72.44133551769869,72.19151185152423,72.37581543354732
39.5508,73.28039501836555,73.21653775412322,73.30097894347928,73.28274329929278,73.03230342119646,73.2237174117124
41.0156,74.34695610720351,74.26124472915187,74.35669699897196,74.32879207168385,74.07723098314347,74.27541703119546
42.4805,75.00961609789672,74.8620325318232,75.00064892136145,74.96219028432775,74.6882546996398,74.90619655806472
43.9453,75.9760492179856,75.84983579346425,75.9693886301536,75.93317796632083,75.6958102660366,75.88610386285985
45.4102,76.89325054239585,76.76108591524833,76.8863123432451,76.83518647052045,76.58165024002062,76.79300879968213
46.875,77.8050172329316,77.68893111746382,77.79924787798357,77.74515707981197,77.5216030847867,77.71322847141317
48.3398,78.77348274821591,78.63308646873146,78.75937287018095,78.68881950654415,78.45474812495858,78.66341960403707
51.2695,80.7583188845509,80.5731781235917,80.73519760676398,80.60962104412665,80.29680039475613,80.59771912461147
52.7344,81.63415724457064,81.48683429876192,81.62051054490995,81.48805413073207,81.20115469342115,81.48890155806808
54.1992,82.53272874442241,82.39949111719388,82.52215595875347,82.37157568135356,82.08434903006157,82.38504922380994
55.6641,83.43319888160286,83.29142134418848,83.42020054087317,83.24037776263549,82.90391341499476,83.26199328445772
58.5938,84.81675768245604,84.65561075114009,84.78790101505363,84.5832516660686,84.31574916912045,84.63553168474623
60.0586,85.33028950764628,85.14743969256155,85.29266592560026,85.06367658423555,84.78636352175788,85.12839826381548
62.9883,85.75699125030033,85.53498389392826,85.7055775671872,85.41400085958132,85.11057950874704,85.51054084519119
64.4531,85.72535640317624,85.47480361030522,85.66284625860354,85.33810808461696,85.01661158048866,85.45087335303778
67.3828,85.30511931047285,84.99882976781792,85.22009473614459,84.82601106577108,84.4952356492939,84.97866876418941
68.8477,85.01486026945888,84.71375349544927,84.93362620623762,84.49425640764785,84.14122018467681,84.67091932391175
71.7773,84.36112372531899,84.13205402254695,84.31123404423917,83.76720876566516,83.33607545788938,83.998194422262
74.707,83.70300577390917,83.52213974559216,83.67033079770549,83.02157020631276,82.51539056410087,83.3098458667669
77.6367,83.04921359985923,82.84132971252014,83.00562212395327,82.23936046739422,81.65044107675105,82.58950819877212
79.1016,82.7275717537912,82.50782791667349,82.6794745576927,81.85126338391497,81.22720878238862,82.23590209729626
82.0312,82.25397871611327,81.99876927579088,82.19260884570153,81.2464852632903,80.54583879278258,81.69552075374607
84.9609,81.81041961912013,81.55380571880306,81.74784747833361,80.68461427815156,79.91965581968863,81.20261298392197
87.8906,81.58584863287207,81.334353832519,81.52129526553611,80.35535131121448,79.55638411263202,80.93985546297642
90.8203,81.56667768007847,81.32890100209443,81.5125263657468,80.24776654280559,79.35863783358296,80.88518533810499
95.2148,81.71587805909012,81.5249959455087,81.68188354821432,80.3062572722873,79.34844439589665,81.0119132496135
98.1445,81.97416524040473,81.83316761588132,81.96375458207076,80.530552409349,79.5247641429973,81.27018324335336
101.074,82.23654315257014,82.19703562081787,82.27600592172453,80.78703817164357,79.72655909799393,81.55858838674824
105.469,82.8384719713684,82.95185396708867,82.95252210999789,81.4133135476895,80.12634344721461,82.19238106797981
108.398,83.42523744745351,83.41468112149005,83.48653384981282,81.95003383960905,80.66838484742321,82.72334198564994
112.793,83.85991486452915,83.72570669464146,83.88866654729088,82.32270299815819,81.00980615225957,83.09950635032082
117.188,83.9767823170074,83.82563308095519,84.01508129896581,82.45270343127665,81.01977706873306,83.20388959353114
120.117,83.98153348411297,83.80060440127961,84.01055778880145,82.4674222112628,80.99422718414195,83.19757053367019
124.512,83.77399700792137,83.4382130078848,83.74862028917588,82.22134983937168,80.81938150829755,82.9392079891829
128.906,83.49921060234107,83.01985483771232,83.43223049378433,81.90424255155013,80.59117046471616,82.62115367551219
133.301,83.22564382925438,82.67465558312863,83.15434038507999,81.60483478733906,80.2433437778152,82.3172683082481
139.16,82.88397346392136,82.29017628656575,82.81949888031659,81.24005783751026,79.84465013530443,81.95702532287945
143.555,82.7165681353557,82.00581520590599,82.62574649484111,81.05473007643427,79.61558300115193,81.74752844005464
147.949,82.54697270752901,81.76887247217856,82.45697969642016,80.86102592910119,79.42394252207669,81.55711029556913
153.809,82.52757323465714,81.71323602212684,82.45799066503871,80.77207359128845,79.12177463635001,81.4896426373616
159.668,82.63188362186779,81.90515904811342,82.6057274939269,80.9772722136894,79.23188725825581,81.64121773210641
165.527,82.56557570898921,82.17367211022085,82.64158738783736,81.06898676833167,79.63869846174552,81.75590486788997
171.387,82.69827841738724,82.1400059925904,82.73530159570632,81.08461366324161,79.56881704232674,81.79817812335459
177.246,82.68224783727501,82.0178910699113,82.6801014703862,81.05577217442438,79.46695624147519,81.73721909919115
183.105,82.71240688407143,82.04299721067405,82.74211292703376,81.06133252197525,79.56040716982547,81.77759951271636
188.965,82.8662415557745,82.6382064503599,83.07520121834875,81.3390189442621,79.63227619923744,82.0847310563031
196.289,82.82365987078332,82.90587783142544,83.14714076016475,81.47003199112699,79.86590507873555,82.20358928382221
203.613,82.45723420802285,82.62464411140384,82.85295865657481,81.33425228123751,79.34163432578494,81.89699680492642
210.938,82.13694853668113,81.85492651892521,82.33525145526978,81.12669207045118,78.83720953030753,81.42506652900401
218.262,81.62371181233469,81.21008884301692,81.76497122957,80.63892335669959,78.93512762027221,80.94619223394768
225.586,81.21624630976378,80.93879727336459,81.53725425730703,80.38019111623403,78.82517868265974,80.67717096866254
232.91,81.17224643939046,80.87241798731408,81.41739196490688,80.36483364272468,78.35091917301494,80.56138795011432
241.699,81.3394634967852,80.07456944550566,81.1875956629895,80.15486847556465,78.14162111459706,80.31914521063405
250.488,82.50582154121066,80.04009165315188,82.12262864912594,80.49540568405358,77.41596974532122,80.8583400675698
259.277,82.07030898269316,80.98211396383316,82.0403657374328,80.8279237769087,77.8410128065116,80.99162536676621
268.066,82.07652208398959,80.95479801779906,82.01817330320073,80.66123285512184,77.79805395009315,80.94627761346051
276.855,82.07637391080857,81.57086033907837,82.26009490441457,81.19521253747723,77.44798533291116,81.2083355411662
287.109,81.15804610877743,81.94621897128718,81.74717650216328,80.7933301939608,78.4451176222012,80.98000239361359
297.363,81.97467151270122,82.7068976060738,82.54856305226599,81.02717166168017,78.67782137906012,81.60970084639038
307.617,82.56256508361527,82.04597052610265,82.40307907887444,81.13375561776628,78.70892795948161,81.57517941547542
319.336,82.49469099973227,82.17758681504597,82.38953500971112,80.56093370872823,78.38473614184788,81.45385688602414
329.59,82.00480802788884,81.39316531638332,81.89153934402292,80.61947727061923,78.27222566159806,81.02828171730222
341.309,81.7225720069248,80.69515057569716,81.8485497883298,80.14459651908346,78.68731473986057,80.7656629985858
353.027,82.51143314074044,81.31325612261504,82.80710032163863,80.60106034136304,77.73869676012443,81.32719365791449
366.211,82.96503213236156,82.35964179182203,83.17054435783204,80.7675051759502,78.26740155829154,81.84151292182582
379.395,83.3417343983357,82.7605553301885,83.40678683726922,81.11264183711629,77.02421388528528,82.05962720527135
392.578,82.75870358019606,81.65759597686045,82.91753094539101,80.90737571422439,78.30905106592847,81.59552119234814
405.762,83.22627748146247,82.12965370642077,83.68828388976435,80.56615794006821,78.81945247295606,82.0270815379536
420.41,83.66393249916136,82.25426559966745,83.94363461009796,81.28852274725793,78.7406974826829,82.3444050506216
435.059,84.54229807416289,81.52956206877042,85.29951614367067,81.68194214473287,79.05470976613428,82.98136014362657
451.172,85.39397397090856,83.47232436944867,85.76072427164645,82.62552667823597,79.02385210083548,83.83235608772655
465.82,84.72601110744226,83.3093641122767,85.31004555960386,82.68867051392102,78.08673178659159,83.42766963873633
483.398,84.56442715443755,83.66641366771542,85.03364934480369,82.11937843165673,78.30825434475126,83.2960047284487
499.512,84.74871604204009,82.71659094867029,85.09750266065,82.22783937900948,78.10278511546667,83.18235291760128
517.09,84.11233730923774,82.28821647127266,85.32693286131367,82.49112345445144,78.28605008827115,83.06615168584193
536.133,84.80816225306386,82.97106782748503,85.39144665097722,82.78044194470479,78.07154026119007,83.42680394171728
555.176,84.84402509544928,83.3017167870197,84.93741963354903,82.9164286447524,77.94905205280365,83.37954126336628
574.219,84.68092194693261,83.41765081786194,84.87157265001103,82.84732885529591,78.48734725629467,83.35951259860795
594.727,83.88935703218515,83.2385988594076,84.94687357638472,82.89877585967919,78.06339355879479,83.12600794625331
615.234,84.31491269045536,83.68321623373814,84.55327334208185,82.88320852352817,78.22632875948028,83.22061218096441
637.207,84.21587118101188,82.57235943194476,84.79028431821757,82.61023280532334,78.59895773386476,83.0144293920451
659.18,83.32110161596353,82.5820158915,84.93670029875628,82.12997292604183,76.54539969380083,82.62996418352658
682.617,83.41711557631595,83.10484730902262,84.52827049631995,82.22475967031006,77.55268339676881,82.7023559481831
707.52,83.25340716855007,82.10967075586844,84.77976574408252,82.22520121693012,77.57102962411827,82.54661493878251
732.422,82.96069812970788,82.02254481717159,84.1362248627974,81.5136733944075,76.39901623943355,82.04974893430712
757.324,82.80623688017204,81.7298778673723,83.73998326957944,81.34668825414765,76.26569950021835,81.78988193620376
785.156,82.72574562854801,81.65175851639081,84.17818519867267,81.21157048245183,75.83307534577916,81.85138927734695
811.523,82.83198730425026,80.8331947483676,83.39311036939935,81.05800662963223,75.39019446922562,81.42210302652795
840.82,82.75938258258033,80.84699669263208,83.85108238371072,80.90553915529973,75.0896149178779,81.5136634731666
870.117,83.1665350907868,82.00039906609317,84.19618406315625,81.2646907765624,75.39037989933108,82.02502761941874
900.879,82.82794846449838,79.9158702603551,84.50263788637345,81.67925479219421,75.1557992233865,81.77161820592337
933.105,84.33103914647894,82.48751293780504,84.58845155128375,81.59974803495362,76.12956024797091,82.65567989512864
965.332,83.33071058172447,81.32861527953348,84.55107988000533,81.65839931015688,75.22812002588994,82.12775053984001
1000.49,83.62210424998639,81.46872560655335,84.79952878850006,81.5169055616105,75.82413696281371,82.31721246616712
1035.64,82.43908966546157,80.22207180556022,84.40682647671144,81.53407232313423,75.07930781190485,81.64962626091379
1072.27,82.96722460598167,80.74336500763583,84.41772113612727,81.43302733150286,75.07477662819045,81.84412068937493
1108.89,81.68620772420506,82.2818043237746,85.0618522990305,81.96013928431121,75.30325737475144,82.19202481552574
1148.44,83.69286555374389,84.33008304728699,83.04741197749823,81.06744172214884,75.4666215355638,82.40475018005276
1189.45,82.26024194207005,81.96548812603565,83.0265245979395,80.2512244092745,73.34349871333013,81.16481737319884
1230.47,81.59010349546858,80.76409918781643,83.8033633845679,80.2482816478139,74.7504749449297,81.06708454021803
1274.41,83.863682368288,80.51807678256152,82.70399115277786,80.61392258633103,73.70930283637887,81.34274704902155
1319.82,82.10542486738329,79.61843580467874,84.18350441549269,80.19917926235239,72.8163937651304,81.07089277998736
1366.7,82.96789503740125,77.1285918415425,83.5182274813912,79.7660155878958,72.58208551178005,80.69943414226042
1413.57,80.46345181984888,79.22029265433127,84.10080147158244,79.82962314383865,71.56896689508021,80.51089890247175
1463.38,80.31840232749452,81.06085836941466,83.30670080821444,79.14097481864827,71.86596495675855,80.38876932011155
1516.11,81.80116790188826,78.34445480749491,80.82573639965553,77.64010498845069,69.27182566503613,79.1081210490829
1568.85,82.08380763679972,78.5111741996595,81.20818293671171,77.24405082827862,67.86841509346148,79.28155851408364
1624.51,80.94411254356787,78.94187780872842,81.80412539011103,77.93854626114307,69.03409115089676,79.28779541168686
1681.64,81.41131031367846,79.63903367093079,82.30510977003253,77.30538883266578,67.83169539098382,79.64058468154694
1741.7,80.11049100741603,78.34142223746075,81.95554571840124,77.34369438619716,67.67245970027246,78.89644225261357
1803.22,79.87187815710182,77.68240793477601,81.8594532950129,77.37705740905675,65.1759838520592,78.6586084453832
1866.21,79.20707237294023,76.06169065137243,80.2453414438804,75.69707942021732,65.9599109109271,77.33320940518188
1932.13,79.61322628564183,77.76709336747635,79.07334027287297,75.3549377285304,65.52436418316273,77.32313102377464
1999.51,79.888289963783,77.57194652256408,80.02479361480114,75.54469490594475,64.82556073730014,77.69514307824784
2069.82,79.54209972198124,77.62454616594287,80.50557609640548,75.53634546454353,64.10814594288374,77.76067657229841
2143.07,80.19354704397243,77.17897694847014,80.83189991812351,75.57178330400237,63.13872045894023,78.00758552806478
2219.24,80.89454360928657,76.92412528256061,80.33832379776622,75.44807814751285,61.882645220061534,78.01852307499436
2296.88,81.82777554899776,77.58917429848266,80.13360585624024,75.25905627219299,62.1708765285497,78.42693002309171
2378.91,81.30754314558803,77.34385658786182,80.69530520126057,75.19171059003877,61.691812284929554,78.34125738184757
2462.4,80.36671665565282,77.29667800604372,82.05104026509704,75.59005937796306,60.58575178814594,78.57579692217654
2548.83,80.31564730525798,76.8853537897787,82.06902092567246,75.04153194609886,59.01242771621715,78.4522604351712
2639.65,81.0714473757565,76.8521789684858,81.14356874551343,74.07876456040134,57.3495682602822,78.23040930797991
2731.93,80.83291495892966,75.56639822008702,80.94551932541323,73.78681213401256,57.39132905843125,77.86689307791569
2828.61,82.24853113472625,77.46661913618875,82.83539164069096,75.67209394644665,58.97233199777553,79.57547189846287
2928.22,82.32224484044166,77.29989644081013,83.60718972080352,75.41661074035846,56.85352752366829,79.9047720462536
3030.76,80.97082461735666,75.22138740849915,82.95472890787447,73.4156453311314,53.87339679478369,78.78503337069905
3137.7,80.65304032406817,72.71913677683219,82.34205274440889,72.23179340945605,54.839080528774176,78.10808412776073
3249.02,80.8619117625543,72.15708916683059,81.97703215952994,71.21564287880742,56.6054950364891,77.9200834368732
3363.28,80.53296338650244,70.6373947878603,82.02519507935385,70.27981686206805,56.32018891543568,77.7106257186797
3481.93,80.93052487397635,70.94964901128625,82.02546220662292,70.41756322456247,56.73851914562435,77.88509366117573
3604.98,80.61107915743143,71.08644210227548,82.14347858213354,70.88981016196409,60.35244130081067,77.85503775636248
3732.42,79.66028651331361,71.93222426577792,82.56868021087382,71.4330250696231,61.93808218184971,77.8420862624887
3864.26,80.21329765903353,73.03494077399553,82.12550142489879,71.52751637685627,61.80839737859591,77.83925773503417
4000.49,79.6576579197948,73.91986935958236,81.83057517859044,72.7508947473203,61.906190033442215,77.63272928659624
4141.11,79.5399601025669,74.11819638348877,82.37813093004063,74.05848558733366,62.93042661359782,78.00842117978765
4287.6,80.03994634167246,76.24803704350416,82.31946864490573,74.9867499177419,63.98133685530759,78.42221648599674
4438.48,81.04855087459404,77.88532237825822,83.28893474608141,75.86784525341946,64.63298632234103,79.47957908716012
4595.21,81.66586437155162,77.19503152508656,84.09321131489015,76.67333002843574,64.60555211384228,80.04481761451537
4756.35,80.65599575745502,78.41462530396652,84.52482117899716,77.42837363086413,65.8989081169931,80.23975747757913
4924.8,79.65986603484596,78.33330242803359,83.8960802429712,77.80799134667085,65.25996337493925,79.72729793835539
5097.66,79.58658792209835,77.24070625935163,83.03591159935122,77.05931463824105,63.721443220965924,79.01176540955197
5277.83,78.57323005898581,77.59176058661102,83.30609883150228,76.82496937560556,63.89457523866494,78.96659172625117
5463.87,77.78553822980051,77.92972362127578,83.72020891846336,78.26948798005137,64.47742974981121,79.32061188896093
5657.23,78.31595234915817,78.70019107444709,83.27222071366377,79.02143029755064,65.07963022438982,79.4197923322997
5856.45,78.77307831670329,78.88696002708292,82.02664111248744,78.68128560978637,63.208791741578224,78.90031037092368
6062.99,79.93659465593214,79.03827111080805,82.59455451715156,78.82823513979429,62.31135225138725,79.4298358560624
6276.86,79.73257575343435,79.47168068791113,81.9881193553332,78.99824860577594,62.077169329768,79.25976282120868
6498.05,78.61373623480584,79.63555712375823,81.75721517510536,79.24122502324072,62.47030961469295,79.03341942136552
6726.56,78.76517721644026,80.01074503515515,81.70226049515958,79.531045356039,62.3122417702661,79.19031029528874
6963.87,80.66739706182166,80.57341139411533,81.49994957409402,79.56256257053137,60.83723734976242,79.67181522165403
7209.96,81.26193303534257,80.48340169193803,82.4991430963881,80.03396477582758,60.656751286738384,80.21382945269382
7464.84,81.4404980672529,80.72730980262442,83.37546896213165,78.88794720298837,60.696850655494714,80.44296734387594
7727.05,80.93720292186508,80.87013122051813,83.3224307946983,79.36408096183997,61.27525624883056,80.40517313694467
7999.51,80.46261956256471,80.34044551336648,82.39662862118676,79.04385458951174,63.48951364485232,79.78191736525567
8282.23,80.28387365605418,79.26375481539311,80.84949414035965,78.39458775354214,62.16653593813054,78.84806038202272
8573.73,81.23410197655429,77.55794020999097,81.05234433466809,77.13676453002581,61.12959439525706,78.69574953767828
8876.95,81.89636596337085,76.78600856653756,81.81836276640293,76.55049563712497,58.64081632888589,79.03503070443288
9188.96,81.89873263705547,75.77102161005028,82.33781195054205,76.8962825109507,58.26288904244093,79.17524707462937
9514.16,81.51154263326363,76.2575092215244,82.81181482223202,76.66202206092866,55.47812294095597,79.25989063559787
