Freq "Ceiling Bounce"
20.5078 61.62020971735883
21.9727 62.21335452539765
23.4375 63.82531682793841
24.9023 64.61143880924187
26.3672 65.49335546347555
27.832 66.61589124532131
29.2969 67.43534632387268
30.7617 68.10329403762456
32.2266 69.10547503768092
33.6914 69.98414391810604
35.1562 70.71466273983795
36.6211 71.58218407108326
38.0859 72.3612708707576
39.5508 73.21653775412322
41.0156 74.26124472915187
42.4805 74.8620325318232
43.9453 75.84983579346425
45.4102 76.76108591524833
46.875 77.68893111746382
48.3398 78.63308646873146
51.2695 80.5731781235917
52.7344 81.48683429876192
54.1992 82.39949111719388
55.6641 83.29142134418848
58.5938 84.65561075114009
60.0586 85.14743969256155
62.9883 85.53498389392826
64.4531 85.47480361030522
67.3828 84.99882976781792
68.8477 84.71375349544927
71.7773 84.13205402254695
74.707 83.52213974559216
77.6367 82.84132971252014
79.1016 82.50782791667349
82.0312 81.99876927579088
84.9609 81.55380571880306
87.8906 81.334353832519
90.8203 81.32890100209443
95.2148 81.5249959455087
98.1445 81.83316761588132
101.074 82.19703562081787
105.469 82.95185396708867
108.398 83.41468112149005
112.793 83.72570669464146
117.188 83.82563308095519
120.117 83.80060440127961
124.512 83.4382130078848
128.906 83.01985483771232
133.301 82.67465558312863
139.16 82.29017628656575
143.555 82.00581520590599
147.949 81.76887247217856
153.809 81.71323602212684
159.668 81.90515904811342
165.527 82.17367211022085
171.387 82.1400059925904
177.246 82.0178910699113
183.105 82.04299721067405
188.965 82.6382064503599
196.289 82.90587783142544
203.613 82.62464411140384
210.938 81.85492651892521
218.262 81.21008884301692
225.586 80.93879727336459
232.91 80.87241798731408
241.699 80.07456944550566
250.488 80.04009165315188
259.277 80.98211396383316
268.066 80.95479801779906
276.855 81.57086033907837
287.109 81.94621897128718
297.363 82.7068976060738
307.617 82.04597052610265
319.336 82.17758681504597
329.59 81.39316531638332
341.309 80.69515057569716
353.027 81.31325612261504
366.211 82.35964179182203
379.395 82.7605553301885
392.578 81.65759597686045
405.762 82.12965370642077
420.41 82.25426559966745
435.059 81.52956206877042
451.172 83.47232436944867
465.82 83.3093641122767
483.398 83.66641366771542
499.512 82.71659094867029
517.09 82.28821647127266
536.133 82.97106782748503
555.176 83.3017167870197
574.219 83.41765081786194
594.727 83.2385988594076
615.234 83.68321623373814
637.207 82.57235943194476
659.18 82.5820158915
682.617 83.10484730902262
707.52 82.10967075586844
732.422 82.02254481717159
757.324 81.7298778673723
785.156 81.65175851639081
811.523 80.8331947483676
840.82 80.84699669263208
870.117 82.00039906609317
900.879 79.9158702603551
933.105 82.48751293780504
965.332 81.32861527953348
1000.49 81.46872560655335
1035.64 80.22207180556022
1072.27 80.74336500763583
1108.89 82.2818043237746
1148.44 84.33008304728699
1189.45 81.96548812603565
1230.47 80.76409918781643
1274.41 80.51807678256152
1319.82 79.61843580467874
1366.7 77.1285918415425
1413.57 79.22029265433127
1463.38 81.06085836941466
1516.11 78.34445480749491
1568.85 78.5111741996595
1624.51 78.94187780872842
1681.64 79.63903367093079
1741.7 78.34142223746075
1803.22 77.68240793477601
1866.21 76.06169065137243
1932.13 77.76709336747635
1999.51 77.57194652256408
2069.82 77.62454616594287
2143.07 77.17897694847014
2219.24 76.92412528256061
2296.88 77.58917429848266
2378.91 77.34385658786182
2462.4 77.29667800604372
2548.83 76.8853537897787
2639.65 76.8521789684858
2731.93 75.56639822008702
2828.61 77.46661913618875
2928.22 77.29989644081013
3030.76 75.22138740849915
3137.7 72.71913677683219
3249.02 72.15708916683059
3363.28 70.6373947878603
3481.93 70.94964901128625
3604.98 71.08644210227548
3732.42 71.93222426577792
3864.26 73.03494077399553
4000.49 73.91986935958236
4141.11 74.11819638348877
4287.6 76.24803704350416
4438.48 77.88532237825822
4595.21 77.19503152508656
4756.35 78.41462530396652
4924.8 78.33330242803359
5097.66 77.24070625935163
5277.83 77.59176058661102
5463.87 77.92972362127578
5657.23 78.70019107444709
5856.45 78.88696002708292
6062.99 79.03827111080805
6276.86 79.47168068791113
6498.05 79.63555712375823
6726.56 80.01074503515515
6963.87 80.57341139411533
7209.96 80.48340169193803
7464.84 80.72730980262442
7727.05 80.87013122051813
7999.51 80.34044551336648
8282.23 79.26375481539311
8573.73 77.55794020999097
8876.95 76.78600856653756
9188.96 75.77102161005028
9514.16 76.2575092215244
9849.61 76.8182025002974
10196.8 77.09754464117833
10555.7 77.20157672041715
10927.7 76.96949951649016
11313.0 76.49109809600158
11712.9 74.54111551044963
12126.0 72.95763867246792
12553.7 72.80987734311869
12996.1 72.12588123420907
13454.6 71.58570459544953
13929.2 71.97478834751576
14419.9 73.31697329433868
14928.2 74.56055304250788
15455.6 75.48457246154199
16000.5 76.64724387245448
16564.5 76.34736303080452
17148.9 73.87068133398378
17752.4 69.9170265429901
18379.4 65.71237500247462
19026.9 61.67484369630331
19697.8 60.7922249411577
19999.5 61.9395673019262
