Freq "Floor Bounce"
20.5078 61.67469107498816
21.9727 62.41670259282078
23.4375 63.82741295630527
24.9023 64.64674115299599
26.3672 65.51663938820282
27.832 66.60998262239518
29.2969 67.47021073454607
30.7617 68.12957324497442
32.2266 69.06698805901216
33.6914 69.97526165423206
35.1562 70.74465002513712
36.6211 71.61387906440564
38.0859 72.37991275909164
39.5508 73.22961623048676
41.0156 74.29617731932471
42.4805 74.95883731001793
43.9453 75.9252704301068
45.4102 76.84247175451705
46.875 77.7542384450528
48.3398 78.72270396033711
51.2695 80.7075400966721
52.7344 81.58337845669185
54.1992 82.48194995654362
55.6641 83.38242009372406
58.5938 84.76597889457724
60.0586 85.27951071976749
62.9883 85.70621246242152
64.4531 85.67457761529744
67.3828 85.25434052259405
68.8477 84.96408148158008
71.7773 84.31034493744019
74.707 83.65222698603037
77.6367 82.99843481198043
79.1016 82.67679296591241
82.0312 82.20319992823447
84.9609 81.75964083124133
87.8906 81.53506984499327
90.8203 81.51589889219967
95.2148 81.66509927121132
98.1445 81.92338645252593
101.074 82.18576436469134
105.469 82.78769318348961
108.398 83.37445865957469
112.793 83.80913607665035
117.188 83.92600352912861
120.117 83.93075469623417
124.512 83.72321822004257
128.906 83.44843181446227
133.301 83.17486504137558
139.16 82.83319467604257
143.555 82.6657893474769
147.949 82.4961939196502
153.809 82.47679444677834
159.668 82.58110483398899
165.527 82.5147969211104
171.387 82.64749962950846
177.246 82.63146904939622
183.105 82.66162809619263
188.965 82.81546276789571
196.289 82.77288108290452
203.613 82.40645542014407
210.938 82.08616974880233
218.262 81.57293302445588
225.586 81.16546752188499
232.91 81.12146765151168
241.699 81.2886847089064
250.488 82.45504275333187
259.277 82.01953019481438
268.066 82.02574329611079
276.855 82.02559512292977
287.109 81.10726732089863
297.363 81.92389272482242
307.617 82.51178629573647
319.336 82.44391221185346
329.59 81.95402924001004
341.309 81.67179321904601
353.027 82.46065435286162
366.211 82.91425334448276
379.395 83.29095561045692
392.578 82.70792479231726
405.762 83.17549869358366
420.41 83.61315371128258
435.059 84.49151928628409
451.172 85.34319518302976
465.82 84.67523231956346
483.398 84.51364836655875
499.512 84.69793725416129
517.09 84.06155852135895
536.133 84.75738346518504
555.176 84.7932463075705
574.219 84.63014315905382
594.727 83.83857824430636
615.234 84.26413390257656
637.207 84.16509239313307
659.18 83.27032282808473
682.617 83.36633678843715
707.52 83.20262838067127
732.422 82.90991934182908
757.324 82.75545809229324
785.156 82.6749668406692
811.523 82.78120851637146
840.82 82.70860379470155
870.117 83.115756302908
900.879 82.77716967661958
933.105 84.28026035860016
965.332 83.27993179384568
1000.49 83.5713254621076
1035.64 82.38831087758277
1072.27 82.91644581810287
1108.89 81.63542893632626
1148.44 83.64208676586507
1189.45 82.20946315419125
1230.47 81.53932470758978
1274.41 83.8129035804092
1319.82 82.0546460795045
1366.7 82.91711624952245
1413.57 80.4126730319701
1463.38 80.26762353961574
1516.11 81.75038911400948
1568.85 82.03302884892092
1624.51 80.89333375568906
1681.64 81.36053152579966
1741.7 80.05971221953722
1803.22 79.82109936922302
1866.21 79.15629358506143
1932.13 79.56244749776305
1999.51 79.8375111759042
2069.82 79.49132093410245
2143.07 80.14276825609363
2219.24 80.84376482140776
2296.88 81.77699676111897
2378.91 81.25676435770923
2462.4 80.31593786777402
2548.83 80.26486851737918
2639.65 81.02066858787771
2731.93 80.78213617105085
2828.61 82.19775234684745
2928.22 82.27146605256286
3030.76 80.92004582947786
3137.7 80.60226153618937
3249.02 80.8111329746755
3363.28 80.48218459862365
3481.93 80.87974608609757
3604.98 80.56030036955265
3732.42 79.60950772543481
3864.26 80.16251887115475
4000.49 79.60687913191599
4141.11 79.48918131468808
4287.6 79.98916755379365
4438.48 80.99777208671524
4595.21 81.61508558367281
4756.35 80.60521696957623
4924.8 79.60908724696715
5097.66 79.53580913421955
5277.83 78.52245127110702
5463.87 77.73475944192172
5657.23 78.2651735612794
5856.45 78.72229952882451
6062.99 79.88581586805334
6276.86 79.68179696555555
6498.05 78.56295744692704
6726.56 78.71439842856147
6963.87 80.61661827394286
7209.96 81.21115424746377
7464.84 81.3897192793741
7727.05 80.88642413398628
7999.51 80.41184077468591
8282.23 80.2330948681754
8573.73 81.18332318867549
8876.95 81.84558717549206
9188.96 81.84795384917668
9514.16 81.46076384538482
9849.61 81.55668884616864
10196.8 81.89704923675055
10555.7 82.57712850408399
10927.7 82.24982936850061
11313.0 81.57118345491773
11712.9 81.18060480197815
12126.0 80.93931855853586
12553.7 80.48886183634102
12996.1 80.05040686940814
13454.6 79.15573040269285
13929.2 77.9193450573811
14419.9 78.10007728966697
14928.2 78.99310721127084
15455.6 79.46202963787113
16000.5 79.63406147302982
16564.5 81.22127758852717
17148.9 81.18273658821249
17752.4 78.84947465930755
18379.4 76.89276360223171
19026.9 75.07972595070869
19697.8 72.26348144449925
19999.5 71.11068347829446
