Freq,Floor Bounce,Ceiling Bounce,Front Wall Bounce,Side Wall Bounce,Rear Wall Bounce,Total Early Reflection
22.4,37.98656646311247,37.24415774934852,39.60083200770998,40.026434365390145,37.62776610510727,38.64107576619867
23.0,38.686566463112484,37.944157749348506,40.30083200770997,40.72643436539013,38.32776610510729,39.341075766198685
23.6,39.3526095320222,38.64415774934852,40.91283330379201,41.36471429239538,38.98411913320527,39.989480312558044
24.0,40.11592692226708,39.47449351030437,41.550616101217315,41.90219016867934,39.658228463622834,40.656618701402294
25.0,40.845767194384706,40.27449351030438,42.11917839314734,42.40219016867934,40.33888834138767,41.28984931560021
25.8,41.50986628672331,40.97449351030437,42.70154215728218,42.97836635856976,41.0142436834071,41.919236775357945
26.5,42.176091754492205,41.67449351030439,43.270472253881195,43.47836635856976,41.6356835017821,42.5185033976764
27.2,42.80986628672329,42.3053180676647,43.87047225388119,44.05495789813946,42.27863364920404,43.13106715254631
28.0,43.44044167945492,43.00531806766469,44.409800977173546,44.59865197820878,42.89669634374758,43.72834194920321
29.0,44.040441679454915,43.60531806766471,45.00980097717354,45.15495789813946,43.49404568454372,44.317265917950465
30.0,44.64044167945491,44.205318067664706,45.55293309177665,45.69474096346812,44.072022302373966,44.88575938115372
30.7,45.24044167945493,44.8053180676647,46.109800977173535,46.23195973233098,44.64826712069706,45.45670648751312
31.5,45.8404416794549,45.405318067664695,46.649680448906906,46.75495789813945,45.228745344231214,46.02120091218268
32.5,46.37150800786938,46.00531806766469,47.17949867069433,47.31360445049151,45.793620513132026,46.576180299673666
33.5,46.94044167945489,46.53663575667187,47.722931281007305,47.81360445049151,46.30546867871371,47.10685338694557
34.5,47.471508007869375,47.10531806766471,48.2496804489069,48.331959732331,46.851818461230295,47.643107257220436
35.5,47.971508007869375,47.636635756671865,48.7496804489069,48.83195973233097,47.36341444659459,48.150590308971374
36.5,48.57150800786937,48.23663575667186,49.23306135030674,49.27195305898624,47.93408488860405,48.682001000108784
37.5,49.10306957104251,48.83663575667188,49.70360986808856,49.69091556857336,48.431405807309005,49.18092809747117
38.7,49.636635756671865,49.33663575667185,50.14673616653826,50.12905101635613,48.93761499814826,49.66199029341192
40.0,50.168450838054326,49.90228461396018,50.633061350306775,50.568628038983235,49.469435856411735,50.169597091296
41.2,50.668450838054326,50.402284613960205,51.07395729753972,51.00695883351149,49.94220683623422,50.6383764870684
42.5,51.168450838054326,50.90228461396018,51.57395729753971,51.46862803898324,50.43528733220049,51.12887965245177
43.7,51.63513059177984,51.402284613960205,51.987819190638106,51.90695883351151,50.88989510546193,51.58208908997081
45.0,52.100767494455624,51.90228461396019,52.44478277687243,52.34673677241469,51.355705379562124,52.046915959293955
46.2,52.56845083805432,52.36845083805433,52.8878191906381,52.78849735609958,51.83253469815622,52.50493122897785
47.5,53.03513059177985,52.8022846139602,53.32946066855591,53.22757995317387,52.32093056786864,52.95764956754073
48.7,53.500767494455616,53.33435140868502,53.7294606685559,53.58526041028543,52.75149971473844,53.39318139103651
50.0,54.000767494455616,53.80228461396018,54.200657860694264,54.005984569907426,53.23167779282403,53.86071899329173
51.5,54.43358982687998,54.268450838054335,54.62946066855592,54.426141893916,53.6771652703991,54.29885342033195
53.0,54.90076749445562,54.73435140868503,55.02946066855591,54.826141893916,54.12328110996768,54.73390183986797
54.5,55.36692185116051,55.234351408685015,55.50065786069426,55.263950648194964,54.60051752416973,55.20408702391906
56.0,55.83358982687997,55.70076749445562,55.943790754197295,55.68430355678365,55.0468955224939,55.65277615505401
58.0,56.30076749445563,56.134351408685035,56.37166275391891,56.12428858746597,55.525518173342064,56.101311167254465
60.0,56.766921851160504,56.600767494455624,56.81508314243885,56.54302444611574,55.96099199945445,56.54781026550128
61.5,57.23358982687998,57.10076749445561,57.27166275391892,56.98430355678363,56.44972651321622,57.01791572322176
63.0,57.70076749445562,57.5669218511605,57.74313939533782,57.40503227205076,56.896012730614586,57.47295370003003
65.0,58.16692185116051,58.06692185116049,58.21442746339747,57.86347542944412,57.41160811101247,57.95430955128664
67.0,58.66692185116051,58.56692185116049,58.65775667464531,58.263475429444114,57.85866447831113,58.41351253781974
69.0,59.166921851160495,59.033589826879975,59.143139395337826,58.76347542944413,58.35841976530092,58.90349086916949
71.0,59.633589826879984,59.53358982687996,59.5861845050195,59.243024446115754,58.82702724871211,59.37491314718858
73.0,60.099999999999994,60.000767494455616,60.05775667464532,59.643024446115746,59.30604717223443,59.831996590750066
75.0,60.56692185116049,60.43358982687998,60.52979499755905,60.06395064819495,59.76378631769438,60.28251734484569
77.5,61.03358982687996,60.93358982687997,60.98618450501948,60.545305043539614,60.22209177746815,60.75525152428769
80.0,61.533589826879975,61.43358982687998,61.486184505019494,60.96395064819497,60.690434603118234,61.23426255254665
82.5,61.93358982687998,61.83358982687997,61.8861845050195,61.36395064819496,61.14372020454148,61.64371298037369
85.0,62.400000000000006,62.30076749445561,62.35840584504062,61.80598456990742,61.5597516591379,62.09800999767552
87.5,62.83358982687999,62.70076749445562,62.75840584504061,62.20598456990743,61.9609805378129,62.50545042890623
90.0,63.23358982687998,63.133589826879984,63.15840584504062,62.605984569907434,62.387767724691656,62.91706810465732
92.5,63.66692185116051,63.53358982687996,63.600994414280706,63.005984569907426,62.75729419378736,63.327924751924215
95.0,64.0669218511605,63.93358982687998,64.02979499755904,63.34673677241469,63.147246674500906,63.7213858803031
97.5,64.4669218511605,64.36692185116051,64.42979499755906,63.72757995317387,63.54847390312872,64.12511955330388
100.0,64.93358982687997,64.80076749445561,64.85840584504062,64.12757995317386,63.92877449435025,64.54948849515615
103.0,65.36692185116051,65.20076749445562,65.30229476693692,64.52757995317386,64.32469984600026,64.96553630227581
106.0,65.7669218511605,65.63358982687998,65.75840584504061,64.97046252427117,64.74707446096504,65.39625241472974
109.0,66.23358982687998,66.10076749445561,66.20229476693693,65.37046252427116,65.1483303210785,65.83482063823213
112.0,66.70076749445562,66.5669218511605,66.68748929892041,65.81250022107085,65.55860903832654,66.29154018842092
115.0,67.16692185116051,67.0007674944556,67.10229476693692,66.23357366274146,65.96449883857454,66.72135622451196
118.0,67.60076749445561,67.43358982687997,67.53108675663174,66.61564374029255,66.35617354732284,67.13759418383339
122.0,68.03358982687998,67.90076749445562,67.98748929892041,67.01564374029257,66.71547433409275,67.56499662804501
125.0,68.43358982687997,68.30076749445561,68.38748929892041,67.3568801862013,67.08633039930103,67.94990677911312
128.0,68.80076749445563,68.60076749445561,68.76035311823195,67.73820413572707,67.39829930282195,68.29732300334938
132.0,69.1669218511605,69.00076749445562,69.08748929892042,68.02070188121242,67.6907636785296,68.63558208538669
136.0,69.4669218511605,69.30076749445563,69.40229476693693,68.30097969123388,67.94960925182338,68.92886200813786
140.0,69.7669218511605,69.60076749445561,69.70229476693692,68.56516840337088,68.17828350331594,69.21136164711373
145.0,70.0669218511605,69.90076749445562,69.97525122642458,68.80830075647111,68.40197331423859,69.48357249742473
150.0,70.33358982687999,70.20076749445562,70.23175513861906,69.02988465408723,68.6201301964963,69.74012200319486
155.0,70.60076749445562,70.40076749445562,70.47525122642456,69.2298846540872,68.81067336338391,69.96391035882621
160.0,70.8669218511605,70.70076749445562,70.74675150375354,69.45342828338573,68.96253825222593,70.21429403285923
165.0,71.10076749445561,70.90076749445561,70.97525122642458,69.636773874776,69.13263823907654,70.4213929296125
170.0,71.30076749445563,71.10076749445561,71.17525122642456,69.75342828338574,69.26760672693291,70.59795380652326
175.0,71.4669218511605,71.26845083805433,71.31998423401443,69.86082630843883,69.35438420424666,70.73830383445187
180.0,71.60076749445562,71.40076749445562,71.51998423401444,69.98264684748963,69.48119571094688,70.884046227396
185.0,71.80076749445563,71.56845083805433,71.69366590096783,70.06491879593443,69.579080905973,71.03697545384755
190.0,72.0007674944556,71.73513059177984,71.89366590096782,70.1537466064717,69.67667965941531,71.1972730015265
195.0,72.16845083805433,71.90076749445564,72.06528715999552,70.23630700254118,69.80149237699482,71.34610785941078
200.0,72.33513059177983,72.03513059177982,72.23924275721991,70.32034060402876,69.90403818664825,71.48550155741148
206.0,72.46845083805432,72.16845083805433,72.40914589305828,70.33004967678107,69.98991111532112,71.60233499527035
212.0,72.56845083805432,72.23513059177982,72.5136394060688,70.323585802439,69.99183579016076,71.66663619813635
218.0,72.63513059177983,72.30306957104253,72.61363940606881,70.22181886425663,69.9377508262128,71.70116194153466
224.0,72.70306957104252,72.30306957104253,72.62940676691628,70.0372254489013,69.82003824148002,71.68080646589837
230.0,72.70306957104252,72.23821129888742,72.6600593685791,69.82475954563918,69.62759761513993,71.62024931712168
236.0,72.67150800786938,72.17150800786939,72.68847217927515,69.59260379231678,69.37491285156904,71.54253664829864
240.0,72.67150800786938,72.13821129888743,72.6796853669198,69.36718228055804,69.00952637315038,71.46123702055294
250.0,72.70690501035459,72.10690501035458,72.7106896630263,69.11621523484692,68.5834557507585,71.39480452183011
258.0,72.77150800786939,72.14283030471974,72.8106896630263,69.01687643830398,68.10996157606246,71.38971710767883
265.0,72.94044167945492,72.24283030471975,72.91068966302632,68.9605678021244,67.63722606496914,71.44033000836787
272.0,73.17150800786939,72.48219967332305,73.11068966302629,69.06268665250161,67.24301115590268,71.60127271781812
280.0,73.40690501035459,72.71227178315618,73.31068966302631,69.22261704380246,66.97842127043148,71.7820775682024
290.0,73.67150800786938,73.0122717831562,73.48664191481758,69.35356177404182,66.9294867316458,71.99561542437776
300.0,73.97150800786939,73.31227178315618,73.67455785944568,69.47422398122112,67.01101884892435,72.23155542135532
307.0,74.13663575667186,73.51227178315618,73.83443179205895,69.47187084343736,67.1346957120916,72.38428794098851
315.0,74.20306957104252,73.61227178315617,73.86761108534182,69.27926400139546,67.15073110540806,72.42139705790622
325.0,74.17150800786939,73.57609175449221,73.86761108534182,68.9990740732599,66.97372849910866,72.36544977318552
335.0,74.07150800786937,73.41227178315619,73.74441901451351,68.5942883717894,66.48631330608397,72.19303130776137
345.0,73.87150800786938,73.18219967332304,73.57640057047573,68.1469347055154,65.71416548646195,71.94418839228703
355.0,73.67150800786938,72.98219967332304,73.45378373474547,67.91646284196544,64.70831879699134,71.72932502896671
365.0,73.67150800786938,73.0457671943847,73.35378373474548,67.96474656479359,63.88063628792395,71.69094520158959
375.0,73.83663575667187,73.27609175449223,73.43698126844558,68.2679531781416,63.482638361716894,71.84460940408772
387.0,74.06845083805433,73.64044167945492,73.55968554741492,68.5799149428438,63.56962118162522,72.08568970806503
400.0,74.20076749445562,73.87150800786938,73.63698126844557,68.62528580056308,63.60364098160275,72.22081135640548
412.0,74.03358982687998,73.77150800786937,73.43698126844558,68.37991494284381,63.35296050275548,72.05532669653823
425.0,73.7007674944556,73.43663575667186,73.15378373474546,67.91594873470072,62.84486878718121,71.71989984448555
437.0,73.40306957104252,73.00306957104253,72.99888657798577,67.52753225105587,62.73266289199496,71.42030396049097
450.0,73.61227178315617,72.87609175449221,73.38700543078885,67.50576228021407,63.34678758420394,71.58176392225043
462.0,74.38982856673474,73.22758719283591,74.21913795500015,67.80983805286274,64.32408183646272,72.23592298854996
475.0,75.18982856673472,73.84898359150841,75.03763373458918,68.2213428266713,64.92515551354428,72.96409789904166
487.0,75.78982856673471,74.54314826109436,75.51913795500015,68.57338838648268,64.9411691241585,73.51615105117472
500.0,76.07609175449221,75.12758719283593,75.66690313153268,68.9074106652836,64.46720481538229,73.82104675886919
515.0,76.07150800786938,75.4122717831562,75.5074800989159,69.19092688860854,63.889180238458465,73.85730729410675
530.0,75.70306957104252,75.20690501035459,75.23871757721682,69.16463492278262,63.761651349832746,73.59392072707149
545.0,75.20690501035459,74.63821129888743,74.85160253959158,68.86847505225703,64.4044435825745,73.15066616926023
560.0,74.57609175449221,73.90690501035459,74.1209322824358,68.47634128259676,65.20052648304494,72.52605419920718
580.0,73.87609175449221,73.20690501035459,73.2996394049785,68.37372917309644,65.64581590595967,71.88997356588935
600.0,73.4760917544922,72.77387961222817,72.89963940497853,68.59663221145809,65.6989692825381,71.56274658117718
615.0,73.35260953202217,72.47387961222819,73.07194694757591,68.83439427933897,65.77752202708075,71.52475617262985
630.0,73.37082970284298,71.96235742942079,73.30630283696368,68.66341518504876,66.12221720878539,71.47982864531426
650.0,73.24314826109435,71.44391724861637,73.08844499392839,68.05258476651892,66.26044118509982,71.20721244605555
670.0,73.27082970284297,71.50034112939828,72.80826818425878,67.50623607023,65.94692354105288,71.07332859840434
690.0,73.58982856673472,72.02526453928849,72.94733305442548,67.5027011757555,65.62111164557791,71.32157121741275
710.0,73.68982856673472,72.20942248426019,73.10398445169292,67.83077232615754,65.99886601084029,71.49243497879502
730.0,73.48982856673473,72.00942248426018,73.03085021128119,68.09739482347194,66.74021957163379,71.42931038613263
750.0,73.69897445130925,72.1950645803583,73.2146818988258,68.49612242324432,67.05770838117954,71.65122830130196
775.0,74.28219812790054,72.68219812790056,73.91313170591258,69.15258574411587,67.0374134123891,72.2143473710134
800.0,74.5687803399679,72.54391724861637,74.37117458199756,69.75258574411586,67.41759135151179,72.50035796513421
825.0,74.64293979360191,72.29664781293232,74.47175802099505,69.7949518154347,67.98660654615709,72.54916896871258
850.0,74.92869245367797,72.64915203998831,74.39880662434398,69.38302269038928,67.8375481750851,72.63873693990641
875.0,74.81592538879983,72.70497668676808,73.81735211175082,69.18875115461292,67.0516002728369,72.37568595774825
900.0,74.71592538879982,72.60497668676807,73.43611160323944,70.01926071717344,66.66610390003102,72.28318758391522
925.0,73.87717895989803,71.7491520399883,72.80545744988048,70.21556651573354,66.15698780243088,71.64905411907458
950.0,71.84314826109436,69.50921140720403,70.73110894000976,68.3418084472966,64.72127252673059,69.62308112545108
975.0,74.48219812790055,72.31395652088274,73.92596217150157,70.17614339562586,66.94104171536532,72.3125608672501
1000.0,76.56194867563767,74.5183254418497,76.2658959688025,73.60665250326574,69.72444692011054,74.72072710363919
1030.0,75.62179738688896,73.64258273663015,75.02821742947881,74.35317848913957,69.63736879984478,74.07899425210479
1060.0,74.78888547155002,72.71457895753309,74.00105373653966,73.9708659046253,68.17390600984322,73.24072676117223
1090.0,74.0672655885961,71.70488091921368,73.85629976897589,73.34559674075534,67.27669820704443,72.62768214866925
1120.0,73.2586572401787,70.43776734285541,73.00939066422538,72.73926965601737,66.8109308496947,71.80824068278775
1150.0,73.79448868932289,70.96226741403312,72.83617828681999,72.36910591338015,66.43897779768017,71.89274634381675
1180.0,72.77245249207645,69.53113467688883,72.49921015996507,72.16827318184798,65.3943164180958,71.18120649250673
1220.0,72.31378996755589,68.34827552839256,72.65356996588345,71.35063435390913,63.736337847404684,70.66754081862511
1250.0,75.05906263657509,71.70937829065056,73.85431372798742,71.40880977395632,59.71951530019277,72.3521714871142
1280.0,75.44743899086734,71.77131751433741,73.28178011800009,72.26955129025708,61.44387562329234,72.53526000143643
1320.0,71.64985150686697,67.12997587926382,69.88558050463234,72.96531817243329,65.69728154646533,70.25570738489108
1360.0,69.47695775614916,65.9467871964985,70.25510070300581,72.72157775071108,66.35687639868831,69.67908840664148
1400.0,67.8746684327642,63.25664821100017,69.03747469565678,71.77398317555131,64.53956318445334,68.34399394528148
1450.0,66.98881761960126,59.999595296975045,69.36035186907547,71.4203397848393,63.55977304111646,67.89125948757365
1500.0,68.26400119283413,63.51870013174087,69.2183254807007,71.43645216710377,62.499903102886464,68.1960502985996
1550.0,68.47951478283849,64.0029678874238,69.43076276569809,71.31243837672942,62.11154744903281,68.25889932712023
1600.0,68.119032343648,65.23663575667186,69.83374408605991,71.31296560012439,63.56264877374015,68.48187755340086
1650.0,69.02630031494445,68.49408963790566,70.56727003043208,71.31704084661956,63.7427201179989,69.28055244425984
1700.0,71.68275550459126,71.03257218046558,71.38738746215921,71.8271016016832,62.54125969317204,70.65997188587656
1750.0,71.41657454846322,69.93855083142049,71.5796693774985,71.57210564867725,62.031762415511764,70.33917302795498
1800.0,70.6649717432842,69.23788730291392,71.20707344541636,70.87662094084504,63.401598201679235,69.79314974792527
1850.0,69.71870013174086,68.07314211136085,69.30823397618553,69.6434731556269,64.23383542241953,68.59495960042241
1900.0,69.55260953202216,69.29156164294318,69.16575106127404,69.8187520167182,64.31127107061886,68.81476754081307
1950.0,71.17071732495407,70.80131827952113,69.67378690720396,69.2007653690458,62.6115453811792,69.49783211782945
2000.0,71.17001488257478,70.4236110299371,69.8478349146529,68.8617586198143,61.828921185032485,69.34399538594393
2060.0,70.53663575667186,70.20920925226939,69.61117672707779,68.63697904937565,62.39486960410501,69.03029332804253
2120.0,70.5069050103546,69.96194729184086,69.12752925472185,67.35078135595009,60.38076433683304,68.55590712892338
2180.0,70.63513059177981,69.47106744273917,69.3144658999542,66.9689498858622,55.159629395196134,68.35971132631155
2240.0,70.64136150423587,68.8844476236301,69.15437740211631,67.74480370984661,56.11605411979687,68.31424836706424
2300.0,70.13663575667186,67.7372890655086,69.03753645274593,67.71479838448732,57.10243313684708,67.88065776747034
2360.0,70.44314826109435,67.99095081512014,69.87462662314803,69.04507212621596,56.79840190562422,68.52367136971536
2400.0,69.07641629732153,66.71832676913881,69.87559089687733,69.51284402198905,55.95770362608279,68.03896286791756
2500.0,66.42402487026021,64.87406327003757,68.79013175912345,69.45107859110874,55.66728140753581,66.85047209659982
2580.0,65.91227178315619,64.13940447640165,68.68887710923401,69.03132146205908,52.63607396957897,66.44904916514764
2650.0,66.3560373652456,63.47179133196205,68.32230811020652,68.74866630353048,51.6078965557941,66.22887526272599
2720.0,67.30722417372364,63.68120661450055,68.27624791524057,68.71296745740517,53.6447731191801,66.45501862751375
2800.0,68.73546263134683,64.42934454787718,67.81278684231971,68.92647485363378,54.71927624474823,66.8835782367345
2900.0,70.07872996753788,64.99990988525475,67.2097592747487,68.20244167101157,54.79840770718084,67.07869195678623
3000.0,70.41152699540307,64.23078650810342,67.23020777477447,67.47572771406011,55.33774244539447,66.96557014841423
3070.0,71.16398045832955,64.19682052497528,67.34160325059642,67.4966261946014,56.445683686005324,67.35346828801141
3150.0,70.9772524195027,64.65865891330554,67.70072174130809,67.64213868910213,56.68993491975762,67.42148436293922
3250.0,71.27559328521994,65.59691915590437,68.56698116672348,67.47357655910092,56.580708608795334,67.82129831993446
3350.0,71.7913813303624,66.68626273845484,69.58953421764711,68.11412271218765,57.77871514375461,68.56650697653447
