Freq "Floor Bounce"
22.4 37.07390823526438
23.0 37.7739082352644
23.6 38.439951304174116
24.0 39.203268694418995
25.0 39.93310896653662
25.8 40.597208058875225
26.5 41.26343352664412
27.2 41.89720805887521
28.0 42.52778345160684
29.0 43.12778345160683
30.0 43.727783451606825
30.7 44.32778345160685
31.5 44.927783451606814
32.5 45.458849780021296
33.5 46.02778345160681
34.5 46.55884978002129
35.5 47.05884978002129
36.5 47.658849780021285
37.5 48.19041134319443
38.7 48.72397752882378
40.0 49.25579261020624
41.2 49.75579261020624
42.5 50.25579261020624
43.7 50.72247236393176
45.0 51.18810926660754
46.2 51.655792610206234
47.5 52.12247236393176
48.7 52.58810926660753
50.0 53.08810926660753
51.5 53.5209315990319
53.0 53.98810926660754
54.5 54.45426362331243
56.0 54.92093159903189
58.0 55.38810926660754
60.0 55.85426362331242
61.5 56.320931599031894
63.0 56.788109266607535
65.0 57.254263623312426
67.0 57.754263623312426
69.0 58.25426362331241
71.0 58.7209315990319
73.0 59.18734177215191
75.0 59.6542636233124
77.5 60.12093159903188
80.0 60.62093159903189
82.5 61.0209315990319
85.0 61.48734177215192
87.5 61.9209315990319
90.0 62.320931599031894
92.5 62.754263623312426
95.0 63.15426362331242
97.5 63.55426362331242
100.0 64.02093159903188
103.0 64.45426362331243
106.0 64.85426362331242
109.0 65.3209315990319
112.0 65.78810926660753
115.0 66.25426362331243
118.0 66.68810926660753
122.0 67.12093159903189
125.0 67.52093159903188
128.0 67.88810926660754
132.0 68.25426362331241
136.0 68.55426362331242
140.0 68.85426362331242
145.0 69.15426362331242
150.0 69.4209315990319
155.0 69.68810926660754
160.0 69.95426362331241
165.0 70.18810926660753
170.0 70.38810926660754
175.0 70.55426362331242
180.0 70.68810926660754
185.0 70.88810926660754
190.0 71.08810926660752
195.0 71.25579261020624
200.0 71.42247236393175
206.0 71.55579261020624
212.0 71.65579261020623
218.0 71.72247236393174
224.0 71.79041134319444
230.0 71.79041134319444
236.0 71.7588497800213
240.0 71.7588497800213
250.0 71.7942467825065
258.0 71.8588497800213
265.0 72.02778345160684
272.0 72.25884978002131
280.0 72.49424678250651
290.0 72.7588497800213
300.0 73.0588497800213
307.0 73.22397752882378
315.0 73.29041134319444
325.0 73.25884978002131
335.0 73.15884978002128
345.0 72.9588497800213
355.0 72.7588497800213
365.0 72.7588497800213
375.0 72.92397752882378
387.0 73.15579261020625
400.0 73.28810926660753
412.0 73.12093159903189
425.0 72.78810926660752
437.0 72.49041134319444
450.0 72.69961355530809
462.0 73.47717033888665
475.0 74.27717033888663
487.0 74.87717033888663
500.0 75.16343352664413
515.0 75.1588497800213
530.0 74.79041134319444
545.0 74.2942467825065
560.0 73.66343352664413
580.0 72.96343352664412
600.0 72.56343352664412
615.0 72.43995130417409
630.0 72.4581714749949
650.0 72.33049003324626
670.0 72.35817147499489
690.0 72.67717033888664
710.0 72.77717033888663
730.0 72.57717033888665
750.0 72.78631622346117
775.0 73.36953990005246
800.0 73.65612211211982
825.0 73.73028156575383
850.0 74.01603422582988
875.0 73.90326716095174
900.0 73.80326716095173
925.0 72.96452073204995
950.0 70.93049003324627
975.0 73.56953990005246
1000.0 75.64929044778958
1030.0 74.70913915904087
1060.0 73.87622724370193
1090.0 73.15460736074802
1120.0 72.34599901233062
1150.0 72.8818304614748
1180.0 71.85979426422837
1220.0 71.40113173970781
1250.0 74.14640440872701
1280.0 74.53478076301926
1320.0 70.73719327901888
1360.0 68.56429952830108
1400.0 66.96201020491611
1450.0 66.07615939175318
1500.0 67.35134296498605
1550.0 67.56685655499041
1600.0 67.20637411579992
1650.0 68.11364208709637
1700.0 70.77009727674317
1750.0 70.50391632061513
1800.0 69.75231351543611
1850.0 68.80604190389278
1900.0 68.63995130417408
1950.0 70.25805909710598
2000.0 70.25735665472669
2060.0 69.62397752882377
2120.0 69.59424678250652
2180.0 69.72247236393173
2240.0 69.72870327638779
2300.0 69.22397752882378
2360.0 69.53049003324627
2400.0 68.16375806947345
2500.0 65.51136664241213
2580.0 64.9996135553081
2650.0 65.44337913739751
2720.0 66.39456594587556
2800.0 67.82280440349875
2900.0 69.1660717396898
3000.0 69.49886876755498
3070.0 70.25132223048146
3150.0 70.06459419165462
3250.0 70.36293505737186
3350.0 70.87872310251431
3450.0 71.10391854620516
3550.0 72.11822444573286
3650.0 70.98766239419788
3750.0 70.8314706502269
3870.0 70.55002108382587
4000.0 68.0397437535801
4120.0 67.31081188612491
4250.0 66.95436539424509
4370.0 66.72843609421118
4500.0 68.04534981984534
4620.0 71.16986912057142
4750.0 73.75871856922018
4870.0 73.40129364306438
5000.0 73.41064445355285
5150.0 72.98559178577277
5300.0 72.99064561044122
5450.0 73.06986912057141
5600.0 72.53320842576888
5800.0 72.90776604773394
6000.0 72.02655305538141
6150.0 70.56335641307
6300.0 69.17829467477432
6500.0 69.06089143415454
6700.0 70.64929044778958
6900.0 71.87077638244743
7100.0 71.41083862281172
7300.0 70.37386241381985
7500.0 68.81698672570755
7750.0 68.74796222365904
8000.0 68.69085159031128
8250.0 67.68047380769926
8500.0 66.72619655489255
8750.0 62.704297935479374
9000.0 61.60851420924979
9250.0 62.307561336195135
9500.0 63.83478076301925
9750.0 64.85436539424508
10000.0 64.48601637760552
10300.0 61.568418321785174
10600.0 54.018575477059855
10900.0 52.20570327641815
11200.0 55.479142558726394
11500.0 60.56939082886146
11800.0 63.97700435091805
12200.0 61.80837602879686
12500.0 56.57222423457979
12800.0 55.52781255220185
13200.0 59.061479793382006
13600.0 59.21406085766719
14000.0 57.256875717454776
14500.0 55.9553988595314
15000.0 53.72280440349874
15500.0 57.449607888420076
16000.0 60.04068752487795
16500.0 57.16748006285627
17000.0 51.82041225439414
17500.0 50.24046745736739
18000.0 51.38095174055687
18500.0 48.77581292137589
19000.0 42.25641859234145
19500.0 30.038173494750993
