Freq "Estimated In-Room Response"
22.4 71.08037905851053
23.0 71.27905623658819
23.6 71.47787187793169
24.0 71.67050452440922
25.0 71.84112130053299
25.8 71.97819486259434
26.5 72.1323752229367
27.2 72.27324904961074
28.0 72.3827191087756
29.0 72.51918269494685
30.0 72.62300238234923
30.7 72.72396938178183
31.5 72.82745577986702
32.5 72.92925404959384
33.5 72.99537896595805
34.5 73.04173417815159
35.5 73.06465218445072
36.5 73.13097063445662
37.5 73.15330043177238
38.7 73.18507871775952
40.0 73.16382765353313
41.2 73.17214740670866
42.5 73.21944418977654
43.7 73.16706412809188
45.0 73.21744387559826
46.2 73.2731041864118
47.5 73.33494763829513
48.7 73.48791584873665
50.0 73.69932734604104
51.5 74.08419625946496
53.0 74.68599534449862
54.5 75.40153994220998
56.0 76.1131028247079
58.0 77.24209610620841
60.0 78.59349582219848
61.5 79.72162564870561
63.0 80.48766821430655
65.0 81.3046857536686
67.0 82.18926310323062
69.0 82.94073296318007
71.0 83.87650296948871
73.0 84.64816382697359
75.0 85.44730033825405
77.5 86.47675798446973
80.0 87.78371401055875
82.5 88.98034189381126
85.0 89.71410826955683
87.5 90.38389351927918
90.0 91.07678506987433
92.5 91.57423767161205
95.0 91.9306973973233
97.5 92.21671254284496
100.0 92.25329701600215
103.0 92.22148513900595
106.0 92.20915809235497
109.0 92.1491935022748
112.0 92.03814102313359
115.0 91.8643282260368
118.0 91.62420691675199
122.0 91.31128674231061
125.0 90.9367079456812
128.0 90.51428428338306
132.0 90.08500985883273
136.0 89.69909303698799
140.0 89.35252353804987
145.0 89.03427466419281
150.0 88.75960059413761
155.0 88.50539764639962
160.0 88.39735308641244
165.0 88.47446957053441
170.0 88.73277881870128
175.0 89.1879927009177
180.0 89.71759161597848
185.0 90.20343612517425
190.0 90.53158059263049
195.0 90.65827302706217
200.0 90.58310899447973
206.0 90.33786905156597
212.0 89.99858984646114
218.0 89.65760183640018
224.0 89.34060181725604
230.0 89.09869314251569
236.0 88.99437368780993
240.0 89.00945274886358
250.0 89.1189728927478
258.0 89.30624988737922
265.0 89.42999454773357
272.0 89.48692825230964
280.0 89.55746679580469
290.0 89.61492048087828
300.0 89.7975181960397
307.0 90.12213425437967
315.0 90.51863771825575
325.0 91.01576381010436
335.0 91.42372827365078
345.0 91.74190197083871
355.0 91.9276894661457
365.0 92.01332356816441
375.0 92.10307526591994
387.0 92.26748810078391
400.0 92.52874493533544
412.0 92.82566051186357
425.0 93.01908499703839
437.0 92.86241806876039
450.0 92.26813225292184
462.0 91.26955247824108
475.0 90.05715670763121
487.0 88.91125712749313
500.0 88.03428286359843
515.0 87.49213111035932
530.0 87.21275894356603
545.0 87.18331772873938
560.0 87.27532702581297
580.0 87.42196070181788
600.0 87.52611603207282
615.0 87.61175860884846
630.0 87.65500459688467
650.0 87.74127794718827
670.0 88.03261723136691
690.0 88.48514490508316
710.0 89.0678288045954
730.0 89.6033881338592
750.0 89.90902845427881
775.0 89.92841236082751
800.0 89.72456253362742
825.0 89.4026902530442
850.0 88.96424306161298
875.0 88.46658309683673
900.0 87.98762079081355
925.0 87.57047029245578
950.0 87.35489213571701
975.0 87.30318976611264
1000.0 87.30020930941944
1030.0 87.30798598595844
1060.0 87.34773611026019
1090.0 87.59576528819855
1120.0 87.8931103069322
1150.0 88.34433435637325
1180.0 88.75991806213186
1220.0 88.97529204468574
1250.0 89.02248250959659
1280.0 88.75702438727907
1320.0 88.18777153575641
1360.0 87.5180026372917
1400.0 86.76004683362804
1450.0 86.22587630953066
1500.0 85.91278318227343
1550.0 85.76566907417008
1600.0 85.8247260692988
1650.0 85.89927926592651
1700.0 85.93950162990153
1750.0 86.03872744239841
1800.0 86.02344243693148
1850.0 85.94208290449924
1900.0 85.78417697432144
1950.0 85.56001355047934
2000.0 85.21279698230792
2060.0 84.73602762467378
2120.0 84.16197476424944
2180.0 83.58154101884571
2240.0 83.1234596957097
2300.0 82.91182727383801
2360.0 83.04030398674439
2400.0 83.44259489711695
2500.0 84.06488741215728
2580.0 84.72082631556493
2650.0 85.18732139741431
2720.0 85.34262716208922
2800.0 85.1274443983225
2900.0 84.78500218934107
3000.0 84.4718877631955
3070.0 84.30156389467588
3150.0 84.12014597395131
3250.0 83.94322136876366
3350.0 83.78053826867948
3450.0 83.76187727060078
3550.0 84.00247201408801
3650.0 84.35191804596485
3750.0 84.70074000585767
3870.0 84.90637723857873
4000.0 84.81625086001034
4120.0 84.5188770573791
4250.0 84.06629267497024
4370.0 83.45728579563828
4500.0 82.96666730046513
4620.0 82.81017411070462
4750.0 83.0966506583347
4870.0 83.76853554551664
5000.0 84.56461007563311
5150.0 85.16825272709215
5300.0 85.33390914198134
5450.0 85.11489527008456
5600.0 84.70809677906712
5800.0 84.45278539240834
6000.0 84.47200042143177
6150.0 84.66752722842513
6300.0 84.90762783637742
6500.0 84.84876958718506
6700.0 84.44698526213476
6900.0 84.04204474079324
7100.0 83.68108501326492
7300.0 83.62054693993576
7500.0 83.83323498933316
7750.0 83.92800605902957
8000.0 83.9063278988569
8250.0 83.76320827907969
8500.0 83.41202779897864
8750.0 83.13507512766441
9000.0 82.8569046008891
9250.0 82.75195408562672
9500.0 82.87263302560973
9750.0 83.18149130595249
10000.0 83.49513713528947
10300.0 83.68444500718452
10600.0 83.75842767960809
10900.0 83.75197038997027
11200.0 83.68770773801654
11500.0 83.46267290600484
11800.0 83.05679090940087
12200.0 82.55671736988805
12500.0 82.00741767688938
12800.0 81.75056608921349
13200.0 81.7245629607631
13600.0 81.51396010552622
14000.0 81.18113946904597
14500.0 80.7264652457636
15000.0 80.2577726542004
15500.0 80.04784035287625
16000.0 80.07644503225883
16500.0 80.24033352705082
17000.0 80.12688579827686
17500.0 79.86856894802902
18000.0 79.11372568168593
18500.0 77.74721074706773
19000.0 76.24506432611796
19500.0 74.75063634711154
