Freq,On Axis,Listening Window,Sound Power,Early Reflections,Early Reflections DI,Sound Power DI,DI offset
20.5078,71.4011,71.40167221393878,68.72960532439157,70.54769830006475,40.85397391387403,42.67206688954721,40
21.9727,72.438,72.4381737120366,69.76393418883367,71.58169330451067,40.856480407525936,42.67423952320293,40
23.4375,73.2713,73.27160261668587,70.5981372060395,72.41632350165335,40.855279115032516,42.67346541064637,40
24.9023,73.99339999999998,73.99373616008896,71.3202299331796,73.13799781702969,40.85573834305927,42.67350622690935,40
26.3672,74.7746,74.77488374959329,72.10097959204282,73.91884878526788,40.8560349643254,42.67390415755047,40
27.832,75.4876,75.48793847395496,72.81411103023864,74.63166363430084,40.85627483965412,42.67382744371632,40
29.2969,76.1105,76.11068451276748,73.43581325535196,75.25369400226636,40.85699051050112,42.67487125741552,40
30.7617,76.7378,76.73808069396523,74.06317480646669,75.88143677749059,40.85664391647464,42.67490588749854,40
32.2266,77.3228,77.32296931096653,74.646724694058,76.46576327968648,40.85720603128004,42.676244616908534,40
33.6914,77.85560000000001,77.8557363245751,75.17914738726525,76.99799148680292,40.85774483777219,42.67658893730986,40
35.1562,78.3867,78.38677018392245,75.70998529100542,77.5286463069501,40.85812387697236,42.67678489291703,40
36.6211,78.9114,78.91157093297393,76.2344066621491,78.05275957893728,40.858811354036646,42.67716427082483,40
38.0859,79.4128,79.41295139332824,76.7356769319167,78.55297992134417,40.85997147198407,42.67727446141154,40
39.5508,79.9966,79.99678558777318,77.31957954170318,79.13690637956319,40.85987920820999,42.67720604607,40
41.0156,80.3214,80.32128340949288,77.641832326692,79.46036564559563,40.86091776389725,42.67945108280088,40
42.4805,80.6451,80.64501626303972,77.96505987240349,79.78400080668976,40.86101545634996,42.679956390636235,40
43.9453,81.0993,81.09926319529607,78.41906503638215,80.23750882618216,40.86175436911391,42.680198158913925,40
45.4102,81.43950000000001,81.43933676359752,78.75721729608287,80.57602602727749,40.86331073632003,42.68211946751465,40
46.875,81.71260000000001,81.71275904127752,79.03088167148381,80.8519863008646,40.860772740412926,42.68187736979371,40
48.3398,82.30019999999999,82.29982458879272,79.61700678076807,81.43904885197189,40.86077573682083,42.68281780802465,40
51.2695,82.9648,82.96217238080163,80.27737500954993,82.10197407782812,40.860198302973515,42.684797371251705,40
52.7344,82.299,82.2949380268719,79.60825028419762,81.43224007204692,40.86269795482498,42.68668774267428,40
54.1992,82.7377,82.73579762899084,80.05187723537844,81.87115095957992,40.86464666941092,42.6839203936124,40
55.6641,83.2423,83.2411320754006,80.55577373988436,82.37215053995274,40.86898153544786,42.68535833551624,40
58.5938,83.2743,83.27367933634483,80.58412944950345,82.3996820771026,40.87399725924223,42.68954988684138,40
60.0586,83.42330000000001,83.42355688455781,80.73249052106416,82.55326519587904,40.870291688678776,42.69106636349365,40
62.9883,83.87389999999999,83.87438871567669,81.18611676273736,83.00915814202638,40.86523057365031,42.68827195293933,40
64.4531,84.4533,84.45425237868399,81.7701960162473,83.59283487025009,40.8614175084339,42.68405636243669,40
67.3828,84.8537,84.85399622358676,82.16446152922005,83.98679014449918,40.86720607908758,42.68953469436671,40
68.8477,85.1183,85.11873297908136,82.42927033847396,84.25181646731808,40.86691651176328,42.6894626406074,40
71.7773,85.54320000000001,85.54385289292156,82.85297615847831,84.67630095501143,40.867551937910136,42.69087673444325,40
74.707,85.85499999999999,85.85565282201374,83.16241952423793,84.98663284023961,40.86901998177413,42.693233297775805,40
77.6367,86.1421,86.14267057131165,83.44680077738565,85.27300658723252,40.86966398407914,42.69586979392601,40
79.1016,86.2983,86.29877024896935,83.60188147801479,85.42878624504186,40.869984003927485,42.69688877095456,40
82.0312,86.6731,86.67327068688402,83.97349372462548,85.80110275920431,40.87216792767971,42.69977696225854,40
84.9609,87.0165,87.0158114506735,84.30891660683605,86.13967338627793,40.87613806439556,42.706894843837446,40
87.8906,87.2131,87.21219176088525,84.50371734083737,86.33549487229712,40.87669688858813,42.70847442004788,40
90.8203,87.49269999999999,87.49273718621387,84.78660677102935,86.61671500235084,40.87602218386303,42.70613041518452,40
95.2148,87.8045,87.80414830748192,85.09397007265763,86.92580448295564,40.87834382452628,42.7101782348243,40
98.1445,87.99679999999998,87.99651669187456,85.28524049640589,87.11710022832253,40.87941646355203,42.71127619546867,40
101.074,88.1933,88.19315253216045,85.48031759211503,87.31205196834918,40.88110056381127,42.712834940045425,40
105.469,88.4451,88.44474480742358,85.72878059982867,87.5624041081773,40.88234069924627,42.71596420759491,40
108.398,88.58509999999998,88.58484836869346,85.86827124812356,87.70267161074003,40.88217675795343,42.716577120569895,40
112.793,88.6594,88.65867076489567,85.93972052685308,87.77559913984645,40.883071625049226,42.718950238042595,40
117.188,88.8131,88.81427857248596,86.09959099106105,87.9321260151305,40.882152557355454,42.71468758142491,40
120.117,88.8613,88.86151493421156,86.13982091050018,87.97362379076007,40.88789114345148,42.72169402371138,40
124.512,89.0113,89.01144626722235,86.28650141816307,88.12037691497119,40.891069352251165,42.724944849059284,40
128.906,89.0629,89.06309897637398,86.33373754445607,88.16901629272851,40.894082683645465,42.72936143191791,40
133.301,89.0043,89.00531111609362,86.27339421777519,88.1050977526739,40.900213363419724,42.73191689831843,40
139.16,88.9099,88.91482035255912,86.18703317639708,88.0185432085681,40.896277143991014,42.72778717616204,40
143.555,89.0695,89.07279606902902,86.33152020942333,88.17204889432821,40.90074717470081,42.74127585960569,40
147.949,89.2284,89.2309487203444,86.47797835288748,88.32369839886081,40.90725032148359,42.752970367456925,40
153.809,89.2082,89.21108268061666,86.45877173148244,88.30350991730089,40.90757276331577,42.75231094913421,40
159.668,89.21530000000001,89.21880001834687,86.46209834197207,88.30589821469411,40.91290180365276,42.7567016763748,40
165.527,89.2291,89.23309204130945,86.46945587294834,88.3161339318832,40.91695810942625,42.7636361683611,40
171.387,89.1511,89.15592746058331,86.39077225991942,88.23935527651926,40.91657218406405,42.7651552006639,40
177.246,89.0123,89.01828820475953,86.24580298742833,88.09504799543801,40.92324020932152,42.772485217331194,40
183.105,88.65719999999999,88.66648658505794,85.90875566506628,87.74856203439157,40.91792455066637,42.75773091999166,40
188.965,88.59210000000002,88.58331165309154,85.76256651774835,87.62163251270945,40.96167914038209,42.82074513534319,40
196.289,90.5144,90.49090802442676,87.5908913210737,89.48854610659848,41.00236191782828,42.90001670335306,40
203.613,90.5946,90.57552160072213,87.66016321738948,89.5620854038391,41.01343619688302,42.915358383332645,40
210.938,90.1695,90.15416846549604,87.24150159043431,89.14139394064422,41.01277452485182,42.91266687506173,40
218.262,89.977,89.96155698614834,87.04081728268136,88.9432503283524,41.01830665779593,42.92073970346698,40
225.586,89.7151,89.70342163009457,86.79155932243788,88.68103322408845,41.022388406006115,42.91186230765669,40
232.91,90.1859,90.15432376065354,87.12075405561116,89.06556565456144,41.0887581060921,43.03356970504238,40
241.699,89.9297,89.9051773427411,86.88044103156378,88.82944150189203,41.07573584084906,43.02473631117732,40
250.488,89.9987,89.96831077302693,86.88193257176302,88.84561365531191,41.12269711771502,43.08637820126391,40
259.277,90.2705,90.23233830301041,87.0722271383655,89.07541874429675,41.15691955871365,43.1601111646449,40
268.066,90.0763,90.04135019322119,86.89746103498037,88.9015989138842,41.13975127933699,43.143889158240825,40
276.855,90.4639,90.41069151652437,87.13979876411813,89.18707450055443,41.223617015969936,43.27089275240624,40
287.109,90.6521,90.60682481225469,87.3495903591951,89.38452005087692,41.22230476137777,43.25723445305958,40
297.363,90.5155,90.46711704592596,87.16005211537987,89.21378635335489,41.25333069257107,43.30706493054609,40
307.617,91.0573,90.99457929916865,87.5884405897477,89.69114406275308,41.30343523641557,43.406138709420944,40
319.336,90.8528,90.79637823239972,87.4173003839209,89.50463294834375,41.29174528405596,43.379077848478815,40
329.59,91.0582,90.97264362097162,87.3792162863418,89.55149969743209,41.42114392353953,43.59342733462982,40
341.309,91.1932,91.10849008301665,87.45278812069077,89.64790389172919,41.46058619128746,43.65570196232588,40
353.027,91.0147,90.92488319906799,87.23708216656422,89.43910807490428,41.48577512416371,43.68780103250377,40
366.211,91.1735,91.06861632060627,87.21005214326182,89.48936604676048,41.57925027384579,43.85856417734445,40
379.395,91.3536,91.22738966342007,87.23956991748472,89.57369267167353,41.65369699174654,43.987819745935354,40
392.578,91.24880000000002,91.13211267360344,87.12465284191653,89.46155725576865,41.67055541783479,44.007459831686916,40
405.762,91.31550000000001,91.18418060968422,87.03453586178858,89.42424657138686,41.75993403829736,44.149644747895636,40
420.41,91.3859,91.24595373031731,87.0633367352646,89.4585869765645,41.787366753752806,44.18261699505271,40
435.059,91.4016,91.24327240772844,86.98537965688482,89.41076718683118,41.83250522089726,44.257892750843624,40
451.172,91.1004,90.97323577501102,86.77060832695801,89.1702822225153,41.80295355249572,44.20262744805301,40
465.82,90.90689999999998,90.78799669793219,86.59513628320195,88.98424540855697,41.803751289375214,44.192860414730234,40
483.398,90.7688,90.6519724048247,86.41346037762955,88.8202582241806,41.8317141806441,44.238512027195156,40
499.512,90.9374,90.81794969333033,86.46824102328289,88.90690606918456,41.911043624145776,44.34970867004745,40
517.09,90.3432,90.2481251660253,85.91326396127982,88.34181289394009,41.906312272085216,44.33486120474548,40
536.133,90.1676,90.1037685902815,85.74114069205736,88.17252530467108,41.93124328561042,44.36262789822415,40
555.176,90.245,90.1650537124221,85.6449974142045,88.12891717024236,42.03613654217973,44.5200562982176,40
574.219,90.1236,90.05896517212518,85.43155164271235,87.925891884108,42.13307328801719,44.627413529412834,40
594.727,90.4334,90.29595461695806,85.42544702106287,88.01107331142259,42.284881305535464,44.87050759589519,40
615.234,90.0153,89.84449186940785,84.8847921483326,87.4890930945375,42.35539877487035,44.95969972107525,40
637.207,89.838,89.6318335089086,84.49292288862573,87.13815941387685,42.49367409503175,45.13891062028287,40
659.18,89.5279,89.28713606219546,83.98803111708851,86.6763009791718,42.61083508302366,45.29910494510695,40
682.617,88.9369,88.71515170824061,83.42865448385153,86.06192041483624,42.653231293404374,45.28649722438908,40
707.52,89.1926,89.07826840332513,83.84142971232832,86.37683215663196,42.70143624669316,45.236838690996805,40
732.422,88.95070000000001,88.86995708196531,83.59196115527712,86.19728913685277,42.672667945112536,45.27799592668819,40
757.324,88.9911,88.98607784951503,83.75029175875738,86.3172400867566,42.66883776275843,45.23578609075764,40
785.156,89.42080000000001,89.418041711804,84.27027368994635,86.78928247412142,42.62875923768257,45.147768021857644,40
811.523,89.6116,89.57356080596344,84.33091104771131,86.87566298385397,42.69789782210947,45.24264975825213,40
840.82,89.5012,89.33476228500177,84.04240903306432,86.52473411214532,42.81002817285645,45.292353251937456,40
870.117,89.83000000000001,89.55820273227134,83.99901002543493,86.52376880754572,43.03443392472562,45.55919270683641,40
900.879,89.7841,89.4663555319133,83.75220018378529,86.28790481234634,43.17845071956695,45.714155348128,40
933.105,89.52110000000002,89.27095077392826,83.56614778346211,86.0449398947074,43.226010879220865,45.70480299046615,40
965.332,89.0427,88.96921592583561,83.48132462465625,85.88066441463926,43.08855151119636,45.48789130117936,40
1000.49,89.2413,89.1659524233726,83.56851699279203,85.99271423213678,43.173238191235825,45.597435430580575,40
1035.64,89.316,89.20042624069978,83.40983983994734,85.87038552598338,43.330040714716404,45.790586400752446,40
1072.27,89.4769,89.219223715738,83.27551137395085,85.72776728892195,43.49145642681604,45.94371234178715,40
1108.89,89.1682,88.75567714062436,82.77138180289887,85.18118760045844,43.574489540165914,45.984295337725484,40
1148.44,88.6945,88.37086084591265,82.60474022212522,84.8040613643544,43.56679948155825,45.76612062378743,40
1189.45,88.83700000000002,88.54419658539334,82.51508578129013,84.83566788417056,43.708528701222775,46.02911080410321,40
1230.47,89.0103,88.82129652202588,82.89581822298632,85.06003035591797,43.7612661661079,45.925478299039554,40
1274.41,89.1601,88.95719432123072,83.47929535899311,85.40148962126487,43.555704699965844,45.4778989622376,40
1319.82,89.6103,89.43730737890304,83.82381481827329,85.77189442975046,43.66541294915258,45.61349256062975,40
1366.7,89.493,89.492233259113,84.05520800466863,85.94547120200359,43.546762057109405,45.437025254444364,40
1413.57,89.315,89.30693965432968,83.74967467860982,85.69858468731906,43.60835496701063,45.55726497571986,40
1463.38,89.0963,88.82200763854642,83.26835110706897,85.28529522808499,43.53671241046143,45.55365653147746,40
1516.11,88.8637,88.35480612396681,82.63580782135153,84.72062249582643,43.63418362814038,45.718998302615276,40
1568.85,88.5873,88.10849047909454,82.18978596045127,84.3561452593991,43.75234521969544,45.91870451864327,40
1624.51,89.7016,88.80923011827312,82.0714306444013,84.52101389286476,44.28821622540836,46.73779947387182,40
1681.64,90.1591,89.32563997036588,82.37468299199679,84.91479206675018,44.410847903615704,46.95095697836909,40
1741.7,90.7521,89.88530091879738,82.8792627636257,85.43514332439148,44.45015759440591,47.00603815517168,40
1803.22,90.0368,89.33601917524717,82.44023836530596,84.982449936753,44.353569238494174,46.895780809941215,40
1866.21,89.1059,88.52173839824998,81.64440868949828,84.24854106226636,44.273197335983625,46.8773297087517,40
1932.13,88.5853,87.9826246485683,80.84104528448144,83.56226372527759,44.420360923290716,47.141579364086866,40
1999.51,88.6768,88.04613322247114,80.49614767485976,83.5039492864268,44.54218393604434,47.549985547611385,40
2069.82,89.12620000000001,88.3333772200983,80.43575294984954,83.64549380508849,44.68788341500981,47.897624270248755,40
2143.07,88.87299999999999,88.01205498328919,80.14492690008237,83.23735415964407,44.77470082364512,47.86712808320682,40
2219.24,87.6741,86.90572097718365,79.40269015115356,82.21834976916517,44.687371208018476,47.503030826030084,40
2296.88,87.3221,86.35519558633985,79.00702185214598,81.7521844226394,44.603011163700444,47.348173734193864,40
2378.91,88.06709999999998,86.93871183372765,79.38204324575025,82.24885615639718,44.68985567733047,47.5566685879774,40
2462.4,89.8963,88.63255779353688,81.01834118067626,83.90026135728255,44.73229643625433,47.614216612860616,40
2548.83,89.8794,88.79386844059476,81.69830879882261,84.25306927532566,44.54079916526911,47.095559641772155,40
2639.65,88.7926,88.01890546195969,81.58041646544135,83.95706468192887,44.06184078003082,46.438488996518345,40
2731.93,88.7699,87.76918699963831,81.27210492026272,83.83491613073824,43.93427086890007,46.49708207937559,40
2828.61,89.30279999999999,88.35299112085728,81.80423295300591,84.50576180088939,43.847229319967894,46.548758167851375,40
2928.22,89.7971,88.98593520559069,82.36895699494953,84.97893570557505,44.00699950001564,46.616978210641165,40
3030.76,89.5966,88.65325201469061,82.52665196876396,84.90319080750223,43.75006120718838,46.12660004592665,40
3137.7,89.05680000000001,88.13589059939235,82.47252042676678,84.77201717562,43.36387342377236,45.66337017262558,40
3249.02,89.0509,88.1683232173465,82.276230581118,84.63630526257245,43.53201795477405,45.8920926362285,40
3363.28,88.91549999999998,88.17755428068506,81.92715652725812,84.57746237842969,43.60009190225537,46.25039775342694,40
3481.93,88.3408,87.76481754038298,81.90962247878674,84.44520159570186,43.31961594468112,45.855195061596234,40
3604.98,88.2517,87.78291956800452,81.94498967261697,84.39625435702409,43.386665210980425,45.837929895387546,40
3732.42,88.283,88.425028092484,82.15721009900876,84.68272591783192,43.74230217465208,46.267817993475234,40
3864.26,87.2934,87.55930286100238,81.68575859649339,84.29370015578846,43.26560270521392,45.87354426450899,40
4000.49,86.4462,87.13600131072,81.58758906497481,84.11062045979342,43.02538085092658,45.5484122457452,40
4141.11,87.7491,88.06838119644256,82.01419623562074,84.73147570054454,43.33690549589802,46.054184960821814,40
4287.6,88.7501,88.15361573635695,82.31835446899822,85.19001963111558,42.96359610524138,45.83526126735873,40
4438.48,88.8359,88.16547992785175,82.1578018078393,85.20341254151027,42.962067386341474,46.00767812001244,40
4595.21,89.3818,88.46732148421543,82.10362607221168,85.45971047754736,43.00761100666807,46.36369541200375,40
4756.35,89.4918,88.53094521213849,82.0385618535719,85.50082716325136,43.03011804888713,46.492383358566585,40
4924.8,89.1986,88.55310273942891,81.84827756625162,85.31627407099977,43.23682866842914,46.704825173177284,40
5097.66,89.34529999999998,88.47037729414323,81.6435924422045,85.16727781901942,43.303099475123815,46.82678485193874,40
5277.83,88.832,88.1081641760958,81.14658503381831,84.64729587398529,43.46086830211051,46.961579142277486,40
5463.87,88.7811,88.09722175894674,80.93484502510306,84.40244809494247,43.69477366400427,47.162376733843686,40
5657.23,88.6199,87.90213570209035,80.5868665714476,84.27650671816869,43.62562898392166,47.31526913064275,40
5856.45,88.70490000000001,87.78564420851309,80.33720074330814,84.09192638656337,43.69371782194972,47.448443465204946,40
6062.99,89.5382,88.35694756261532,80.71937146772603,84.6624411558837,43.69450640673162,47.63757609488928,40
6276.86,90.1389,88.60846491294728,80.76137944570203,84.9457302076076,43.66273470533969,47.84708546724525,40
6498.05,90.6178,89.16426072526025,81.18530930774811,85.35476813258794,43.80949259267231,47.978951417512135,40
6726.56,91.11869999999999,89.57699090354404,81.5726961485372,85.68002591058345,43.89696499296059,48.00429475500684,40
6963.87,90.8749,89.4848522995658,81.54852467446695,85.75286743632529,43.73198486324051,47.936327625098855,40
7209.96,90.6592,89.44708590690567,81.61091351930904,85.76209321340389,43.68499269350178,47.83617238759663,40
7464.84,90.3605,89.12526560152001,81.21834518947942,85.48117974491761,43.6440858566024,47.90692041204059,40
7727.05,90.235,88.9186328015905,80.96891895130737,85.17314306473652,43.74548973685398,47.94971385028313,40
7999.51,89.8194,88.64279377865833,80.59450509025405,84.73168875804468,43.91110502061365,48.048288688404284,40
8282.23,89.2855,88.37249666920832,80.22421140664142,84.32928894573158,44.04320772347674,48.1482852625669,40
8573.73,89.1533,88.42245890317464,80.20214702285793,84.21040380761815,44.212055095556494,48.220311880316714,40
8876.95,89.5585,88.57480588695589,80.25336580906954,84.37439741964502,44.200408467310865,48.32144007788635,40
9188.96,90.306,88.95020401727022,80.42816392889134,84.74981305276438,44.20039096450584,48.52204008837889,40
9514.16,90.39190000000002,89.14051356550408,80.56321631771858,84.8861626875342,44.254350877969884,48.577297247785495,40
9849.61,90.25999999999999,89.1029185780474,80.35923761836372,84.70201051312878,44.40090806491861,48.74368095968367,40
10196.8,90.4112,89.10346158993873,80.28903537762605,84.65443161809993,44.4490299718388,48.81442621231268,40
10555.7,90.3851,88.92245404788449,80.18220912258968,84.52964195163182,44.39281209625267,48.7402449252948,40
10927.7,89.9467,88.7768929239165,80.12808859766152,84.45248167317197,44.32441125074453,48.64880432625499,40
11313.0,89.3611,88.56351834428509,80.07719164909176,84.31936911567854,44.244149228606545,48.48632669519333,40
11712.9,88.9254,88.31315223478978,79.78681185859293,83.9928187074695,44.32033352732029,48.526340376196856,40
12126.0,88.5747,88.12329508772311,79.67638119778394,83.94247083374202,44.180824253981086,48.44691388993917,40
