Freq "Estimated In-Room Response"
20.0 61.696582525167784
20.2909 62.318498025024624
20.586 62.9546411275053
20.8855 63.607657055951094
21.1893 64.25206290790162
21.4975 64.87777655092044
21.8102 65.4890065406638
22.1274 66.12364488621073
22.4492 66.80483063340385
22.7758 67.58781955353744
23.1071 68.47442487565387
23.4432 69.34835995392721
23.7841 70.12559296368265
24.1301 70.84454576928559
24.4811 71.54387438964496
24.8372 72.26911164605262
25.1984 73.05879148575652
25.5649 73.88148202973447
25.9368 74.69571203470959
26.3141 75.50991921367459
26.6968 76.33585739638835
27.0851 77.15470411945516
27.4791 77.95403335664186
27.8788 78.75366678460183
28.2843 79.5576696115185
28.6957 80.34056248272528
29.1131 81.08692702499316
29.5365 81.81024978955084
29.9661 82.51318226929044
30.402 83.19256891741976
30.8442 83.83984817447792
31.2929 84.45203335664185
31.748 85.0266515658793
32.2098 85.55649203662696
32.6783 86.0218424654398
33.1536 86.42520459226996
33.6359 86.75860116957438
34.1251 87.03091292527363
34.6215 87.2537120347096
35.125 87.4379767900432
35.6359 87.59045873630015
36.1543 87.71820074867072
36.6802 87.82047014226288
37.2137 87.90885349971028
37.755 87.99863010161064
38.3041 88.0877935297104
38.8613 88.1692468899762
39.4265 88.24422599036575
40.0 88.31248969739472
40.5818 88.37211772261132
41.1721 88.42709512815625
41.771 88.48155575810473
42.3785 88.53343152918971
42.9949 88.58814928267107
43.6203 88.64259643402546
44.2548 88.69231986607086
44.8985 88.73604781633361
45.5515 88.77862735266575
46.2141 88.82452349678775
46.8863 88.87796415278552
47.5683 88.9276184879824
48.2602 88.97015842411174
48.9621 89.01022970034539
49.6743 89.0521888193948
50.3968 89.09408014473655
51.1299 89.13029523858384
51.8736 89.15628235045143
52.6281 89.17329074297527
53.3936 89.18372310528152
54.1702 89.19095898284996
54.9581 89.1940225976273
55.7575 89.19384970384542
56.5685 89.19401227880954
57.3914 89.1961906017372
58.2261 89.19600428431569
59.073 89.1943294329762
59.9323 89.19556062459542
60.804 89.19946086869504
61.6884 89.20542416055251
62.5857 89.21199662825097
63.496 89.2191518290031
64.4196 89.23160331571005
65.3566 89.24823784293446
66.3073 89.26739669674383
67.2717 89.2863227038036
68.2502 89.30386353308265
69.2429 89.31903186913307
70.2501 89.33132617513037
71.2719 89.33249690486784
72.3086 89.32120089707811
73.3603 89.29505085209566
74.4274 89.25425396592873
75.5099 89.19143889006064
76.6083 89.09998994194513
77.7226 88.99379445895826
78.8531 88.90921079712501
80.0 88.87512266039013
81.1636 88.8822752416379
82.3442 88.90965338128896
83.5419 88.94256812837638
84.757 88.97796474534526
85.9899 89.01346941851578
87.2406 89.04859734415653
88.5096 89.0829334145739
89.797 89.11891525754109
91.1031 89.16449255905077
92.4282 89.22370014690524
93.7726 89.28198931189506
95.1366 89.32717071693146
96.5204 89.3711619939422
97.9243 89.42175799658318
99.3486 89.47247836748055
100.794 89.51807700452153
102.26 89.53031903857635
103.747 89.4706265413861
105.256 89.34775072901714
106.787 89.22624283263333
108.34 89.16475813939466
109.916 89.16324139368375
111.515 89.17957930903046
113.137 89.18695254119578
114.783 89.18638599013282
116.452 89.19813660163584
118.146 89.22856775691793
119.865 89.26736008316527
121.608 89.31458608159133
123.377 89.37348111690414
125.171 89.44187551521215
126.992 89.49992827008946
128.839 89.53044166981692
130.713 89.49947940515167
132.615 89.37806337441715
134.543 89.21303883209235
136.5 89.1178514143091
138.486 89.11538719656609
140.5 89.13109108803462
142.544 89.13443125576492
144.617 89.16514478931332
146.721 89.22758879524679
148.855 89.28918369466419
151.02 89.33751050364599
153.217 89.37814479550083
155.445 89.41733217302298
157.706 89.43371403520545
160.0 89.40162327116296
162.327 89.35948185782829
164.688 89.38732070698764
167.084 89.49096349080155
169.514 89.59750732142153
171.98 89.62409467772876
174.481 89.54694796040063
177.019 89.45382497535003
179.594 89.4263195328664
182.206 89.41978959327743
184.856 89.39068594414582
187.545 89.38783735825669
190.273 89.4220165478923
193.041 89.47411876074536
195.849 89.53167117038606
198.697 89.59695691307056
201.587 89.68791382555025
204.52 89.76337568070244
207.494 89.70648830958409
210.512 89.55351046317676
213.574 89.47943945868127
216.681 89.53129232867292
219.833 89.59989649006361
223.03 89.57335408063756
226.274 89.46258961273564
229.565 89.35963760109651
232.905 89.25929937089799
236.292 89.17375721532905
239.729 89.13350310758979
243.216 89.05411028282826
246.754 88.90251535501112
250.343 88.8120654790262
253.984 88.84748114978105
257.678 88.91380764972618
261.426 88.9069429242682
265.229 88.80907759265382
269.087 88.70256943203006
273.001 88.64879667352561
276.972 88.6828698732305
281.0 88.79811977764547
285.088 88.87097579848935
289.234 88.8548094874281
293.441 88.8288719245679
297.709 88.77350229380774
302.04 88.61547920196377
306.433 88.37163079469978
310.89 88.17225506514366
315.412 88.14618812959985
320.0 88.2334213407687
324.655 88.31552238596686
329.377 88.39356710995924
334.168 88.49423039939838
339.028 88.55320910661106
343.959 88.52834148640378
348.962 88.47181686665901
354.038 88.42935341172874
359.188 88.40592674930461
364.412 88.35042995632585
369.713 88.20465846565865
375.09 88.04989001889143
380.546 87.98546081353648
386.081 87.99652392684096
391.697 88.06970658374964
397.394 88.22303141200986
403.175 88.23907048706496
409.039 88.25556607724518
414.989 88.2347953659062
421.025 88.19657526474359
427.149 88.16521990070785
433.362 88.12066811118359
439.665 88.077190246994
446.06 88.06869720027672
452.548 88.08794425904433
459.131 88.08856524035946
465.809 88.0736489891301
472.584 88.06589545063416
479.458 88.0554954924627
486.432 88.03785905068753
493.507 88.01940222846447
500.686 87.99977397544498
507.968 87.98218121179768
515.357 87.95957505885927
522.853 87.93564834515553
530.458 87.91523373880325
538.174 87.89506997036582
546.002 87.87262721719507
553.943 87.84783087175096
562.001 87.82015897990875
570.175 87.79099606973136
578.469 87.7619243680173
586.883 87.73399465010569
595.419 87.70608130297674
604.08 87.67958065238379
612.866 87.6537625591793
621.78 87.62910215026538
630.824 87.60522072164477
640.0 87.58233695160938
649.309 87.56037458831433
658.753 87.5394432558213
668.335 87.51946981592212
678.056 87.49979274679194
687.919 87.48058733401184
697.925 87.46246233291102
708.077 87.44452668767536
718.376 87.4273062576188
728.825 87.41036720354823
739.426 87.39374637252882
750.181 87.37753340121502
761.093 87.36131126678855
772.163 87.34521208977263
783.394 87.32864043321402
794.789 87.31184706846031
806.349 87.29442638935788
818.078 87.27580227863074
829.977 87.25497619056696
842.05 87.23266782841391
854.298 87.20818652848465
866.724 87.18104171819733
879.33 87.15174405144059
892.12 87.11948882604669
905.097 87.0854085176985
918.262 87.04882170369335
931.618 87.01019603676323
945.169 86.9705748989533
958.917 86.92952585760607
972.864 86.88550093583561
987.015 86.82229305010917
1001.37 86.75870471365464
1015.94 86.69446587168802
1030.71 86.63368259792799
1045.71 86.6110644908295
1060.92 86.58702785912712
1076.35 86.56295162981579
1092.0 86.54092598075992
1107.89 86.54415009452259
1124.0 86.54576051359072
1140.35 86.5459931527176
1156.94 86.54275584721084
1173.77 86.51656115052397
1190.84 86.48835503380984
1208.16 86.45730432787575
1225.73 86.42534539587042
1243.56 86.40016166208629
1261.65 86.3771906981785
1280.0 86.36220630202187
1298.62 86.35299508990529
1317.51 86.32329832394184
1336.67 86.30163012472075
1356.11 86.28256654024092
1375.84 86.26208817908524
1395.85 86.23431929008314
1416.15 86.20633258175236
1436.75 86.18059423869657
1457.65 86.15924063638828
1478.85 86.14573136509608
1500.36 86.13276048123491
1522.19 86.12143498627661
1544.33 86.11131851349738
1566.79 86.10433070740082
1589.58 86.09470601094547
1612.7 86.08343655398936
1636.16 86.07186247123099
1659.95 86.06297834310048
1684.1 86.05338292178591
1708.6 86.04788414027631
1733.45 86.05359319869999
1758.66 86.07019841172277
1784.24 86.08606547922402
1810.19 86.10217243916419
1836.52 86.11049631444276
1863.24 86.09847411503979
1890.34 86.08079955738313
1917.83 86.05155004780238
1945.73 86.01712582041246
1974.03 85.97571296763947
2002.74 85.93780002973777
2031.87 85.91578243247521
2061.43 85.91471344708654
2091.41 85.93345818128877
2121.83 85.96260913170661
2152.69 85.99324943334432
2184.01 86.01696672762887
2215.77 86.0275532909743
2248.0 86.0214049290683
2280.7 86.00145192051693
2313.87 85.97676255084737
2347.53 85.95492380116322
2381.68 85.93315998370858
2416.32 85.91002396100893
2451.46 85.883482145198
2487.12 85.85558705744775
2523.3 85.82372223590377
2560.0 85.7989802974097
2597.24 85.79402401985986
2635.01 85.81376906067295
2673.34 85.86199070028935
2712.23 85.91263642417888
2751.68 85.94111124413192
2791.7 85.94006662969612
2832.31 85.92603359123075
2873.5 85.92921186273352
2915.3 85.97438012857616
2957.7 86.0487427757589
3000.72 86.10993388603323
3044.37 86.11838115400242
3088.65 86.06312065571004
3133.58 85.98093710733664
3179.16 85.94154960117363
3225.4 85.98103239710258
3272.31 86.06310403384727
3319.91 86.11700680364619
3368.2 86.09617011147537
3417.19 86.02290099491289
3466.89 85.95903622941715
3517.32 85.9444141315134
3568.48 85.96541349195753
3620.39 85.95307198562647
3673.05 85.86905153239776
3726.47 85.77034093804609
3780.67 85.77995518911807
3835.67 85.93244097930854
3891.46 86.11303210822679
3948.06 86.17585789194166
4005.49 86.10545661034062
4063.75 86.03475623078029
4122.86 86.03696790977787
4182.82 86.01988105755925
4243.66 85.89188618615292
4305.39 85.75862997025159
4368.01 85.79179331887752
4431.55 85.9610370028983
4496.01 86.06748102516632
4561.4 86.03065359194115
4627.75 85.95722770353221
4695.06 85.93414060374982
4763.35 85.88796389572991
4832.64 85.76351845560873
4902.93 85.64381474951337
4974.24 85.59631401495311
5046.6 85.5607661036733
5120.0 85.51105819313196
5194.47 85.48992482013773
5270.03 85.45435750026259
5346.68 85.32544212700326
5424.45 85.20028729817327
5503.35 85.20248189829793
5583.4 85.22115149109628
5664.61 85.16541380122796
5747.01 85.18623509895765
5830.6 85.30597258678677
5915.41 85.347890840577
6001.45 85.34785369581634
6088.74 85.42256850382144
6177.3 85.41721793634383
6267.15 85.21861360263304
6358.31 85.04021702536613
6450.8 85.03967725080004
6544.62 85.01035295847605
6639.82 84.90590889585089
6736.4 84.8563323631487
6834.38 84.68211509367931
6933.79 84.47196255672219
7034.64 84.52935239816881
7136.96 84.63239322907073
7240.77 84.74839671794793
7346.09 84.91666240954667
7452.94 84.9466451322861
7561.35 84.94276249659657
7671.33 84.96865429772832
7782.91 84.96517548116529
7896.12 84.9121461053563
8010.97 84.76564972624068
8127.49 84.63395295572452
8245.71 84.50322483778957
8365.65 84.40120582283255
8487.33 84.48658155844326
8610.78 84.51942797779469
8736.03 84.66906655642977
8863.09 84.62878888432707
8992.01 84.5233302353786
9122.8 84.54174412959591
9255.5 84.54400514949684
9390.12 84.67826647141563
9526.7 84.54824703154652
9665.27 84.41320935168893
9805.86 84.31946471836186
9948.49 84.29901633784638
10093.2 84.43483472277606
10240.0 84.33744816622935
10388.9 84.43307994205735
10540.1 84.37157519439788
10693.4 84.4907517966013
10848.9 84.27933723338687
11006.7 84.34017139679217
11166.8 84.23323312773799
11329.2 84.32035526260259
11494.0 84.18808381269601
11661.2 84.26011096472786
11830.8 84.32589359726856
12002.9 84.40620883628016
12177.5 84.34277398414254
12354.6 84.2870886689636
12534.3 84.37329889728503
12716.6 84.30969914139561
12901.6 84.12636286990063
13089.2 84.06607485294246
13279.6 84.270832634934
13472.8 84.27387764891525
13668.8 84.22065201663153
13867.6 84.31003654978613
14069.3 84.28518539263936
14273.9 84.19137584439697
14481.5 84.26320374768511
14692.2 84.41706006516661
14905.9 84.40691708409804
15122.7 84.51141571101941
15342.7 84.64266217827969
15565.8 84.52904004874053
15792.2 84.61523413292711
16021.9 84.70398959248696
16255.0 84.53662113086504
16491.4 84.6926925853512
16731.3 84.81896863627092
16974.7 84.65713122850077
17221.6 84.69132011115167
17472.1 84.72790433450996
17726.2 84.43321207791816
17984.0 84.26024785815086
18245.6 83.90395861653084
18511.0 83.38083197073624
18780.2 82.95024198794847
19053.4 82.1490252662759
19330.5 81.3034274187665
19611.7 80.74756318194197
19897.0 80.12629886431185
