Freq "Estimated In-Room Response"
22.4 27.813202695685163
23.0 29.444623097746614
23.6 30.742405658414384
24.0 31.823540720138226
25.0 32.761906073722486
25.8 33.596247992828836
26.5 34.36648954184662
27.2 35.33488026323562
28.0 36.238869451895596
29.0 37.03282729754599
30.0 38.26518759154348
30.7 40.23413808103854
31.5 41.670943875072425
32.5 43.2034946119218
33.5 46.21928472902323
34.5 48.26526029961485
35.5 49.93213320951435
36.5 52.22085520122667
37.5 53.9485581569632
38.7 55.61301360935914
40.0 57.68776006136784
41.2 59.24272277804852
42.5 61.05078344965736
43.7 62.66645669152817
45.0 63.74807024197381
46.2 64.30832266868325
47.5 64.89170479416912
48.7 66.03202727586077
50.0 67.05944416367042
51.5 68.11983469290335
53.0 69.13705773137775
54.5 70.59665265174246
56.0 71.869544781402
58.0 72.9532388050208
60.0 74.00657738812149
61.5 75.19415246114775
63.0 76.50663074779916
65.0 77.84787019013227
67.0 79.28777778601864
69.0 80.67994367118405
71.0 82.00336019990075
73.0 83.2782944905091
75.0 84.63558366569426
77.5 85.72812554836321
80.0 86.07133428767023
82.5 86.57687795481655
85.0 87.0118411065107
87.5 87.25078860544753
90.0 87.3127260511418
92.5 87.20881272696033
95.0 86.9690353881676
97.5 86.66139473247999
100.0 86.35720488994528
103.0 86.07559989909129
106.0 85.87631209485292
109.0 85.71155676546672
112.0 85.58334676837723
115.0 85.42924062203372
118.0 85.22959938600759
122.0 84.9921427769697
125.0 84.58481907113895
128.0 84.21474443008857
132.0 83.97369819719162
136.0 83.64497998068137
140.0 83.37430980586565
145.0 83.24198906615706
150.0 83.21888049485248
155.0 83.31388848717447
160.0 83.50930413602767
165.0 83.79225078472584
170.0 83.99981604342875
175.0 84.11990114244783
180.0 84.19191283013768
185.0 84.14200306805472
190.0 83.97346705730915
195.0 83.81944966107402
200.0 83.71098229799162
206.0 83.62019741986667
212.0 83.53598490729712
218.0 83.3680443984368
224.0 83.05566932105667
230.0 82.77332110205387
236.0 82.66558345432742
240.0 82.59292785178124
250.0 82.47883644536603
258.0 82.41068303880704
265.0 82.43396283595045
272.0 82.5518580684126
280.0 82.71687905571497
290.0 82.84021647729067
300.0 82.9221288536613
307.0 82.91183870528482
315.0 82.73039201799546
325.0 82.1090795073322
335.0 81.4183728974739
345.0 80.9898782549873
355.0 80.8177067680725
365.0 81.16300965917787
375.0 81.69302671548965
387.0 82.0779890941758
400.0 82.2575978729146
412.0 82.32241265533658
425.0 82.14200245875152
437.0 81.90183040584401
450.0 81.82256082196042
462.0 81.91637482958117
475.0 81.97174037841931
487.0 81.863159081837
500.0 81.55126146295825
515.0 81.20108967405953
530.0 81.20245403658231
545.0 81.38548742455808
560.0 81.62440890597462
580.0 81.64030883687009
600.0 81.28727217318041
615.0 80.7807518887495
630.0 80.4061159741176
650.0 80.49026420576168
670.0 80.92949412931497
690.0 81.48816856839427
710.0 81.72014861523098
730.0 81.55275121826391
750.0 81.22616874612471
775.0 80.87786839073354
800.0 80.55220391601604
825.0 80.41328911569451
850.0 80.26349474385168
875.0 80.25958901832891
900.0 80.22243219392809
925.0 80.27597363338137
950.0 80.1607373896643
975.0 79.71973019630472
1000.0 79.34268710027374
1030.0 78.94529146069524
1060.0 78.6911107961819
1090.0 78.73912391579293
1120.0 78.92413825242126
1150.0 78.77532864997397
1180.0 78.31597597332689
1220.0 78.2241352343697
1250.0 78.24522336851763
1280.0 78.39663733479914
1320.0 78.51164516070875
1360.0 78.21992249002798
1400.0 78.08282303610687
1450.0 77.79821680263507
1500.0 77.49598404591697
1550.0 77.13132103029253
1600.0 76.9020624595869
1650.0 77.3096764799602
1700.0 78.2731851250423
1750.0 78.95731786656255
1800.0 79.27550004757495
1850.0 79.51101715982934
1900.0 79.38086143843672
1950.0 79.4998420324302
2000.0 79.2399118636004
2060.0 79.2970420322269
2120.0 79.71887783740489
2180.0 80.62523924695972
2240.0 80.61595973575456
2300.0 80.21723539384351
2360.0 80.06431391866981
2400.0 79.25193346549364
2500.0 78.96811109141206
2580.0 79.47611412439656
2650.0 79.49258757994684
2720.0 78.82622490676701
2800.0 78.66520830252138
2900.0 78.42238750440103
3000.0 77.57091166066246
3070.0 77.30051638921844
3150.0 77.67939305829769
3250.0 76.73766876997702
3350.0 77.79240920156747
3450.0 78.13454382045475
3550.0 77.9540555081422
3650.0 78.83911975014533
3750.0 77.35216099904272
3870.0 78.7414862365882
4000.0 78.29789583131057
4120.0 79.2234258040333
4250.0 79.21027841731768
4370.0 79.56245704385086
4500.0 79.52675582301045
4620.0 79.97544755333561
4750.0 80.19316459960925
4870.0 79.35069669474066
5000.0 79.03700134582634
5150.0 78.60425323220728
5300.0 78.14384294239346
5450.0 79.00285433688515
5600.0 79.89238347580599
5800.0 79.99251876504653
6000.0 80.53552131999307
6150.0 80.71608962109205
6300.0 81.06087901974608
6500.0 80.57230695056394
6700.0 80.266699043432
6900.0 79.7133786962167
7100.0 79.29051475063882
7300.0 79.61722905794977
7500.0 80.7530634418183
7750.0 80.93908770925756
8000.0 81.41373594178158
8250.0 81.08352610341524
8500.0 80.75288509306341
8750.0 79.18065067647144
9000.0 78.57336800384824
9250.0 78.86417376315488
9500.0 79.68214706171834
9750.0 81.01753585123011
10000.0 81.17538692998251
10300.0 80.98125000222129
10600.0 80.60876947920426
10900.0 79.71445079494926
11200.0 80.13527185423908
11500.0 81.20025572630861
11800.0 81.30247440999972
12200.0 80.97855465945153
12500.0 80.49231968643637
12800.0 80.31942148431607
13200.0 82.83474051336927
13600.0 83.72226120499802
14000.0 81.2754750790279
14500.0 79.360886470218
15000.0 78.81535559719515
15500.0 79.73223591315389
16000.0 76.71893043525354
16500.0 74.95900549678612
17000.0 75.29081088743585
17500.0 75.48798949395105
18000.0 67.34834481043637
18500.0 59.61112406131372
19000.0 58.60348591094865
19500.0 56.98777472735884
