Freq "Total Early Reflection"
20.5078 42.95350890268928
21.9727 38.31483399316819
23.4375 39.326642636303134
24.9023 43.460226629486314
26.3672 47.32840148161297
27.832 50.97881222806531
29.2969 54.09611802421135
30.7617 55.68058398105261
32.2266 58.97287832998806
33.6914 61.41563391550464
35.1562 63.82949295550513
36.6211 66.07822592059217
38.0859 68.24758154948604
39.5508 70.26970737369273
41.0156 72.26012430742068
42.4805 73.83962012794167
43.9453 75.51046890240927
45.4102 77.09535870171034
46.875 78.50724005350666
48.3398 79.66539681120926
51.2695 81.4487023697913
52.7344 82.13145296587976
54.1992 82.6796694186831
55.6641 83.12026073822507
58.5938 83.69143748551186
60.0586 83.87951440515666
62.9883 84.20912110452652
64.4531 84.3233320788254
67.3828 84.49929733902968
68.8477 84.5898059273972
71.7773 84.7718338903352
74.707 84.91501368235883
77.6367 84.98673497771512
79.1016 85.00806323864622
82.0312 85.04637220400029
84.9609 85.07587236803614
87.8906 85.11507721435522
90.8203 85.08681706191119
95.2148 85.05172553016801
98.1445 85.00164691361344
101.074 84.94305884740201
105.469 84.89675353911427
108.398 84.8997825372948
112.793 84.82925676419107
117.188 84.77154872609526
120.117 84.71440719770133
124.512 84.62718934159619
128.906 84.53591458274433
133.301 84.43647744352285
139.16 84.30249114058306
143.555 84.21034174823916
147.949 84.13116225621886
153.809 84.08066747845027
159.668 84.01505685827964
165.527 84.15024316443875
171.387 84.10226946553793
177.246 83.9961805261497
183.105 83.9103535205823
188.965 83.8773875993454
196.289 83.8930534097333
203.613 83.82523491401294
210.938 83.92602050756766
218.262 83.84545449719131
225.586 83.8418136217964
232.91 83.83254919550227
241.699 83.80126192398507
250.488 83.66814580979067
259.277 83.93909999010057
268.066 83.8440918695094
276.855 83.78004380303786
287.109 83.83972118923485
297.363 83.83896611975175
307.617 83.99073100088421
319.336 83.85326026797415
329.59 83.71460231359693
341.309 83.78843608475293
353.027 83.69497806881883
366.211 83.71722299735303
379.395 84.05936173449687
392.578 84.02260148364894
405.762 83.89026323923129
420.41 84.0662432067834
435.059 83.73774848724149
451.172 84.13844032541869
465.82 84.02516193654272
483.398 83.96174577325289
499.512 83.72452742156959
517.09 84.25550947849018
536.133 83.41579382102289
555.176 83.81427429711763
574.219 84.5692590955739
594.727 84.18349237716797
615.234 84.080001207112
637.207 84.17905507050676
659.18 83.54894219496538
682.617 83.3268194532656
707.52 83.37635931027579
732.422 83.13511601380078
757.324 83.14137207116858
785.156 83.46027623051006
811.523 82.60790372991201
840.82 82.50821806252148
870.117 82.80896478108177
900.879 82.36602101771871
933.105 82.61588875656285
965.332 82.44480392413716
1000.49 82.63876555015783
1035.64 82.02462995354266
1072.27 81.76756621389805
1108.89 80.72685819783929
1148.44 81.23359710157337
1189.45 81.30035725119144
1230.47 81.48791921103063
1274.41 81.96803033834067
1319.82 82.07489946674598
1366.7 83.19887416928616
1413.57 83.42935436488764
1463.38 83.60778797149513
1516.11 83.5905861906535
1568.85 82.57060760094357
1624.51 82.70953304667036
1681.64 83.42240883167928
1741.7 84.13749812963472
1803.22 84.28344951589176
1866.21 84.3183557166722
1932.13 83.94834875060602
1999.51 83.54162498930914
2069.82 83.25236009495526
2143.07 83.00908508368393
2219.24 82.5779641806026
2296.88 81.65642748878733
2378.91 80.84519289657686
2462.4 80.92986686277442
2548.83 81.57834910537885
2639.65 81.22930118578692
2731.93 80.095343437978
2828.61 79.63592781871354
2928.22 80.12135445348747
3030.76 80.4994410775325
3137.7 80.64868269146571
3249.02 80.5877972038457
3363.28 80.59884451609337
3481.93 81.18563116941458
3604.98 81.43705162927134
3732.42 81.4336743889823
3864.26 81.50990782465011
4000.49 80.88550176470078
4141.11 81.06654756280827
4287.6 81.18356893468622
4438.48 81.13989987789097
4595.21 80.82537736744628
4756.35 80.5849029478371
4924.8 81.08889416594981
5097.66 80.79251032611558
5277.83 80.52328938547299
5463.87 80.83257293628601
5657.23 80.56576055058657
5856.45 80.5228819432346
6062.99 80.87819648037765
6276.86 80.86197963361529
6498.05 80.67396478394515
6726.56 80.75994964440704
6963.87 80.40650747815369
7209.96 80.6644679648628
7464.84 80.78863922311456
7727.05 80.87566497352286
7999.51 81.20800511561741
8282.23 80.58656410757241
8573.73 80.5262399581034
8876.95 80.57195493163098
9188.96 80.95082105689234
9514.16 80.58618707347274
9849.61 80.55145403146444
10196.8 80.54023309911297
10555.7 80.64169478014635
10927.7 80.75179480739219
11313.0 80.36108648136107
11712.9 80.1790239480598
12126.0 80.11826785033843
12553.7 80.31248141873807
12996.1 80.09681440190879
13454.6 79.47908435421017
13929.2 79.6766682724296
14419.9 79.37990433878748
14928.2 79.4343684203241
15455.6 79.23716375562601
16000.5 79.21729356749418
16564.5 79.15774361915874
17148.9 79.13657281593676
17752.4 79.05045047714442
18379.4 79.0134529667689
19026.9 79.50659744285664
19697.8 79.0149188937575
19999.5 78.28982589402528
