Freq,Floor Bounce,Ceiling Bounce,Front Wall Bounce,Side Wall Bounce,Rear Wall Bounce,Total Early Reflection
22.4,-0.3463360158992401,3.065317186371246,10.391957503120707,6.412878987423724,8.603410152844404,7.079364611423401
23.0,1.9261192625265977,5.677808957207745,12.276478983985626,8.434739123911712,10.393581573681203,9.038249064688856
23.6,4.368821435148547,8.130319734232543,14.107038698522913,10.79875196096772,12.214382808112546,11.048424884307266
24.0,8.845510192085797,11.059045306133456,16.81882348049966,14.534799254446867,15.34616698885533,14.188157987737966
25.0,13.59430925610404,14.08796868418942,19.555393288905535,18.401249948119087,18.61277031954525,17.491805129135614
25.8,18.7326899561031,17.49348099807183,22.33595435642978,22.42869780178212,22.105996867279558,21.06812387600452
26.5,25.79272955006296,22.852037917132876,24.361770241670925,25.830965216267728,25.027688064680504,24.903983369588857
27.2,30.670544308948294,27.939774068957675,22.201723663866844,23.621857436531357,22.82509872420046,26.770850194114686
28.0,33.33113467688885,31.274765955973848,23.21920751525569,24.143326619746986,23.58168644456758,29.234602940917355
29.0,35.8837546653577,34.49008308002452,26.24172115711896,26.47842452546398,26.37798206754165,32.03443710875608
30.0,36.78206819773611,35.74545788900171,36.61101061575032,36.000161534954444,36.51411893946427,36.34801827424725
30.7,35.46226370149556,33.88034753609456,36.5066895499604,36.5627362789556,36.09980110350362,35.807022187270505
31.5,35.01916705502755,32.34744450743126,36.98948588011642,37.778055483248025,36.500003143767444,36.09700699139144
32.5,35.090752786535305,30.666325977582048,38.683432319923654,40.235369660228926,38.625766974892244,37.726756786825305
33.5,38.34044167945491,35.79073156635842,40.4824622577987,41.758646213534504,40.32397644376228,39.782674885643175
34.5,41.67244826645843,40.36443680503088,42.16048390888521,42.95829240651618,41.76612267549619,41.86382094241661
35.5,44.63999927958743,43.93925752533572,43.92942055783662,44.400533487480445,43.5422315172202,44.107527317579766
36.5,47.63788730291391,47.09445716736839,46.51818538518209,47.224114778134876,47.22051408768611,47.15379690432651
37.5,50.279777457905695,49.86016582013404,49.3494514210477,50.5815323407259,50.64706684845966,50.17007231280799
38.7,52.90123572626642,52.27283899448726,51.47634083334775,52.607679703696775,52.41253504704416,52.35965759505878
40.0,55.616590626927845,54.07872996753791,52.663804501444204,52.8982356327859,52.180772815848016,53.67372908918857
41.2,58.016559993176074,55.75237800738081,54.31423269875445,54.197429159370344,52.892094254947025,55.40817078122929
42.5,60.92526453928848,58.93858119222401,56.84020862598159,56.650320485707155,54.69838109842671,58.14397893056152
43.7,64.02402487026022,62.90943953665227,59.56430076054649,59.769485860879556,57.22026927382531,61.373554606834645
45.0,65.74898514879551,65.34087709308416,62.26671157155876,62.780740592736834,60.310492940301415,63.741761748328344
46.2,65.73696012594368,65.73964531976003,65.42716862552784,65.28193752750427,63.863237106027626,65.26185528682849
47.5,66.84915203998831,67.2079926521559,68.17075447535485,67.68465721911477,66.87599209752156,67.38773764256982
48.7,70.43452415393479,70.48318629029515,71.25010799407619,71.65372522104568,70.80165300833863,70.95003343030578
50.0,73.51498382011471,73.36301553270808,75.45366035839308,76.6635554206568,75.8936396646604,75.17173911016737
51.5,74.59066301838193,73.97695775614916,75.47656618727495,75.45002215309772,73.24495281587366,74.63117533751257
53.0,75.88239860760774,74.90076749445562,76.91570978574721,76.16180511950988,73.56672598379406,75.63164616357881
54.5,78.04283030471973,77.03752777300026,78.17582128881156,76.94585602491468,74.45749115037553,77.11612147086598
56.0,79.44136150423587,78.51592538879983,79.38595921037158,78.03881782498915,75.70204558584314,78.40899834259862
58.0,79.87150800786937,79.15260953202217,80.18226773519505,78.7493761535488,76.67970899786502,79.08676613430653
60.0,80.33663575667187,79.68219967332304,80.83291949702605,79.42998680381962,77.49778825359438,79.69462410725062
61.5,80.64044167945491,79.85260953202219,81.26297554031403,79.96382975034432,78.18926681989956,80.09774330862703
63.0,80.90690501035459,80.15768127821951,81.39721808575295,80.08987210964229,78.47855079566231,80.31333210122021
65.0,81.07387961222818,80.4501707521257,81.38220164856847,80.05721446233252,78.65030191682335,80.42230349975574
67.0,81.1053180676647,80.57896989520115,81.47475685405688,80.19056758477787,78.98630663442476,80.5487881793133
69.0,81.17071732495408,80.67449351030439,81.5000301533754,80.25808065257111,79.26619129882131,80.64137942715755
71.0,81.30690501035458,80.67387961222816,81.42610657872319,80.28697732735806,79.54815166900138,80.70198061579298
73.0,81.30690501035458,80.83663575667187,81.53569816721813,80.46607031069698,80.07759319436977,80.87715316557728
75.0,81.37150800786937,80.96845083805432,81.56238331917763,80.72189378940057,80.54511103522988,81.05081764544485
77.5,81.40306957104252,81.03513059177983,81.56072303758586,80.90292916266657,80.85767560619247,81.16100977566386
80.0,81.50228461396019,81.13513059177983,81.50359507493896,80.96705105793001,81.0834042728731,81.24402959981788
82.5,81.46845083805432,81.20076749445563,81.45872300649022,81.01644612809328,81.24940628402604,81.28206633245208
85.0,81.30076749445563,81.06769521305294,81.31573126164822,80.91826101063751,81.21049102391191,81.16518719009392
87.5,80.96692185116049,80.70231994589774,81.10098675367587,80.65894421087351,81.01727404260487,80.89285120494078
90.0,80.63358982687997,80.40231994589774,80.82979499755903,80.37747385890104,80.79017605258544,80.61077355904848
92.5,80.30231994589775,80.10076749445561,80.57331815732424,80.11689967933846,80.69721906733628,80.36478395924895
95.0,80.2007674944556,79.93513059177984,80.18976100351553,79.7952220479464,80.26215767288268,80.08030641786083
97.5,79.9669218511605,79.70231994589774,79.97589847291083,79.51795591602162,79.80016867388399,79.7960338959684
100.0,79.66692185116051,79.30542400732661,79.76719910604187,79.36474138689907,79.34398242847696,79.49380701472857
103.0,79.46769521305295,79.14044167945491,79.68255356321758,79.1012393260069,78.73252238885107,79.23714198406203
106.0,79.67001488257476,79.23821129888744,79.65696672545711,79.11699191193277,78.37971186296197,79.23722976074667
109.0,79.80076749445563,79.43821129888742,79.77951528687093,79.02751648282096,78.12383285212367,79.27668492934167
112.0,79.86845083805433,79.53663575667186,80.02388664394823,79.2661437246928,77.9563052100891,79.38884802003871
115.0,80.27150800786937,79.77449351030438,80.25607123323265,79.34577280756268,77.85393462699518,79.58553744337087
118.0,80.57150800786937,80.00690501035459,80.58070542388849,79.63367675845068,78.06213587313358,79.86275451009361
122.0,80.73663575667187,80.2404416794549,80.90841382731995,79.86756220934886,78.32045602146762,80.10611180105222
125.0,81.06845083805433,80.60690501035458,81.26258805689959,80.23542357868702,78.75542813615199,80.47106132021823
128.0,81.13513059177983,80.67387961222816,81.37555996882539,80.32723629160779,79.0373430081532,80.58323592097145
132.0,80.83821129888742,80.30690501035458,81.11672971373021,79.95252797678346,78.97035037024351,80.29983065842964
136.0,80.30690501035458,79.70690501035459,80.50454428904085,79.09528061525569,78.21835434904288,79.64410124716564
140.0,79.74044167945492,79.07609175449223,79.85238992044323,78.36356442984359,77.34514897157128,78.97146471603382
145.0,79.11227178315619,78.37609175449222,79.32438611092999,77.68360596220859,76.54278903558496,78.32103230562463
150.0,78.84283030471973,78.11227178315617,78.99198667398296,77.31379444616785,75.94212100318813,77.97685411291046
155.0,78.57609175449221,77.81227178315618,78.80408318370522,76.95073776346005,75.4250018229004,77.67643737026744
160.0,78.40690501035459,77.61916705502752,78.69861300533977,76.73195471329515,75.12393224353319,77.4951395819907
165.0,78.34576719438469,77.5457671943847,78.74294005630868,76.71282529654823,75.01249762613999,77.46085596945993
170.0,78.4760917544922,77.71227178315618,78.86783987313588,76.94465125877764,75.11342220224513,77.61104285585917
175.0,78.67609175449222,77.81916705502753,79.0347026391703,77.35371119224003,75.56906133016928,77.84956828820319
180.0,79.01227178315618,78.18219967332304,79.36488829856293,77.73427689998178,76.05340865726944,78.21521408432223
185.0,79.21227178315618,78.2566725593005,79.66799377173861,77.92984898441921,76.43636776229924,78.439704804909
190.0,79.41916705502754,78.32758719283594,79.88170461979824,78.02982792834868,76.81561299083427,78.62607883151867
195.0,79.61916705502753,78.43752777300027,80.06945933481445,78.1051636961245,77.12079835277463,78.79869432304196
200.0,79.88982856673472,78.6096325668162,80.27231073442185,78.0015521910486,77.12831483421677,78.9355138189331
206.0,80.15260953202217,78.9096325668162,80.5051840652667,77.86295199771708,76.7823909318593,79.05811464089469
212.0,80.55260953202216,79.34314826109436,80.83165428386236,78.05616001661666,76.34818887740879,79.32158829801786
218.0,80.85260953202217,79.57662798253905,81.20482378834447,78.26438679977713,75.83175046016328,79.539814069625
224.0,81.05260953202217,79.6950645803583,81.57400515522947,78.58106485825864,75.40383494311958,79.74198796542368
230.0,81.42758719283592,80.02179738688895,81.9437370301208,78.84889001640104,75.50966720446867,80.07019790805174
236.0,81.66096514237182,80.16878033996791,82.27785412024795,78.99865641735725,75.70088532157195,80.30259690728083
240.0,81.96096514237182,80.40942248426019,82.55047646839195,79.29658853337122,75.82162991102798,80.56996056775014
250.0,82.38982856673472,80.93546263134682,82.80461722267233,79.70286652280863,75.97799682049528,80.94229609463424
258.0,82.65260953202217,81.38219812790055,82.95903988583969,79.97864751720893,76.07979320165461,81.20161374797907
265.0,82.7457671943847,81.6096325668162,82.95677009247105,80.13643415863561,75.98746532037616,81.29357076518569
272.0,82.6457671943847,81.59897445130925,82.84867335264067,79.9638121732759,75.70084023622712,81.18881009926396
280.0,82.38219967332304,81.36096514237182,82.53254966777952,79.66286869844603,75.47192269550764,80.91189781488916
290.0,81.98219967332305,80.89897445130924,82.08494176423848,79.11869407944458,75.22320822028856,80.4718352838205
300.0,81.38219967332304,80.26588846059687,81.41697363840636,78.24885842831755,74.42213127015545,79.79426555221006
307.0,80.48219967332305,79.39897445130926,80.59144658197057,77.43915328389426,73.62335109378354,78.94196505066228
315.0,79.41916705502754,78.23752777300028,79.61770018833995,76.56665298633096,73.08220042708592,77.94335956148824
325.0,78.28982856673471,77.06588846059687,78.72311650689375,75.89234780133731,72.89331638019148,77.00991151032473
335.0,77.29897445130925,76.02758719283592,78.07862776638474,75.58734433564702,72.89766509814929,76.3082130047488
345.0,76.93752777300028,75.47662798253906,78.07959632447567,75.88581622470004,73.04667753486426,76.1888977448028
355.0,77.22179738688895,75.46194867563764,78.65463407106768,76.63738882944187,73.2535784954849,76.59980179045972
365.0,77.89506458035831,75.91792789764851,79.27963751009699,77.23391337427478,73.23203088549421,77.1484988717637
375.0,78.5950645803583,76.50982855556755,79.94195462928586,77.74671918411434,73.4306363714461,77.74308093624158
387.0,79.12869245367796,76.98538710465897,80.4862539082125,77.9583469583364,73.55924016818066,78.17971891857881
400.0,79.56878033996792,77.24915203998829,80.81616611618803,77.76310927913822,73.41944419952578,78.40134696713511
412.0,79.64293979360191,77.1809849055068,80.88656114712104,77.43893546129958,73.16083477381996,78.36526519147122
425.0,79.42869245367795,77.08098490550678,80.58843128747219,76.95209296313017,72.27072421068058,78.05749442427341
437.0,79.04314826109434,77.0377673428554,80.00955262316359,76.70254319268399,71.01048506684204,77.64061313461441
450.0,78.57082970284297,76.76726558859612,79.36725538070272,76.53929176020965,70.06470993349588,77.17884815747595
462.0,78.33257218046559,76.7094224842602,79.08339831438218,76.7650014828496,70.06201216992325,77.05158618041442
475.0,78.08982856673472,76.72179738688895,78.97664288719368,77.01180660370818,70.78323116929127,77.03569040062273
487.0,78.22758719283591,76.94314826109434,79.43188027406799,77.49853889799743,71.79632764637212,77.40415396157843
500.0,79.1950645803583,77.47662798253906,81.2666022998151,78.81644093818201,73.34104437517652,78.69941539961906
515.0,80.4377673428554,77.77757950460712,83.0639899187647,80.06148112263874,73.98278451646142,79.99551806699054
530.0,81.25906263657508,77.74171952330975,83.87589076791058,80.25704593561899,73.42909624774349,80.53322404151753
545.0,81.29179815677408,77.6791544667119,83.8062860237992,79.82637842500903,72.42477188925585,80.39043852922542
560.0,80.67106744273919,77.2765534603207,83.26965827425961,79.35386601548053,71.60813981098366,79.85057128140515
580.0,79.99448868932289,76.6903788404772,82.56270322730661,78.70043331154606,70.33157030703762,79.15810203147178
600.0,79.8377673428554,76.4412305303684,81.9327917793298,77.8696230132494,68.44223583303197,78.62933028453803
615.0,79.79448868932289,76.50807851055697,81.37078776077605,76.9411689152469,67.06070230381376,78.21866463038546
630.0,79.65177437534742,76.59727311966743,80.81518996772228,75.81274413633125,66.20731661452699,77.79494107296031
650.0,79.41832544184972,76.58343461029553,80.48964678844413,74.96556294810328,65.7859887433613,77.4833814171599
670.0,79.26136837622764,76.5033038382893,80.4286695681779,74.76457899228961,65.87265207603484,77.37600800850488
690.0,79.0586572401787,75.96268190818897,80.30134067214617,74.58985999843684,66.15987372557699,77.16122706322807
710.0,78.78888863538653,74.80146480937388,80.22003565756484,74.54920910695056,66.15556955028728,76.87888973218838
730.0,79.11664590330462,74.68795498774303,80.35885231540092,74.5451097077903,66.14262166833144,77.02829290807078
750.0,79.4493489016972,75.01798740949017,80.4830774667678,74.66688109961983,66.09679161103874,77.24226509187636
775.0,79.21664590330461,74.97915446671193,80.17793269463105,73.91283312172078,65.72429011736247,76.94614338481159
800.0,79.34577223479651,74.94885135917308,80.33344435981397,73.26202882420093,65.9714492286559,76.99658941721701
825.0,79.8269682029423,75.28405461574941,80.77621677656431,73.22598190091601,65.93107729189654,77.39352253132395
850.0,80.10807851055698,75.40137735040872,81.04629144541813,73.42921953495241,66.20259868986379,77.64389279217028
875.0,80.25800804769341,75.49124872640114,81.20064691718171,73.94093960863097,67.2441509183207,77.83127695318717
900.0,79.608078510557,74.85447715330636,80.6328030915094,73.96321575536793,67.21527968029274,77.28858500624105
925.0,79.42990957385143,75.41411392837597,79.9630503417735,74.37049096289796,66.64258361468735,77.05195207059192
950.0,79.9694198636673,76.16443680503089,79.54052992395451,75.7429056272254,67.61246103199322,77.38621033988692
975.0,79.3625132206552,75.03749164860504,79.78255747090921,75.65322363431699,67.51764287213386,77.0886778321648
1000.0,78.95865724017871,75.29561715933444,79.47866643115199,74.87086492253701,66.40637026796915,76.74469361298019
1030.0,78.27625435142636,73.23509895460995,79.10656170232676,74.44641681666477,64.60441709712352,76.02999876503394
1060.0,76.23509895460997,68.63878924093981,78.73260802390433,73.8850598265943,64.86897457851676,74.8160131138311
1090.0,75.07441527740416,65.79047451505686,78.45491159831313,74.51077081684936,65.13840804143896,74.3947400025977
1120.0,73.58806243365497,62.122009155636604,78.33321439319452,75.76486041739827,65.72809951482459,74.28313711999274
1150.0,73.56890305823626,63.40133481480338,78.12811722912012,76.02858243878245,65.6147921679135,74.26950898488975
1180.0,72.5011428197287,60.92213772834744,78.28207892374877,75.94740456954769,64.37796686953027,74.09681952147143
1220.0,71.17656479299826,56.572453064786444,78.33629290171488,75.35188920802908,63.37780098576313,73.73683376165569
1250.0,70.45802061785727,63.49897445130925,78.3702869921935,75.08121643816088,62.523055156059556,73.6574730296601
1280.0,71.55926274844731,66.297421986663,78.50931436699985,74.99930619611901,62.38655070021345,73.90509217987889
1320.0,72.21249723664475,67.90427244119464,78.47652631675979,74.74830476256868,63.110413151022485,73.9834802722089
1360.0,71.9817392866852,67.42619034370159,77.92102390620438,74.08174769878615,62.23785086505278,73.44549715706601
1400.0,72.02136425855366,66.49348099807185,77.8971741670607,73.8469575952263,62.06710664231561,73.33911748477148
1450.0,70.95967973007619,62.53079337118231,78.40793899253725,73.3500739151337,61.44834888887557,73.28774652412996
1500.0,71.30517981536646,64.4422920764254,78.79030029465143,73.03927698835109,60.86970291645697,73.55378859932809
1550.0,70.87067180400547,65.83149824232535,78.8834421796485,72.79706024762433,61.64318573987893,73.57478895758224
1600.0,70.29909306428188,65.88144357711528,79.05037099844857,72.37162508865325,62.141469797846,73.5735732704811
1650.0,70.33331023801675,65.88487166257997,79.25051897735875,72.62828010148489,62.93447893108711,73.76961673458554
1700.0,72.25445848526064,66.73126800066592,78.5721492778804,72.6521390912667,62.48969574408282,73.56743849335236
1750.0,72.9264355269503,65.97438373121513,78.11100077040322,72.52388101140035,61.717605257312115,73.33125894489875
1800.0,73.67406529517378,65.00851907584341,78.90896499938678,72.98819799414204,61.31078822217569,73.99698327522886
1850.0,72.95638621286747,65.81125159582659,78.61099092204249,72.58524956193737,61.096076072922955,73.64042561686496
1900.0,73.3874839261666,67.07296429705674,76.97065074344779,72.04697073639849,61.393989656460164,72.74584361056426
1950.0,70.8245267806297,65.27975315647446,77.63627123073904,72.40342004682972,60.142106453739416,72.64416277344493
2000.0,68.31191602473722,65.43674241995144,78.85810530906987,72.61070646537634,59.581430208731945,73.27586847296146
2060.0,68.02761355743556,65.8408883208691,79.25912587689085,71.31164003403161,58.18280324066009,73.37211971610792
2120.0,69.45033981283417,63.84831853380177,79.7691168636653,72.01295633695925,58.58791976683662,73.89797106068708
2180.0,69.87592469604787,62.50620197395408,79.52984296538693,72.20252328273226,58.61468133146552,73.75009236547186
2240.0,69.18320713130697,62.89431032499557,79.17202631672349,71.59723821350484,58.784623754460526,73.34760383566713
2300.0,70.07423383499108,65.95003022646091,79.2650228802703,72.15264571781769,59.451975733599426,73.64874826730481
2360.0,70.48451696627419,66.7520789100964,79.69082568977556,72.76520577493605,58.986064823992876,74.1073292753598
2400.0,71.92103083811888,67.94215093406942,80.66220166490288,73.56094844821594,60.35945475869468,75.1068161614888
2500.0,72.66497174328421,67.02890856608467,80.91788928397953,73.6955654979036,61.362885416840726,75.36150023766987
2580.0,71.50609330848388,64.73640403741099,81.2064780286463,73.7670292792375,60.52472800997933,75.41776486695662
2650.0,71.78868107059239,64.65038345044336,81.79357811203361,73.99094769987916,59.13018461572683,75.91134629794631
2720.0,72.04393793686573,63.86387662972085,82.30101440100086,74.14687378555081,59.09082686270203,76.33675462113692
2800.0,73.77392490209124,64.6296506062916,82.67978623022996,74.38551694552773,59.38138426010477,76.81983231356918
2900.0,74.49319068831494,65.29322634889184,82.12202549266058,73.46963688772709,58.44340574560191,76.38406313152515
3000.0,74.55919326257286,66.35392909993533,81.1832740378672,73.22692172792027,58.03604740993768,75.70234012296311
3070.0,72.19505744852124,66.8026382005589,80.47661866632092,73.30436566221154,58.59943238658188,74.91616782899881
3150.0,72.26163645138078,68.01208458068781,80.87603955697142,74.2719766439691,59.77865103939287,75.39584839686769
3250.0,72.72537960901012,65.74436264109765,81.13966109963529,74.17101329273578,58.948799266675096,75.54859809148118
3350.0,74.72457476005074,66.80699934057364,81.92257682328606,75.3516813438262,59.85457929117473,76.54021699479131
