Freq "Estimated In-Room Response"
22.4 31.583596639487354
23.0 33.0869242638027
23.6 34.506282912852754
24.0 35.63813490890658
25.0 37.03099222199219
25.8 38.47375727092907
26.5 40.00845663513448
27.2 42.122603325438035
28.0 43.657133839768846
29.0 45.12432335793957
30.0 46.574833096516784
30.7 47.84783192132838
31.5 49.1548332125484
32.5 50.6209507933476
33.5 52.33432718622666
34.5 54.178052833128646
35.5 55.54688992645609
36.5 56.860050368279474
37.5 57.910038249861785
38.7 59.019915226147575
40.0 60.418476860109934
41.2 61.53314420523253
42.5 62.43817683962621
43.7 63.207263997822864
45.0 63.763088693081116
46.2 64.46712655783261
47.5 64.9945632064088
48.7 65.39495887673695
50.0 65.71327639268105
51.5 65.9384524299002
53.0 66.21460804458573
54.5 66.46561659165349
56.0 66.73859551091432
58.0 67.10408707120092
60.0 67.41181801837112
61.5 67.78320536393315
63.0 68.1200549277911
65.0 68.41908470811889
67.0 68.62933622849931
69.0 68.82044643003786
71.0 68.91769178181036
73.0 68.9352580809944
75.0 68.97877735378572
77.5 68.99242784656835
80.0 69.03536561935115
82.5 69.13889018556455
85.0 69.2983814647286
87.5 69.50080216886242
90.0 69.73344701644577
92.5 69.9137075066305
95.0 70.08236315106825
97.5 70.24028141244901
100.0 70.37531901265757
103.0 70.49764185639397
106.0 70.58833606863432
109.0 70.69496092140717
112.0 70.82718488602958
115.0 70.95308364660879
118.0 71.09680658828708
122.0 71.23428220311547
125.0 71.4125910424481
128.0 71.55954033664584
132.0 71.71285433943801
136.0 71.8552680236686
140.0 71.96562348425667
145.0 72.01643371444351
150.0 71.96627939915197
155.0 71.84865774107018
160.0 71.64999706049662
165.0 71.38634164556323
170.0 71.10507229983227
175.0 70.84691308185876
180.0 70.66210534808343
185.0 70.51227376810684
190.0 70.48820067003008
195.0 70.52132292406937
200.0 70.58610705908434
206.0 70.6215508971064
212.0 70.60966726839717
218.0 70.51847097351013
224.0 70.41745097547178
230.0 70.29307916669825
236.0 70.13054407342958
240.0 69.99099024316112
250.0 69.93354489654857
258.0 69.93100544718452
265.0 69.9257705524821
272.0 69.92522327802
280.0 69.90989919996119
290.0 69.91070830407503
300.0 69.93139558198118
307.0 69.91433944562553
315.0 69.84829925796866
325.0 69.82586765141441
335.0 69.91905501990546
345.0 70.13039356727917
355.0 70.36684556930147
365.0 70.55638676487436
375.0 70.70102374569461
387.0 70.86789488886944
400.0 71.00206425984118
412.0 71.06840553223549
425.0 71.07164399696798
437.0 71.01180985898964
450.0 70.87848941327799
462.0 70.84928552733878
475.0 70.8827156203381
487.0 70.86480144473094
500.0 70.76054435347811
515.0 70.63165843856041
530.0 70.52656157399232
545.0 70.28948192419433
560.0 70.04749375063356
580.0 69.82654583856201
600.0 69.58136122186994
615.0 69.36782662337353
630.0 69.25351867137906
650.0 69.20121907608419
670.0 69.16325895176033
690.0 69.28902819725684
710.0 69.39019050872766
730.0 69.34076344751185
750.0 69.23983753180198
775.0 69.17550998146326
800.0 69.10866445891615
825.0 69.11207280869388
850.0 69.06183112801003
875.0 68.97708241878672
900.0 68.94492605448632
925.0 68.90268726177895
950.0 68.82738778816297
975.0 68.72743839707383
1000.0 68.7075563128879
1030.0 68.66252072711971
1060.0 68.6892219727383
1090.0 68.87082472506063
1120.0 69.03987847390229
1150.0 69.21842932762375
1180.0 69.3715844675672
1220.0 69.52298693044727
1250.0 69.54319106347023
1280.0 69.60035389675329
1320.0 69.55274426089092
1360.0 69.29852330656267
1400.0 69.02551593062435
1450.0 68.77024080860927
1500.0 68.50533980007442
1550.0 68.19365781130674
1600.0 67.92353577879118
1650.0 67.57692003073689
1700.0 67.28016295134557
1750.0 67.02597955660369
1800.0 66.81313350026952
1850.0 66.69753324794894
1900.0 66.74237095702293
1950.0 66.68765286522805
2000.0 66.69192589504048
2060.0 66.66016731511563
2120.0 66.63369269600551
2180.0 66.6045347588649
2240.0 66.5174906199149
2300.0 66.39649888136657
2360.0 66.1617582280629
2400.0 66.01603551119189
2500.0 65.91166167772663
2580.0 65.90654131715338
2650.0 65.9310421944612
2720.0 66.0334418786706
2800.0 66.0951642012433
2900.0 66.18968582735442
3000.0 66.20287149063168
3070.0 66.29452121311348
3150.0 66.36284236697671
3250.0 66.33549156804736
3350.0 66.30947020504486
3450.0 66.29366520903068
3550.0 66.27050705428562
3650.0 66.22799178679867
3750.0 66.2051154234199
3870.0 66.18110997221518
4000.0 66.16913316226488
4120.0 66.11843292886243
4250.0 66.02215482097091
4370.0 65.96972774199801
4500.0 65.86732375577073
4620.0 65.69449394571988
4750.0 65.38683750541048
4870.0 65.02832791400746
5000.0 64.75606855187685
5150.0 64.7290497540054
5300.0 64.87464922278171
5450.0 64.82896622864078
5600.0 64.78324197783925
5800.0 64.78353467421918
6000.0 64.89185425330277
6150.0 65.00374699402279
6300.0 65.04277589785715
6500.0 65.01451273041212
6700.0 64.8350910310674
6900.0 64.7817367497698
7100.0 64.7212196226304
7300.0 64.75830958868103
7500.0 64.76419873479357
7750.0 64.7558023046823
8000.0 64.67737651335744
8250.0 64.65525032421118
8500.0 64.64890602219856
8750.0 64.68088913838483
9000.0 64.88759227016286
9250.0 64.93305764987488
9500.0 64.95131065722691
9750.0 64.87954307750213
10000.0 64.71030185997347
10300.0 64.53308129247885
10600.0 64.30515263317629
10900.0 63.952930626645184
11200.0 63.55275281330805
11500.0 63.046250705420306
11800.0 62.36552272515121
12200.0 61.800344256591885
12500.0 61.69130095326412
12800.0 62.08689753137456
13200.0 62.69461624632861
13600.0 63.35501058537345
14000.0 63.90161405768748
14500.0 64.43501138166494
15000.0 64.85106294385542
15500.0 65.04806766559815
16000.0 65.09089993426656
16500.0 64.95080683702176
17000.0 64.66929340257582
17500.0 64.22228197443387
18000.0 63.716298380385695
18500.0 63.18588232092445
19000.0 62.68040793262762
19500.0 61.94707391199887
