Freq "Estimated In-Room Response"
22.4 31.73422955087976
23.0 33.23755717519511
23.6 34.65691582424516
24.0 35.788767820298986
25.0 37.1816251333846
25.8 38.62439018232148
26.5 40.159089546526886
27.2 42.27323623683044
28.0 43.80776675116125
29.0 45.27495626933198
30.0 46.72546600790919
30.7 47.998464832720785
31.5 49.3054661239408
32.5 50.77158370474001
33.5 52.484960097619066
34.5 54.32868574452105
35.5 55.697522837848496
36.5 57.01068327967188
37.5 58.06067116125419
38.7 59.17054813753998
40.0 60.56910977150234
41.2 61.68377711662494
42.5 62.588809751018616
43.7 63.35789690921527
45.0 63.91372160447352
46.2 64.61775946922502
47.5 65.1451961178012
48.7 65.54559178812936
50.0 65.86390930407346
51.5 66.0890853412926
53.0 66.36524095597814
54.5 66.61624950304589
56.0 66.88922842230673
58.0 67.25471998259333
60.0 67.56245092976353
61.5 67.93383827532556
63.0 68.27068783918351
65.0 68.5697176195113
67.0 68.77996913989172
69.0 68.97107934143027
71.0 69.06832469320277
73.0 69.08589099238681
75.0 69.12941026517812
77.5 69.14306075796075
80.0 69.18599853074356
82.5 69.28952309695696
85.0 69.44901437612101
87.5 69.65143508025483
90.0 69.88407992783817
92.5 70.06434041802291
95.0 70.23299606246066
97.5 70.39091432384141
100.0 70.52595192404998
103.0 70.64827476778638
106.0 70.73896898002673
109.0 70.84559383279958
112.0 70.97781779742199
115.0 71.1037165580012
118.0 71.24743949967949
122.0 71.38491511450788
125.0 71.5632239538405
128.0 71.71017324803825
132.0 71.86348725083042
136.0 72.005900935061
140.0 72.11625639564907
145.0 72.16706662583591
150.0 72.11691231054438
155.0 71.99929065246259
160.0 71.80062997188902
165.0 71.53697455695564
170.0 71.25570521122468
175.0 70.99754599325117
180.0 70.81273825947584
185.0 70.66290667949924
190.0 70.63883358142249
195.0 70.67195583546177
200.0 70.73673997047675
206.0 70.77218380849881
212.0 70.76030017978958
218.0 70.66910388490254
224.0 70.56808388686419
230.0 70.44371207809066
236.0 70.28117698482198
240.0 70.14162315455353
250.0 70.08417780794097
258.0 70.08163835857692
265.0 70.07640346387451
272.0 70.0758561894124
280.0 70.0605321113536
290.0 70.06134121546744
300.0 70.08202849337358
307.0 70.06497235701794
315.0 69.99893216936107
325.0 69.97650056280682
335.0 70.06968793129786
345.0 70.28102647867158
355.0 70.51747848069388
365.0 70.70701967626677
375.0 70.85165665708702
387.0 71.01852780026185
400.0 71.15269717123358
412.0 71.2190384436279
425.0 71.22227690836039
437.0 71.16244277038204
450.0 71.0291223246704
462.0 70.99991843873119
475.0 71.03334853173051
487.0 71.01543435612335
500.0 70.91117726487052
515.0 70.78229134995281
530.0 70.67719448538473
545.0 70.44011483558674
560.0 70.19812666202597
580.0 69.97717874995442
600.0 69.73199413326235
615.0 69.51845953476594
630.0 69.40415158277146
650.0 69.35185198747659
670.0 69.31389186315273
690.0 69.43966110864925
710.0 69.54082342012006
730.0 69.49139635890425
750.0 69.39047044319439
775.0 69.32614289285567
800.0 69.25929737030856
825.0 69.26270572008629
850.0 69.21246403940243
875.0 69.12771533017913
900.0 69.09555896587872
925.0 69.05332017317136
950.0 68.97802069955537
975.0 68.87807130846623
1000.0 68.85818922428031
1030.0 68.81315363851212
1060.0 68.8398548841307
1090.0 69.02145763645304
1120.0 69.1905113852947
1150.0 69.36906223901616
1180.0 69.52221737895961
1220.0 69.67361984183968
1250.0 69.69382397486264
1280.0 69.7509868081457
1320.0 69.70337717228333
1360.0 69.44915621795508
1400.0 69.17614884201676
1450.0 68.92087372000168
1500.0 68.65597271146683
1550.0 68.34429072269914
1600.0 68.07416869018358
1650.0 67.7275529421293
1700.0 67.43079586273798
1750.0 67.1766124679961
1800.0 66.96376641166192
1850.0 66.84816615934135
1900.0 66.89300386841533
1950.0 66.83828577662045
2000.0 66.84255880643289
2060.0 66.81080022650804
2120.0 66.78432560739792
2180.0 66.75516767025731
2240.0 66.6681235313073
2300.0 66.54713179275898
2360.0 66.3123911394553
2400.0 66.1666684225843
2500.0 66.06229458911903
2580.0 66.05717422854579
2650.0 66.0816751058536
2720.0 66.18407479006301
2800.0 66.24579711263571
2900.0 66.34031873874683
3000.0 66.35350440202409
3070.0 66.44515412450589
3150.0 66.51347527836911
3250.0 66.48612447943977
3350.0 66.46010311643727
3450.0 66.44429812042308
3550.0 66.42113996567802
3650.0 66.37862469819108
3750.0 66.3557483348123
3870.0 66.33174288360759
4000.0 66.31976607365729
4120.0 66.26906584025484
4250.0 66.17278773236332
4370.0 66.12036065339042
4500.0 66.01795666716313
4620.0 65.84512685711229
4750.0 65.53747041680289
4870.0 65.17896082539987
5000.0 64.90670146326926
5150.0 64.87968266539781
5300.0 65.02528213417412
5450.0 64.97959914003319
5600.0 64.93387488923166
5800.0 64.93416758561159
6000.0 65.04248716469517
6150.0 65.1543799054152
6300.0 65.19340880924956
6500.0 65.16514564180453
6700.0 64.98572394245981
6900.0 64.93236966116221
7100.0 64.8718525340228
7300.0 64.90894250007344
7500.0 64.91483164618597
7750.0 64.90643521607471
8000.0 64.82800942474985
8250.0 64.80588323560359
8500.0 64.79953893359097
8750.0 64.83152204977723
9000.0 65.03822518155526
9250.0 65.08369056126729
9500.0 65.10194356861932
9750.0 65.03017598889454
10000.0 64.86093477136588
10300.0 64.68371420387126
10600.0 64.4557855445687
10900.0 64.10356353803759
11200.0 63.70338572470045
11500.0 63.19688361681271
11800.0 62.516155636543616
12200.0 61.95097716798429
12500.0 61.841933864656525
12800.0 62.23753044276697
13200.0 62.845249157721014
13600.0 63.505643496765856
14000.0 64.05224696907989
14500.0 64.58564429305734
15000.0 65.00169585524783
15500.0 65.19870057699056
16000.0 65.24153284565897
16500.0 65.10143974841417
17000.0 64.81992631396822
17500.0 64.37291488582628
18000.0 63.8669312917781
18500.0 63.336515232316856
19000.0 62.83104084402002
19500.0 62.09770682339128
