Freq,Floor Bounce,Ceiling Bounce,Front Wall Bounce,Side Wall Bounce,Rear Wall Bounce,Total Early Reflection
20.5078,45.103538340142066,44.98933342646448,45.02771687926047,45.038097513071804,45.04339193949839,45.04057169476572
21.9727,44.57275555977934,44.3469986803196,44.49141937831057,44.38383192342893,44.066956395655765,44.37577550806351
23.4375,45.87233362525107,45.70694477992534,45.83885346613603,45.74737481195639,45.51086580373975,45.73712190919581
24.9023,47.19586719646732,47.03814247278858,47.16504358707179,47.07038595655139,46.81591167054562,47.05911572431138
26.3672,47.84944909138672,47.86420607530998,47.88897588773399,47.784615445115364,47.519457846767594,47.78342399373783
27.832,49.12195066608193,48.924691616069495,49.05873982777483,49.02710830927806,48.99235381739341,49.02546764041357
29.2969,49.43395788735377,49.32602569011404,49.43731232183633,49.31305903356399,49.012089316849725,49.30722580791023
30.7617,50.36595733699822,50.32638809384032,50.39795244568283,50.27556218680037,49.98146683979731,50.27200863061641
32.2266,51.3646239851674,51.328017060642466,51.39774189623252,51.2804756317115,51.00632099721766,51.27766563951364
33.6914,52.738829360221914,52.69716658671102,52.77293112650311,52.64606778806463,52.34264061051253,52.64223095254057
35.1562,53.763588857247,53.74010933835693,53.80958904449311,53.66850434897826,53.330937756812986,53.6658939757623
36.6211,54.952696422071156,54.96976181031407,55.017675056994264,54.870930785689595,54.5193216177734,54.86973134643959
38.0859,56.11903909861273,56.11546753248432,56.173760742131364,56.0308077958333,55.6858831968277,56.028481730142474
39.5508,57.174043442349316,57.14240615593796,57.21458602242929,57.07842187400891,56.75399202199854,57.0757916819835
41.0156,58.14050044359428,58.12654416458949,58.191606252281545,58.045286322944705,57.69613963547272,58.04361006212153
42.4805,59.17196962908231,59.15581644189059,59.223306181583126,59.07411664733722,58.71777182891529,59.07233650851664
43.9453,60.14364144862951,60.12093092098566,60.194851506842966,60.03811027689544,59.662359863749344,60.03612760461111
45.4102,61.117741194983964,61.083979907050136,61.1664533735309,61.00378070880345,60.61216718123352,61.00131894002877
46.875,62.09706976407347,62.05039431211469,62.14167054513048,61.97438886182459,61.56752374419811,61.97103986537299
48.3398,62.98076314437988,62.926099264185794,63.02175529544073,62.854469183753125,62.44195170717617,62.84994488807554
51.2695,64.68681947799739,64.63400497510618,64.71462518014364,64.58515153370773,64.28159625165263,64.58319708783908
52.7344,65.41412781096564,65.3730030210209,65.44751324469009,65.31512545329731,65.00557050078858,65.31393535948894
54.1992,66.23424862130717,66.19291706064247,66.26295224104477,66.14522969183776,65.88974318923184,66.14704999222832
55.6641,67.08339346934854,67.01829428520449,67.111287766192,66.97134479231366,66.66978786713686,66.9736656236239
58.5938,68.69162115741945,68.60491026505443,68.72351994243103,68.54546214642194,68.11241600850194,68.54108100227437
60.0586,69.33472518656724,69.25152300495782,69.35816239498514,69.20726589097852,68.84754988820912,69.20369609967418
62.9883,70.65555028262267,70.58592174003708,70.6788718769642,70.54398449774965,70.23903586901936,70.54351785197925
64.4531,71.30144850841246,71.2339817678815,71.3244716356199,71.19282686097922,70.90281966116692,71.1937199545551
67.3828,72.49744812476087,72.42868295883194,72.52008109454673,72.38804343470493,72.10481716063052,72.39034311975654
68.8477,73.11174270653986,73.04014399361519,73.13160093505344,73.00431676096886,72.73324668273206,73.00654119067323
71.7773,74.06784622952175,73.98786123362947,74.08759459028938,73.9531838729109,73.67444842448732,73.95669023758677
74.707,74.97031653941397,74.89229613135683,74.99175539903926,74.85467406782571,74.57742078832702,74.85980310648861
77.6367,75.78228498525685,75.70313294727849,75.80409640348142,75.66509993982578,75.39219182273236,75.67183767504994
79.1016,76.14888739303451,76.06983615874327,76.17159589378939,76.03037001712055,75.75643167366745,76.03793640739539
82.0312,76.7391554994542,76.65923875553973,76.7621951074154,76.61967803544107,76.35415582939397,76.62930546294713
84.9609,77.29776233694325,77.21085938071975,77.32184122259015,77.16956926781847,76.88678845585592,77.18011497506923
87.8906,77.74626722371913,77.6605997935017,77.77231503985817,77.61595590884052,77.32758815346965,77.62741389808616
90.8203,78.11803920835153,78.03440410758476,78.14610436382495,77.98604444390416,77.69731504564125,77.99929543292768
95.2148,78.55821364013433,78.47308367869672,78.58831225677604,78.42136388034154,78.12841919347889,78.43693061046899
98.1445,78.81592123599636,78.73502003883323,78.84902762473124,78.67841827642421,78.38509665708655,78.69579236066964
101.074,79.02899237133985,78.94938896959461,79.06359988248397,78.89071236556597,78.5999748157173,78.90961819203042
105.469,79.26176666710867,79.17757156979596,79.29739066619453,79.11747547495003,78.82791279584369,79.13957955292558
108.398,79.40650224590514,79.31425481492629,79.44105288310227,79.25546233899254,78.96137269895046,79.27902812046469
112.793,79.55984101564596,79.45748197271753,79.59378984909158,79.39954230825667,79.09934925218914,79.42550966073715
117.188,79.70858348055506,79.5998084197793,79.74356474759254,79.54004271114336,79.23003608035604,79.56819089855894
120.117,79.78476146532115,79.67369855498985,79.82219738801399,79.61027759130299,79.28993637641668,79.64023126038308
124.512,79.91230763747619,79.80511065660033,79.95368156337118,79.73575000927981,79.4092742240268,79.76745378683368
128.906,79.99565610481416,79.89824595977575,80.04263644753289,79.82106254423869,79.50371905740539,79.85638271578215
133.301,80.05897062206535,79.96409216591175,80.10936035512724,79.88068998790779,79.55966228712063,79.91883132250517
139.16,80.10465092041612,80.00851142418828,80.15742451267944,79.92006392770021,79.60629147965278,79.96368041712387
143.555,80.07953487091926,79.98792441953037,80.1367007639711,79.89302351222092,79.58340883836335,79.94042921181028
147.949,80.14886077781485,80.07492161663298,80.22039456306393,79.95879355866066,79.6279814302693,80.01109655857965
153.809,80.27635643688141,80.20074996354207,80.35205527141666,80.08056619628856,79.74082018023623,80.13531770638005
159.668,80.22742979148875,80.14111494747463,80.30153805606474,80.02127406011583,79.68858435340597,80.08123333833333
165.527,80.17137325920608,80.08695755925315,80.25231525863774,79.95554961889061,79.62230738796829,80.02323041432759
171.387,80.1761588912278,80.09496338690273,80.26829256782689,79.94153996339969,79.56574456656257,80.01621444660985
177.246,80.2498265717041,80.13462197912766,80.33018587110915,79.99706107979439,79.61283610742801,80.07211748426599
183.105,80.20370819420643,80.08467403516761,80.28523963791174,79.94735132736253,79.59281307751858,80.02947363337843
188.965,80.16368404188256,80.01109645123323,80.23960974748597,79.88182801570369,79.51751303111358,79.97010361595217
196.289,80.08589116273151,79.92192135448191,80.16974411551335,79.78102779089697,79.39768715503321,79.87965072113923
203.613,80.02623593872079,79.907485006091,80.13993295130872,79.71483494113959,79.23792398126035,79.81658640791225
210.938,79.91107298153145,79.83621593466243,80.0385360028079,79.61527019813494,79.1696802302257,79.72465248838886
218.262,80.02649614082083,79.91580255713387,80.14437638180524,79.70714464984711,79.25184035849662,79.8202365447837
225.586,79.77749464839685,79.63630676613079,79.88693444048984,79.44944127413743,79.09503756681383,79.57785679024876
232.91,79.63452001455697,79.49920844025661,79.76655598617052,79.2712139715127,78.87303360753174,79.42008185319004
241.699,79.52469030352664,79.42914886727314,79.70107525264866,79.12486414697348,78.60772693220441,79.29405651647116
250.488,79.92879330861165,79.76068913709823,80.09174315911214,79.46082775032086,78.66571941333471,79.6096562471909
259.277,79.74660905485221,79.5938285904263,79.89996321628131,79.34622956540083,78.79751483946939,79.49356722592036
268.066,79.46040606511716,79.32930351716658,79.63062971624575,79.04150306469892,78.5358396363654,79.21613279918934
276.855,79.29786173929202,79.13679225600005,79.4745537245656,78.84217285899572,78.36449575680014,79.04032148396793
287.109,79.28323906835696,79.0943577002502,79.48965790599965,78.75013101734245,78.12357139846777,78.97390713477917
297.363,79.16818977598497,78.97265765217915,79.37452245171563,78.60566564202604,77.91260862162919,78.83624555738255
307.617,79.16300943584176,78.86732077785904,79.35752114040257,78.52275417085939,77.81254696282558,78.77784842014984
319.336,78.98382137134064,78.75461302254642,79.2431765645265,78.2821650798467,77.22691251818578,78.55340067697536
329.59,79.24634343246537,79.0009887876687,79.48367477995626,78.591919042013,77.35496355843144,78.79676532495884
341.309,78.90447015415559,78.90279368424677,79.20503922200945,78.38826272001164,77.52392710700705,78.62362110806673
353.027,78.59697280475207,78.59254242754996,78.92548207327357,78.03573510414635,77.31190374516193,78.3284288385435
366.211,78.6656162550633,78.51687651876765,79.00553823815368,77.9027356510908,76.92298522093039,78.26187543011908
379.395,78.74068130060432,78.54891067167367,79.08639075532493,77.93050500315907,76.71773350337763,78.28031615201392
392.578,79.12109640563231,78.85317282963149,79.42584707168312,78.26857427149685,76.7094333426888,78.57433112333078
405.762,78.96049713542779,78.62794873548657,79.23682375982433,78.0743962243747,76.80858341640887,78.42176124893243
420.41,79.0165727400852,78.57096091411785,79.24211633326156,78.07837675542383,76.75674240510021,78.41756846293764
435.059,78.70969055294627,78.12836949959124,78.92888337668903,77.67303729222733,76.43140452868109,78.06066189042927
451.172,78.64510075913013,78.12270594720833,78.91601261427633,77.55859645613255,76.15358579406588,77.9831487464466
465.82,78.93837338323893,78.26167030958858,79.21273584615695,77.68357910524587,75.81797760290215,78.13697446590153
483.398,79.37065567564333,78.7738568900886,79.69173641933922,78.2319534259057,75.9768198676591,78.58797464465589
499.512,79.10239499689563,78.55911512751494,79.43201026598943,77.9851729599534,76.02537729584084,78.37282930835461
517.09,79.13743244152307,78.75015058188235,79.56794815711474,78.00070154701615,75.72118120034774,78.42547167746359
536.133,79.16768055233027,78.79724910377003,79.54462989637084,78.14826426168584,76.08285722357134,78.50376157702485
555.176,78.647616835542,78.2482877192687,79.00434570950061,77.44362348993519,75.71014241602319,77.95618529570865
574.219,78.78184024735704,78.16229475950522,79.23799325491568,77.30764468156585,75.49568613505735,77.9822313821433
594.727,79.39867537147046,78.64679561918435,79.90689084696066,77.71857269232267,75.47513741452426,78.48303215861837
615.234,79.61911581868056,78.79828007279416,80.06284937888456,77.97654535652048,75.12723255358428,78.62379013261908
637.207,79.27147756705803,78.40184737123158,79.58450680604922,77.78525412000724,74.97847337276615,78.27580712181349
659.18,78.86249076451995,77.85825947475905,79.24665279806204,77.16373494186739,74.27239857373401,77.79438834052154
682.617,78.98822763527264,77.89229815563867,79.26031488442996,77.29446390191966,73.54782153029582,77.80140806502219
707.52,78.25237309750833,77.07486427163668,78.37677615999384,76.59726372563564,73.1980449935356,77.04560249804378
732.422,77.82589310535444,76.51925557177013,78.03498730697271,76.14405198355206,72.55812828085378,76.59469293760661
757.324,78.21973178575978,76.83544228436539,78.3801603824306,76.29386703868026,71.98584277585472,76.84644855242055
785.156,77.97868488442727,76.60792057581057,78.10706329568087,76.36694234960528,72.1016089380442,76.68002304724068
811.523,78.3110884343189,76.85248319196509,78.48813511375852,76.6794674030904,72.07851741935352,76.98132698262293
840.82,78.53477023952985,76.98878132243286,78.63375001162238,76.70542293929536,72.05611934418381,77.11383436774184
870.117,78.31911078274325,76.78857441608936,78.40627314249934,76.58961487724748,72.29229550311038,76.94567991961928
900.879,78.74288718473012,76.94017141359471,78.81184715167186,76.88832790708922,71.90504770520393,77.23812322660828
933.105,78.64705597088668,77.09167802369656,78.89309400803005,76.62529476243735,72.2527840760882,77.23778603440361
965.332,78.95054033593094,76.8981000121527,79.23853686401623,76.94307525266217,71.62632013087777,77.41018944827609
1000.49,78.7043504012267,76.74048136704343,78.82162575587492,76.69306164865533,72.23278146903014,77.17793203977564
1035.64,78.92209753714026,76.64098699901245,78.96620879275052,76.43604658562415,71.50978318781478,77.17924575918094
1072.27,78.56616698799787,75.63587340217116,78.89968500232428,75.94617852597699,71.02376429299233,76.77767848159128
1108.89,78.6014959926409,76.10990007381655,79.26843503409464,76.53306196339595,70.07354852907562,77.04111868687042
1148.44,78.07151661457986,75.72666862267506,78.85454715456241,75.47483264657707,70.1659777632505,76.5129382591361
1189.45,77.37206649795287,75.0289799646355,78.09908326710848,75.37481097448382,71.62456914455765,76.02054813828242
1230.47,79.04742634728639,76.45461123238981,79.48261620661178,76.45241834948486,72.02520849745062,77.37829868330104
1274.41,79.99935204686706,77.6282606146285,80.47437036305261,77.40528352638991,71.59314625041296,78.31100258066854
1319.82,78.8369010013137,76.39700475792661,79.51891166004624,76.17514503217117,71.48343436491984,77.24540004354044
1366.7,77.28095401969648,74.91956968847556,77.68178713475727,74.61234424243831,69.7826346996993,75.6010485790526
1413.57,75.75967171391515,73.85713256812652,75.92093893109029,73.55972248259002,67.56323324083677,74.13196281516008
1463.38,75.68049242357226,73.39133315600469,75.90402325543953,73.24082435110891,64.83276765428793,73.87014789163204
1516.11,74.55718351209642,72.0339621620452,75.25161153632817,71.86751668766868,65.19797484365306,72.86556314580587
1568.85,76.38843071174837,72.8941316171748,76.7258520185719,72.72735502150267,62.851824246288515,74.17395970491567
1624.51,75.14736641534192,72.13790606431333,75.71252497305723,71.46584899283533,65.8838517045418,73.19006383457263
1681.64,76.9583098420093,73.80783248433904,77.47973508240538,72.71246686059648,65.3944714199199,74.82248107357957
1741.7,77.39511886162589,72.76196309255623,78.36740903774141,73.69074741383805,66.94492047969469,75.33486794213276
1803.22,77.77966810882793,73.55590400227115,78.81741493962878,74.44852918000905,67.27484270214514,75.84343449612074
1866.21,77.56552307025639,74.41835657927301,78.57547134910754,74.2633612772471,68.1890892694659,75.79927840429791
1932.13,79.05496240725229,76.09408833333453,79.79998559474376,74.91890306900247,68.73925503574796,77.07815695928602
1999.51,78.62951033674287,77.03425127987369,79.10539926143598,75.48940073766553,65.99162556401014,76.8878543966335
2069.82,80.76225963150468,76.57769252565099,81.96557439181198,75.91942575734784,70.16965284661916,78.70843948968842
2143.07,79.21617711888005,76.2292112611154,80.31782600997012,74.88144090941107,67.9739837899272,77.32539738680124
2219.24,78.34867521626656,76.66020673332704,79.10906340801775,74.87389008150373,64.56691877668929,76.62285389327384
2296.88,78.93106654324076,75.10139440011086,80.86971951296866,75.83027205001926,66.08159488123428,77.40465735776088
2378.91,78.77242111232036,76.02313481153294,80.56861510838496,75.67708139908665,67.17463859742892,77.34903845924218
2462.4,78.88892216080365,76.53962859378665,80.30811451739339,75.2086484008232,66.28018442270681,77.28000675082947
2548.83,78.64923234788058,77.46148214994226,80.56536028038339,75.94902276427368,65.99249660827604,77.57746169213092
2639.65,79.19147022295287,77.87103182392732,80.70949621082349,76.1371412322578,66.19920234850056,77.88543862013952
2731.93,79.55069906300244,78.09975493296041,80.59159804717235,75.41357710134587,66.54878396343851,77.9046307828809
2828.61,79.91358351718661,78.18035356195405,80.87464343843136,76.01875584871522,66.46281510703393,78.20232251055499
2928.22,79.84719897289403,78.49576890833717,81.23442725212927,76.4745655583908,66.53141749408243,78.4391771739629
3030.76,79.83146831561504,78.80928622324211,80.61547360789193,76.34027598208833,66.5833716371,78.26136843197726
3137.7,80.17597917583679,78.36760880815679,80.19653620068807,76.22025684188415,66.54284880192874,78.11342572892703
3249.02,80.20836843295326,78.04628756989374,79.68754516005534,76.1769622243241,66.24827997462845,77.88771281228621
3363.28,80.50943251736476,77.65415139097043,80.07571285862583,76.54537583283077,66.47784471917738,78.0895606075753
3481.93,80.53595431480504,77.62074984192859,80.20698304796662,76.92905847682333,66.82502020902724,78.19486271415822
3604.98,81.12433029174049,77.85894093750264,79.67704567996697,76.86610247266752,66.33479104215145,78.27832605534091
3732.42,81.00225409120021,77.40062097838035,80.36492253616068,77.30094699585631,66.81086001479656,78.42857258670084
3864.26,81.07479462477183,77.9849595100445,80.2543995705526,76.98837676140265,66.80964538666107,78.4729064056738
4000.49,81.00455529555552,78.14578738520932,80.19676714440062,76.92476508879588,66.07727935802556,78.44128909159481
4141.11,80.57297426049806,77.72262986373046,80.2561778017304,76.7168847799635,65.67824095716794,78.19575191204426
4287.6,79.88118958375566,78.09304400529693,79.70643561069356,76.21399539953323,65.10856115590259,77.78572465440179
4438.48,79.43964172968346,77.83339864421939,79.47037004138558,75.65719475766242,64.34218536364286,77.4294837688803
4595.21,79.15820939835348,77.83616712316781,79.85146319342913,75.81503379150051,64.58701677956712,77.49432561168099
4756.35,79.34891715084358,78.07524644564586,80.29703181748737,75.97903171446076,64.44602295690478,77.7780025378864
4924.8,79.43895705484584,77.99600841570266,80.64956995915308,76.77014766732114,65.07682068451174,78.03192260691162
5097.66,79.57600958404662,77.98965404618875,81.08588852455526,76.75298517913872,64.42284617001918,78.22387450883619
5277.83,79.3251495447474,77.75317326923266,80.85435366667858,76.92032142906588,65.25919002655647,78.05531846302104
5463.87,79.28319192080754,77.87815709822759,80.77401416055713,77.11490693084002,64.04306633988563,78.0569629743823
5657.23,79.3359791083383,77.92020431800272,81.1421060121259,77.50068183081808,64.72076622598466,78.28733627103537
5856.45,79.18181254043618,77.87931045269387,80.84101474244811,77.2197510479596,64.26093026083464,78.07467196833132
6062.99,79.36398652378409,77.62616895542607,80.55926275029763,77.3185687868852,64.89390013229283,77.99384042059269
6276.86,79.22673878217616,77.78151063312235,80.57038485224386,77.41512121152462,64.1050437065484,77.9995262418435
6498.05,79.14963617299051,77.16200111889545,80.26226694523585,77.13736387278553,64.45406071821223,77.7082835761063
6726.56,79.26713668691518,77.00990305976964,80.34591494506023,77.25671004306912,64.59220790407387,77.76767249442305
6963.87,79.06474935001803,76.7380548053391,79.89352018158394,76.95026591793412,64.20172685462963,77.44400209522554
7209.96,78.95710232797703,76.63218052181782,79.58439031639315,76.96224060274481,64.53715874571066,77.29330352265633
7464.84,78.63159313261568,76.94075686742814,79.45988165689677,77.00243665706496,63.769870001545186,77.21393231022496
7727.05,78.65284685389133,76.69874825224454,79.61799452142965,76.54609535482975,62.891958933278346,77.13929682758221
7999.51,78.50639768193922,76.44184509533768,79.75182479325477,76.16750313213723,62.532041545604,77.0344019040504
8282.23,78.34572284324575,75.9217646891573,79.8195546772449,75.96115520715811,61.6807125765168,76.88922922100171
8573.73,77.62492043566988,75.45433150525882,79.37361580173169,75.72208803639222,61.31894289464897,76.39988203348965
8876.95,76.55787280852516,74.76884569655563,77.90777767154475,74.9971618075758,60.48031114681298,75.30815010465753
9188.96,75.73087250225144,75.41975544671381,77.24751122264038,74.9451847058122,60.75272030836862,74.98927157905872
9514.16,77.50577426046898,76.01769143849702,78.67338328854132,75.19457659634895,60.17890034519938,76.10817876568154
