Freq "Side Wall Bounce"
20.5078 45.1727263009506
21.9727 44.518460711307725
23.4375 45.88200359983519
24.9023 47.20501474443019
26.3672 47.91924423299416
27.832 49.16173709715686
29.2969 49.447687821442784
30.7617 50.41019097467917
32.2266 51.41510441959029
33.6914 52.78069657594342
35.1562 53.803133136857056
36.6211 55.00555957356839
38.0859 56.16543658371209
39.5508 57.213050661887706
41.0156 58.1799151108235
42.4805 59.20874543521602
43.9453 60.172739064774234
45.4102 61.13840949668224
46.875 62.10901764970339
48.3398 62.98909797163192
51.2695 64.71978032158653
52.7344 65.44975424117611
54.1992 66.27985847971655
55.6641 67.10597358019245
58.5938 68.68009093430074
60.0586 69.34189467885732
62.9883 70.67861328562844
64.4531 71.32745564885802
67.3828 72.52267222258372
68.8477 73.13894554884766
71.7773 74.0878126607897
74.707 74.98930285570451
77.6367 75.79972872770458
79.1016 76.16499880499934
82.0312 76.75430682331987
84.9609 77.30419805569727
87.8906 77.75058469671932
90.8203 78.12067323178296
95.2148 78.55599266822034
98.1445 78.813047064303
101.074 79.02534115344477
105.469 79.25210426282882
108.398 79.39009112687134
112.793 79.53417109613547
117.188 79.67467149902215
120.117 79.74490637918178
124.512 79.87037879715861
128.906 79.95569133211748
133.301 80.01531877578658
139.16 80.05469271557901
143.555 80.02765230009972
147.949 80.09342234653946
153.809 80.21519498416735
159.668 80.15590284799462
165.527 80.09017840676941
171.387 80.07616875127849
177.246 80.13168986767319
183.105 80.08198011524132
188.965 80.01645680358249
196.289 79.91565657877577
203.613 79.84946372901838
210.938 79.74989898601373
218.262 79.8417734377259
225.586 79.58407006201622
232.91 79.40584275939149
241.699 79.25949293485228
250.488 79.59545653819966
259.277 79.48085835327963
268.066 79.17613185257771
276.855 78.97680164687452
287.109 78.88475980522125
297.363 78.74029442990484
307.617 78.65738295873818
319.336 78.4167938677255
329.59 78.7265478298918
341.309 78.52289150789044
353.027 78.17036389202515
366.211 78.03736443896959
379.395 78.06513379103787
392.578 78.40320305937564
405.762 78.20902501225349
420.41 78.21300554330263
435.059 77.80766608010613
451.172 77.69322524401134
465.82 77.81820789312467
483.398 78.3665822137845
499.512 78.1198017478322
517.09 78.13533033489495
536.133 78.28289304956463
555.176 77.57825227781399
574.219 77.44227346944464
594.727 77.85320148020146
615.234 78.11117414439927
637.207 77.91988290788603
659.18 77.29836372974619
682.617 77.42909268979845
707.52 76.73189251351444
732.422 76.27868077143086
757.324 76.42849582655906
785.156 76.50157113748408
811.523 76.8140961909692
840.82 76.84005172717416
870.117 76.72424366512628
900.879 77.02295669496802
933.105 76.75992355031615
965.332 77.07770404054097
1000.49 76.82769043653413
1035.64 76.57067537350295
1072.27 76.08080731385579
1108.89 76.66769075127475
1148.44 75.60946143445587
1189.45 75.50943976236262
1230.47 76.58704713736365
1274.41 77.5399123142687
1319.82 76.30977382004997
1366.7 74.74697303031711
1413.57 73.69435127046881
1463.38 73.37545313898771
1516.11 72.00214547554748
1568.85 72.86198380938147
1624.51 71.60047778071413
1681.64 72.84709564847527
1741.7 73.82537620171685
1803.22 74.58315796788784
1866.21 74.3979900651259
1932.13 75.05353185688126
1999.51 75.62402952554433
2069.82 76.05405454522663
2143.07 75.01606969728986
2219.24 75.00851886938253
2296.88 75.96490083789806
2378.91 75.81171018696544
2462.4 75.34327718870199
2548.83 76.08365155215247
2639.65 76.2717700201366
2731.93 75.54820588922466
2828.61 76.15338463659401
2928.22 76.60919434626959
3030.76 76.47490476996713
3137.7 76.35488562976295
3249.02 76.3115910122029
3363.28 76.68000462070957
3481.93 77.06368726470212
3604.98 77.00073126054632
3732.42 77.4355757837351
3864.26 77.12300554928144
4000.49 77.05939387667468
4141.11 76.85151356784229
4287.6 76.34862418741203
4438.48 75.79182354554122
4595.21 75.94966257937931
4756.35 76.11366050233956
4924.8 76.90477645519994
5097.66 76.88761396701751
5277.83 77.05495021694468
5463.87 77.24953571871882
5657.23 77.63531061869688
5856.45 77.3543798358384
6062.99 77.45319757476399
6276.86 77.54974999940342
6498.05 77.27199266066432
6726.56 77.39133883094792
6963.87 77.08489470581291
7209.96 77.09686939062361
7464.84 77.13706544494376
7727.05 76.68072414270854
7999.51 76.30213192001602
8282.23 76.09578399503691
8573.73 75.85671682427102
8876.95 75.13179059545459
9188.96 75.07981349369099
9514.16 75.32920538422775
9849.61 75.31417721306788
10196.8 75.12505596382115
10555.7 74.63943512756157
10927.7 74.34375125036168
11313.0 74.42975050912283
11712.9 74.43834516338097
12126.0 74.3003148994116
12553.7 74.02830979527454
12996.1 73.7290864424322
13454.6 73.6352023299973
13929.2 73.81581172548472
14419.9 73.81305406495247
14928.2 73.12591823635651
15455.6 72.09185117775779
16000.5 71.3382899680422
16564.5 70.95560661527604
17148.9 70.48741509989814
17752.4 69.80305220711062
18379.4 68.80693735372117
19026.9 67.69372490375301
19697.8 66.3207191881544
19999.5 65.92557123584905
