Freq "Total Early Reflection"
20.5078 45.04057169476572
21.9727 44.37577550806351
23.4375 45.73712190919581
24.9023 47.05911572431141
26.3672 47.78342399373783
27.832 49.02546764041354
29.2969 49.3072258079102
30.7617 50.27200863061641
32.2266 51.277665639513614
33.6914 52.64223095254057
35.1562 53.6658939757623
36.6211 54.86973134643959
38.0859 56.028481730142474
39.5508 57.07579168198352
41.0156 58.043610062121516
42.4805 59.07233650851663
43.9453 60.036127604611124
45.4102 61.00131894002875
46.875 61.97103986537299
48.3398 62.84994488807554
51.2695 64.58319708783908
52.7344 65.31393535948892
54.1992 66.14704999222833
55.6641 66.97366562362392
58.5938 68.54108100227437
60.0586 69.20369609967418
62.9883 70.54351785197925
64.4531 71.1937199545551
67.3828 72.39034311975655
68.8477 73.00654119067325
71.7773 73.95669023758676
74.707 74.8598031064886
77.6367 75.67183767504994
79.1016 76.0379364073954
82.0312 76.62930546294714
84.9609 77.18011497506924
87.8906 77.62741389808615
90.8203 77.9992954329277
95.2148 78.436930610469
98.1445 78.69579236066964
101.074 78.90961819203044
105.469 79.13957955292557
108.398 79.27902812046467
112.793 79.42550966073715
117.188 79.56819089855895
120.117 79.64023126038308
124.512 79.76745378683368
128.906 79.85638271578215
133.301 79.91883132250517
139.16 79.96368041712385
143.555 79.94042921181028
147.949 80.01109655857964
153.809 80.13531770638006
159.668 80.08123333833333
165.527 80.02323041432757
171.387 80.01621444660985
177.246 80.07211748426597
183.105 80.02947363337842
188.965 79.97010361595218
196.289 79.87965072113924
203.613 79.81658640791227
210.938 79.72465248838884
218.262 79.8202365447837
225.586 79.57785679024877
232.91 79.42008185319004
241.699 79.29405651647117
250.488 79.6096562471909
259.277 79.49356722592036
268.066 79.21613279918934
276.855 79.04032148396792
287.109 78.97390713477915
297.363 78.83624555738254
307.617 78.77784842014984
319.336 78.55340067697536
329.59 78.79676532495883
341.309 78.62362110806673
353.027 78.3284288385435
366.211 78.26187543011908
379.395 78.28031615201394
392.578 78.57433112333078
405.762 78.42176124893244
420.41 78.41756846293764
435.059 78.06066189042927
451.172 77.98314874644659
465.82 78.13697446590152
483.398 78.5879746446559
499.512 78.3728293083546
517.09 78.42547167746358
536.133 78.50376157702483
555.176 77.95618529570866
574.219 77.9822313821433
594.727 78.48303215861837
615.234 78.62379013261908
637.207 78.27580712181349
659.18 77.79438834052154
682.617 77.80140806502219
707.52 77.04560249804376
732.422 76.59469293760662
757.324 76.84644855242057
785.156 76.68002304724065
811.523 76.98132698262293
840.82 77.11383436774186
870.117 76.9456799196193
900.879 77.23812322660828
933.105 77.23778603440361
965.332 77.41018944827609
1000.49 77.17793203977563
1035.64 77.17924575918094
1072.27 76.77767848159128
1108.89 77.0411186868704
1148.44 76.5129382591361
1189.45 76.02054813828242
1230.47 77.37829868330104
1274.41 78.31100258066853
1319.82 77.24540004354044
1366.7 75.60104857905262
1413.57 74.1319628151601
1463.38 73.87014789163206
1516.11 72.86556314580587
1568.85 74.17395970491566
1624.51 73.19006383457263
1681.64 74.82248107357957
1741.7 75.33486794213277
1803.22 75.84343449612074
1866.21 75.79927840429791
1932.13 77.078156959286
1999.51 76.8878543966335
2069.82 78.70843948968842
2143.07 77.32539738680124
2219.24 76.62285389327384
2296.88 77.40465735776087
2378.91 77.34903845924218
2462.4 77.28000675082947
2548.83 77.57746169213091
2639.65 77.88543862013951
2731.93 77.90463078288089
2828.61 78.20232251055498
2928.22 78.43917717396292
3030.76 78.26136843197726
3137.7 78.11342572892701
3249.02 77.88771281228621
3363.28 78.08956060757531
3481.93 78.19486271415823
3604.98 78.27832605534091
3732.42 78.42857258670082
3864.26 78.47290640567378
4000.49 78.44128909159483
4141.11 78.19575191204424
4287.6 77.78572465440179
4438.48 77.42948376888032
4595.21 77.49432561168099
4756.35 77.7780025378864
4924.8 78.0319226069116
5097.66 78.2238745088362
5277.83 78.05531846302105
5463.87 78.05696297438229
5657.23 78.28733627103536
5856.45 78.07467196833133
6062.99 77.99384042059269
6276.86 77.99952624184351
6498.05 77.7082835761063
6726.56 77.76767249442305
6963.87 77.44400209522556
7209.96 77.29330352265632
7464.84 77.21393231022498
7727.05 77.13929682758223
7999.51 77.0344019040504
8282.23 76.88922922100171
8573.73 76.39988203348966
8876.95 75.30815010465753
9188.96 74.98927157905871
9514.16 76.10817876568153
9849.61 76.4167848102796
10196.8 76.58655599776917
10555.7 76.56005252452653
10927.7 76.59061472716472
11313.0 76.5571947080803
11712.9 76.32617816845803
12126.0 76.10144249869994
12553.7 76.10398133279885
12996.1 76.54068667622165
13454.6 76.85380252124358
13929.2 76.97004846911378
14419.9 76.80134229879862
14928.2 76.62467746248866
15455.6 76.22512659322517
16000.5 75.78209693162908
16564.5 75.61481214376118
17148.9 75.7318973269246
17752.4 75.84092680402941
18379.4 75.80118906170715
19026.9 75.2095206365286
19697.8 74.6337894876914
19999.5 74.68613457611707
