Freq "Listening Window"
20.5078 50.17397829889096
21.9727 54.14188607836503
23.4375 55.276040422792605
24.9023 55.913750163351764
26.3672 57.38658257014275
27.832 59.15666266331773
29.2969 60.61656330304733
30.7617 61.48621675639943
32.2266 62.31306555363436
33.6914 63.39894072678335
35.1562 64.69697060810456
36.6211 66.03577684958988
38.0859 66.11893088713533
39.5508 67.51201208039652
41.0156 68.9636949152838
42.4805 70.01160120321866
43.9453 71.23360960207941
45.4102 72.13228606628655
46.875 72.91123189991637
48.3398 73.78607534122713
51.2695 75.64235671895612
52.7344 76.56462578816814
54.1992 77.28199650008709
55.6641 77.5455883885782
58.5938 78.61119788760675
60.0586 79.29415751197642
62.9883 80.57465504919465
64.4531 81.13052086607858
67.3828 82.04647808959983
68.8477 82.41789532313851
71.7773 83.18590213971113
74.707 83.99232330869704
77.6367 84.5542106339715
79.1016 84.76908098820523
82.0312 85.29650073530027
84.9609 85.73095471190157
87.8906 86.01458955375223
90.8203 86.3171865529777
95.2148 86.85818764328921
98.1445 87.06777607194333
101.074 87.06278937472463
105.469 87.29172351907059
108.398 87.46587544242614
112.793 87.66333899254805
117.188 87.69733149678378
120.117 87.72152973935142
124.512 87.87636782421629
128.906 87.89077758009445
133.301 87.94658193035751
139.16 87.48551750797141
143.555 87.49875522865953
147.949 87.64959631624251
153.809 87.50619670466419
159.668 87.48696820911258
165.527 87.63954706978433
171.387 87.32928451302362
177.246 87.09050552104978
183.105 87.04263086980384
188.965 86.85091502410704
196.289 87.10780923004354
203.613 86.95368311688205
210.938 86.8049615499731
218.262 86.7436133787343
225.586 86.60638617524843
232.91 86.52748378815731
241.699 86.40106417464027
250.488 86.41000762500093
259.277 86.5529921934296
268.066 86.24899970281469
276.855 86.11379575200381
287.109 85.81149257038503
297.363 85.38487680676123
307.617 87.01363510621955
319.336 86.83444664918132
329.59 86.74421974507963
341.309 86.85359608377793
353.027 86.86591981313867
366.211 87.04717886945637
379.395 87.28073297998164
392.578 86.86632046003261
405.762 86.51354688520745
420.41 87.09555106592107
435.059 86.60087794509893
451.172 86.708222403184
465.82 86.68420933067368
483.398 86.27940547031727
499.512 86.15660240535198
517.09 86.1252252098422
536.133 85.62643309452746
555.176 86.13255047942553
574.219 86.10722712407691
594.727 86.29551367782165
615.234 86.28112232866489
637.207 86.40220063286957
659.18 86.59938715583438
682.617 86.47949646783907
707.52 86.15588315805469
732.422 85.23188485340744
757.324 84.58790219733217
785.156 84.31178028265984
811.523 86.59618756334737
840.82 87.82868832635417
870.117 88.48618124844401
900.879 88.65513460014036
933.105 88.241373385167
965.332 87.53415246058628
1000.49 86.40867593964538
1035.64 86.30498525279195
1072.27 86.1303195262901
1108.89 85.85979054280524
1148.44 86.53346186462784
1189.45 86.50352772219634
1230.47 86.61438782071139
1274.41 86.7424995616058
1319.82 87.16119498136779
1366.7 87.06504509504475
1413.57 86.34204298963739
1463.38 86.70398529574466
1516.11 86.81992152945496
1568.85 86.43176341362799
1624.51 85.66950449467923
1681.64 85.29444174696629
1741.7 85.51085917885327
1803.22 85.96566233919025
1866.21 86.27506163337209
1932.13 85.75853330889282
1999.51 85.61631899746283
2069.82 86.4450647863579
2143.07 86.70089828978935
2219.24 86.03485087868629
2296.88 86.1252427652886
2378.91 86.98947184990396
2462.4 86.56904385689374
2548.83 86.26919319589176
2639.65 86.54869448412403
2731.93 86.18540783992493
2828.61 85.92526485877578
2928.22 85.76691221874535
3030.76 85.006304928882
3137.7 85.79406757804593
3249.02 86.33114503997554
3363.28 86.6846210997228
3481.93 87.35998645388095
3604.98 87.84406624860377
3732.42 87.73549029496087
3864.26 87.86035732002965
4000.49 87.84384420410741
4141.11 87.74196742438215
4287.6 87.66996750118273
4438.48 87.54181096949425
4595.21 87.85078401998236
4756.35 86.32382718017216
4924.8 86.9978284076656
5097.66 86.84628838720526
5277.83 88.06086553059454
5463.87 87.94277166019944
5657.23 88.00479685827653
5856.45 87.57281698191217
6062.99 87.54576799059258
6276.86 87.82422459743037
6498.05 87.64926276798803
6726.56 87.81564018525872
6963.87 87.5151821676345
7209.96 87.11862232326774
7464.84 87.11367192535594
7727.05 86.95637888591122
7999.51 86.97949870195244
8282.23 87.61436813765737
8573.73 87.6288411195177
8876.95 88.14077756681509
9188.96 88.15918286820373
9514.16 87.69703625208369
9849.61 86.7856864095714
10196.8 86.27495734382033
10555.7 86.56707128326772
10927.7 86.90736660189735
11313.0 87.13989094337062
11712.9 87.50585438828253
12126.0 87.84583638524596
12553.7 88.12953808418789
12996.1 88.33003390929747
13454.6 88.55848851336127
13929.2 88.70036020048296
14419.9 88.92298875076918
14928.2 88.92198978381971
15455.6 89.03839619624804
16000.5 88.84039998282178
16564.5 88.48313206669327
17148.9 87.84599525673897
17752.4 87.56216643104433
18379.4 87.11858915334194
19026.9 86.09491445998104
19697.8 84.99497168766993
19999.5 84.49023279218197
