Freq "On Axis"
20.5078 50.8514
21.9727 54.60459999999999
23.4375 55.70880000000001
24.9023 56.36110000000001
26.3672 57.779399999999995
27.832 59.4799
29.2969 60.955200000000005
30.7617 61.7761
32.2266 62.5844
33.6914 63.63259999999998
35.1562 64.9004
36.6211 66.21919999999999
38.0859 66.273
39.5508 67.614
41.0156 69.0579
42.4805 70.0801
43.9453 71.306
45.4102 72.192
46.875 72.9489
48.3398 73.8116
51.2695 75.66269999999999
52.7344 76.5893
54.1992 77.31069999999998
55.6641 77.549
58.5938 78.5824
60.0586 79.2635
62.9883 80.5446
64.4531 81.0993
67.3828 82.0124
68.8477 82.38260000000001
71.7773 83.1477
74.707 83.9525
77.6367 84.5129
79.1016 84.7272
82.0312 85.2537
84.9609 85.6847
87.8906 85.96830000000001
90.8203 86.2722
95.2148 86.81670000000001
98.1445 87.0295
101.074 87.01969999999999
105.469 87.24920000000002
108.398 87.4251
112.793 87.6256
117.188 87.6638
120.117 87.6885
124.512 87.8432
128.906 87.8584
133.301 87.9179
139.16 87.4466
143.555 87.4732
147.949 87.6372
153.809 87.4935
159.668 87.47620000000002
165.527 87.6296
171.387 87.3224
177.246 87.087
183.105 87.0503
188.965 86.86479999999999
196.289 87.1264
203.613 86.9741
210.938 86.8376
218.262 86.77240000000002
225.586 86.6477
232.91 86.5783
241.699 86.45559999999999
250.488 86.4858
259.277 86.60109999999999
268.066 86.3257
276.855 86.1676
287.109 85.9045
297.363 85.5019
307.617 87.2023
319.336 86.9869
329.59 86.8521
341.309 87.0156
353.027 87.00089999999999
366.211 87.1907
379.395 87.3513
392.578 86.9945
405.762 86.591
420.41 87.2455
435.059 86.7266
451.172 86.8468
465.82 86.7416
483.398 86.44169999999998
499.512 86.3482
517.09 86.22279999999999
536.133 85.8484
555.176 86.3639
574.219 86.3485
594.727 86.56780000000002
615.234 86.4669
637.207 86.5707
659.18 86.8584
682.617 86.7136
707.52 86.3492
732.422 85.3694
757.324 84.9418
785.156 84.73279999999998
811.523 87.312
840.82 88.5118
870.117 89.18569999999998
900.879 89.0674
933.105 88.5123
965.332 87.3014
1000.49 86.40930000000002
1035.64 86.5153
1072.27 86.3396
1108.89 86.18410000000002
1148.44 87.1662
1189.45 86.9252
1230.47 87.3795
1274.41 87.4115
1319.82 87.7658
1366.7 87.5452
1413.57 86.62510000000002
1463.38 87.0963
1516.11 87.3597
1568.85 87.2977
1624.51 86.11979999999998
1681.64 85.7129
1741.7 86.0591
1803.22 87.0577
1866.21 86.9553
1932.13 86.7975
1999.51 86.6915
2069.82 87.3722
2143.07 87.5087
2219.24 87.03489999999998
2296.88 87.2616
2378.91 88.0944
2462.4 87.5588
2548.83 87.283
2639.65 87.5654
2731.93 87.2977
2828.61 86.9149
2928.22 86.6178
3030.76 85.8592
3137.7 86.9433
3249.02 87.3879
3363.28 87.6755
3481.93 88.06239999999998
3604.98 88.3422
3732.42 88.0043
3864.26 87.7949
4000.49 88.3435
4141.11 88.5262
4287.6 88.1281
4438.48 87.4111
4595.21 88.422
4756.35 86.5888
4924.8 86.7613
5097.66 86.6321
5277.83 87.8762
5463.87 87.9713
5657.23 87.9094
5856.45 87.5962
6062.99 87.7608
6276.86 88.5432
6498.05 88.3213
6726.56 88.3202
6963.87 87.8964
7209.96 87.5723
7464.84 87.5673
7727.05 87.165
7999.51 87.4877
8282.23 88.1708
8573.73 88.25610000000002
8876.95 88.758
9188.96 88.8153
9514.16 88.45909999999999
9849.61 87.59
10196.8 87.0583
10555.7 87.4139
10927.7 87.731
11313.0 88.1046
11712.9 88.5672
12126.0 88.9321
12553.7 89.16779999999999
12996.1 89.4274
13454.6 89.8052
13929.2 89.9371
14419.9 90.1324
14928.2 90.18899999999998
15455.6 90.4791
16000.5 90.4094
16564.5 90.1592
17148.9 89.5772
17752.4 89.37580000000001
18379.4 89.0712
19026.9 88.153
19697.8 87.2155
19999.5 86.7171
