Freq,On Axis,Listening Window,Sound Power,Early Reflections,Early Reflections DI,Sound Power DI,DI offset
22.4,-14.200000000000017,-12.83340749681011,-12.755233717389643,-12.476247215194093,19.642839718383982,19.921826220579533,20
23.0,-12.400000000000006,-9.6359858630573,-9.406356745399648,-9.409851345206903,19.773865482149603,19.77037088234235,20
23.6,-10.5,-3.0593134517814065,-3.6756270692410453,-3.5835769045584414,20.524263452777035,20.61631361745964,20
24.0,-8.200000000000017,0.28356964748391533,-0.6719280359444326,-0.4725654788018119,20.756135126285727,20.955497683428348,20
25.0,-6.099999999999994,1.0589124663821963,0.18005876466438053,0.3380933321817565,20.72081913420044,20.878853701717816,20
25.8,-4.099999999999994,2.087270484322147,1.1920213504565709,1.328748772577626,20.75852171174452,20.895249133865576,20
26.5,-2.200000000000017,3.1137172696685695,2.1163553441883494,2.346227378723569,20.767489890945,20.99736192548022,20
27.2,0.0,2.6800595633512785,1.6871271896757207,2.1692905411200343,20.510769022231244,20.992932373675558,20
28.0,2.0,2.687428278680642,1.8739611559948628,2.565756352104245,20.121671926576397,20.81346712268578,20
29.0,3.9000000000000057,2.9900164643385096,2.465036440396034,3.329740464248829,19.66027600008968,20.524980023942476,20
30.0,5.900000000000006,4.113717870860853,3.6569940038010884,4.670463093209889,19.443254777650964,20.456723867059765,20
30.7,8.099999999999994,7.160833313054866,6.454374942071468,7.378699289091628,19.782134023963238,20.7064583709834,20
31.5,10.099999999999994,11.167284454824681,10.241449362748739,10.921951034708485,20.245333420116197,20.925835092075943,20
32.5,12.0,16.99134957781027,15.969812303378632,16.340053436729733,20.651296141080536,21.021537274431637,20
33.5,14.099999999999994,16.25243581031347,15.56529901300891,15.571098210608824,20.681337599704648,20.68713679730456,20
34.5,16.099999999999994,15.863885225199681,15.375459609366857,14.976697608790005,20.887187616409676,20.488425615832824,20
35.5,18.0,18.439044080380285,16.778947073753898,16.097674598038708,22.341369482341577,21.660097006626387,20
36.5,20.200000000000017,20.8827142796126,20.370694328123136,19.402261770545778,21.480452509066822,20.512019951489464,20
37.5,22.200000000000017,23.17373855309748,24.235034005233558,22.952870507163453,20.220868045934026,18.93870454786392,20
38.7,24.099999999999994,26.745981324566543,28.539233116149518,26.88633300790636,19.859648316660184,18.206748208417025,20
40.0,26.200000000000017,29.35692218783845,30.238853987968326,29.08023867987481,20.27668350796364,19.118068199870123,20
41.2,28.099999999999994,31.582334910977266,31.550239966489926,31.01996786195437,20.562367049022896,20.03209494448734,20
42.5,30.19999999999999,33.396170255001124,32.848150522968325,32.57441107296759,20.82175918203353,20.5480197320328,20
43.7,32.20000000000002,35.222052615051695,34.779489217807765,34.38233386591901,20.839718749132686,20.44256339724393,20
45.0,34.099999999999994,36.28268015408864,36.53675146130976,36.0958729990941,20.18680715499454,19.745928692778875,20
46.2,36.099999999999994,36.06853083174457,36.51025602907933,36.63454196795624,19.43398886378833,19.558274802665238,20
47.5,37.900000000000006,38.484958748028134,38.43045854199727,38.776640676590915,19.70831807143722,20.054500206030866,20
48.7,39.80000000000001,45.14331506336168,43.61528694935379,44.0710862908434,21.072228772518287,21.528028114007896,20
50.0,41.599999999999994,49.30848146276577,47.36892501853157,47.93280621882849,21.37567524393728,21.9395564442342,20
51.5,43.400000000000006,50.38705011443989,48.81142632371038,49.296154521011374,21.090895593428513,21.57562379072951,20
53.0,45.099999999999994,47.98157037984882,47.84603580377026,48.08955634446505,19.892014035383767,20.135534576078555,20
54.5,46.900000000000006,47.657275661812136,46.59165180034044,47.36644354317474,20.290832118637397,21.065623861471693,20
56.0,48.599999999999994,49.26154987017139,47.778242388411314,48.6977832237296,20.563766646441792,21.48330748176008,20
58.0,50.3,51.29822656262516,49.66660216839584,50.337985992154216,20.960240570470944,21.63162439422932,20
60.0,51.900000000000006,52.84111335899361,51.33991008225928,51.88324267515415,20.95787068383946,21.50120327673433,20
61.5,53.400000000000006,54.134092106897185,52.951873453119305,53.33919678064373,20.794895326253453,21.18221865377788,20
63.0,54.900000000000006,55.081693569090476,53.970462753778776,54.38848224029027,20.693211328800203,21.1112308153117,20
65.0,56.29999999999998,55.98661602752763,54.91327784655745,55.38907163595863,20.597544391569002,21.073338180970183,20
67.0,57.5,57.32652329949326,56.28234725470014,56.74707958925977,20.57944371023349,21.04417604479312,20
69.0,58.70000000000002,58.51402645551808,57.58115588739999,58.01112114304934,20.50290531246874,20.93287056811809,20
71.0,59.80000000000001,59.63026852388353,58.811634096608074,59.18811764175375,20.44215088212978,20.818634427275455,20
73.0,60.8,60.77899271118895,60.145025521806275,60.382014893992405,20.396977817196543,20.633967189382673,20
75.0,61.7,61.67849019712911,61.189655899103016,61.362961251524865,20.315528945604242,20.48883429802609,20
77.5,62.5,62.469482000464865,62.01590543050288,62.17212650065717,20.297355499807693,20.45357656996198,20
80.0,63.099999999999994,63.13487087961414,62.78305276724237,62.88538108581078,20.249489793803363,20.351818112371774,20
82.5,63.70000000000002,63.567437441056825,63.40316134859252,63.410965670216214,20.15647177084061,20.164276092464306,20
85.0,64.2,64.00077345300582,63.999113835762316,63.92152597618198,20.079247476823838,20.001659617243504,20
87.5,64.5,64.41199101325601,64.52185274792214,64.4072055175289,20.00478549572712,19.890138265333874,20
90.0,64.80000000000001,64.733843702321,64.847018358231,64.74424806939504,19.989595632925955,19.88682534409,20
92.5,65.0,65.00076167153068,65.0679431595288,64.98060451681214,20.020157154718547,19.932818512001887,20
95.0,65.19999999999999,65.11122549985842,65.28408081601613,65.17832496453363,19.93290053532479,19.827144683842292,20
97.5,65.3,65.31148068598391,65.4220215023595,65.34008421470264,19.971396471281267,19.88945918362441,20
100.0,65.4,65.4669218511605,65.44217707209901,65.41811999352493,20.04880185763558,20.024744779061493,20
103.0,65.5,65.51148068598391,65.41023020932028,65.46328716580629,20.04819352017762,20.101250476663637,20
106.0,65.5,65.50076749445563,65.32638158313155,65.43698135622579,20.063786138229844,20.17438591132408,20
109.0,65.5,65.45609215500939,65.24048264146487,65.39482705555318,20.061265099456207,20.21560951354452,20
112.0,65.5,65.6114806859839,65.32536856408237,65.50435739847272,20.107123287511186,20.28611212190154,20
115.0,65.5,65.65686156553042,65.29814813345854,65.50478094489634,20.15208062063408,20.35871343207188,20
118.0,65.5,65.633843702321,65.23459744799125,65.47251250121803,20.161331201102968,20.399246254329753,20
122.0,65.5,65.58900192004663,65.20782315917523,65.44501897418031,20.143982945866313,20.381178760871393,20
125.0,65.5,65.54472895057721,65.21360884578321,65.40957455599221,20.135154394585,20.331120104793996,20
128.0,65.4,65.48925841531062,65.20478108586912,65.36645370387885,20.12280471143177,20.2844773294415,20
132.0,65.4,65.53384370232101,65.25071296614922,65.38067747744121,20.153166224879797,20.283130736171785,20
136.0,65.4,65.37797591781379,65.17312738499697,65.28757464454257,20.090401273271212,20.20484853281681,20
140.0,65.3,65.27797591781378,65.08646575835435,65.17907268213474,20.098903235679032,20.191510159459426,20
145.0,65.19999999999999,65.19999999999999,64.96330761070357,65.07276466129446,20.127235338705532,20.236692389296422,20
150.0,65.1,65.05583957685775,64.7998076304257,64.94682745203093,20.10901212482682,20.256031946432046,20
155.0,64.9,64.83358982687997,64.5696419860403,64.70836668648828,20.125223140391697,20.263947840839677,20
160.0,64.80000000000001,64.70025584655588,64.3315857931573,64.5048649035384,20.195390943017472,20.368670053398574,20
165.0,64.6,64.58925841531061,64.14052266555599,64.33420413449534,20.255054280815273,20.44873574975462,20
170.0,64.4,64.37797591781379,63.93393477703063,64.13406991841387,20.243905999399914,20.444041140783156,20
175.0,64.2,64.18976552271005,63.71920967577225,63.9317075213102,20.258058001399846,20.4705558469378,20
180.0,64.1,64.03434563061504,63.63159758502492,63.783575375133225,20.25077025548181,20.402748045590116,20
185.0,64.1,64.03409756292211,63.749986538505524,63.84675015177102,20.187347411151094,20.28411102441659,20
190.0,64.2,64.16768347817137,63.924771359847625,63.98530037563255,20.18238310253882,20.242912118323744,20
195.0,64.3,64.15764273882687,63.91140003693769,63.93784266666499,20.219800072161874,20.246242701889173,20
200.0,64.2,63.883544098404,63.45610284062131,63.525983768566476,20.357560329837526,20.42744125778269,20
206.0,63.70000000000002,63.29793365880256,62.62246309810561,62.76524392248399,20.532689736318574,20.67547056069695,20
212.0,63.0,62.72750536682392,61.277204077453874,61.7653580470851,20.96214731973882,21.450301289370046,20
218.0,62.400000000000006,62.29156062781861,60.29395091925218,61.188233256743914,21.1033273710747,21.99760970856643,20
224.0,61.8,61.712999874863186,59.5069453427692,60.565468390232255,21.14753148463093,22.206054532093987,20
230.0,61.400000000000006,61.11502944627021,58.88256551580719,59.994370685486786,21.120658760783428,22.232463930463027,20
236.0,61.0,60.79454391774932,58.31092377266506,59.54878994577997,21.24575397196935,22.48362014508426,20
240.0,60.8,60.604580469282624,57.38589442882933,59.086802444576875,21.51777802470575,23.218686040453292,20
250.0,60.599999999999994,60.1766669139014,56.564437026116735,58.52405139268231,21.65261552121909,23.612229887784665,20
258.0,60.5,60.145669257392115,57.50506417525037,58.82175795915792,21.323911298234194,22.640605082141747,20
265.0,60.400000000000006,60.14063796503012,57.78033604692844,58.932343926814696,21.208294038215428,22.360301918101683,20
272.0,60.3,60.11909248093191,58.03235386009081,59.083432048531606,21.035660432400306,22.086738620841103,20
280.0,60.19999999999999,60.11660111274898,58.32086021095296,59.211077385831004,20.905523726917977,21.795740901796023,20
290.0,60.099999999999994,60.08050017092458,58.3605128264913,59.22395637524117,20.856543795683407,21.719987344433278,20
300.0,60.0,59.96768347817137,58.21332335142375,59.05291702014155,20.914766458029817,21.754360126747613,20
307.0,59.80000000000001,59.792831342650516,57.97543589421957,58.85996151532592,20.932869827324595,21.817395448430943,20
315.0,59.5,59.31555123335923,57.49290374331757,58.37277341193031,20.94277782142892,21.82264749004166,20
325.0,59.099999999999994,58.96997382606371,57.01447056613168,57.958368040912305,21.011605785151403,21.95550325993203,20
335.0,58.70000000000002,58.49203842311863,56.17102990096856,57.34391643795378,21.14812198516485,22.321008522150066,20
345.0,58.2,57.94928032556396,55.441468402435405,56.73617853956071,21.21310178600325,22.507811923128557,20
355.0,57.599999999999994,57.34220039298424,54.69698514347421,56.03729146776698,21.304908925217262,22.64521524951003,20
365.0,57.099999999999994,56.82088129706018,54.071729304697286,55.5181881358607,21.302693161199485,22.749151992362897,20
375.0,56.7,56.387035924314006,53.524109252995586,55.04077343646358,21.346262487850424,22.86292667131842,20
387.0,56.29999999999998,56.00789341056513,52.965663737150805,54.59147520040814,21.41641821015699,23.042229673414326,20
400.0,56.099999999999994,55.84384286412333,52.385535795269845,54.313541540411904,21.530301323711427,23.458307068853486,20
412.0,56.099999999999994,55.69308741202944,51.84809884770846,54.05200609333235,21.64108131869709,23.844988564320985,20
425.0,56.29999999999998,55.76258352019349,52.07729130159798,54.169834014546154,21.592749505647333,23.685292218595507,20
437.0,56.599999999999994,56.06516480055342,52.342043526998964,54.404743044190695,21.660421756362723,23.723121273554455,20
450.0,57.0,56.48904010119705,52.75322911369658,54.810769825957536,21.678270275239512,23.73581098750047,20
462.0,57.400000000000006,56.99804665092057,53.21288980993171,55.30790888161778,21.690137769302794,23.78515684098886,20
475.0,57.900000000000006,57.56917009623946,53.86802378592584,55.91171130148069,21.657458794758767,23.701146310313618,20
487.0,58.5,58.23373496326823,54.59512511855651,56.58589082081036,21.64784414245787,23.638609844711723,20
500.0,59.099999999999994,58.877616963342504,55.152878360577304,57.25567003176539,21.621946931577114,23.7247386027652,20
515.0,59.7,59.40691764576522,55.115159195597215,57.56417547712489,21.842742168640328,24.291758450168004,20
530.0,60.400000000000006,60.06816957326001,55.76315368428688,58.21269958468696,21.85546998857305,24.30501588897313,20
545.0,60.900000000000006,60.63244160709783,56.5718428883215,58.880786117702854,21.751655489394977,24.060598718776333,20
560.0,61.400000000000006,61.026523919754965,57.01176394405131,59.32535472967945,21.701169190075518,24.014759975703655,20
580.0,61.8,61.414810053682984,57.27033962045816,59.69034775781674,21.724462295866246,24.144470433224825,20
600.0,62.099999999999994,61.787035924314026,57.853484269188854,60.117446002935054,21.66958992137897,23.93355165512517,20
615.0,62.400000000000006,62.057300295460905,58.49869703820261,60.42642276055457,21.630877534906332,23.558603257258298,20
630.0,62.69999999999999,62.19166545183401,58.42680674902972,60.46941636800598,21.722249083828032,23.76485870280429,20
650.0,62.900000000000006,62.48250964403661,58.280810339400915,60.57847828150899,21.90403136252762,24.201699304635696,20
670.0,63.0,62.43544850148176,57.99894998559432,60.48402157063592,21.95142693084584,24.436498515887436,20
690.0,63.0,62.360401291522734,57.65980572258778,60.16809819723227,22.192303094290466,24.700595568934958,20
710.0,62.8,62.1270214977508,57.26681143137483,59.75481356597129,22.372207931779514,24.86021006637597,20
730.0,62.599999999999994,61.81534396311835,56.454297146502654,59.23081576337289,22.584528199745463,25.361046816615698,20
750.0,62.400000000000006,61.714470092442866,55.947091987321485,59.047024392751666,22.6674456996912,25.76737810512138,20
775.0,62.30000000000001,61.58143765495706,55.71294585970975,58.90901715161726,22.672420503339794,25.86849179524731,20
800.0,62.400000000000006,61.7024561668763,55.79301485783947,59.04652187777097,22.655934289105332,25.909441309036836,20
825.0,62.30000000000001,61.74297624439525,55.99779152530962,59.26555375188167,22.477422492513583,25.74518471908563,20
850.0,62.099999999999994,61.523207014782486,56.08861970360192,59.2085393262781,22.314667688504386,25.434587311180564,20
875.0,61.599999999999994,60.73569251664843,55.22916778342805,58.33849493028103,22.397197586367398,25.506524733220374,20
900.0,61.099999999999994,60.116169941030634,54.36113280387204,57.5105529537571,22.605616987273535,25.755037137158595,20
925.0,61.29999999999998,60.41198954452979,54.768282326632885,57.78991524763339,22.6220742968964,25.643707217896903,20
950.0,62.5,61.52296872060724,55.29813393504071,58.58632734018079,22.93664138042645,26.22483478556653,20
975.0,63.79999999999998,62.86879438826443,55.9757372183019,59.616290949602984,23.25250343866145,26.893057169962532,20
1000.0,64.7,63.68844730643352,56.845207452365486,60.52860641160618,23.15984089482734,26.84323985406803,20
1030.0,65.1,64.42308336826513,57.685607861774585,61.39920668903375,23.02387667923138,26.73747550649054,20
1060.0,65.1,64.41080692884226,57.83554951064221,61.45251697383607,22.958289955006194,26.575257418200053,20
1090.0,64.9,63.99955163357292,57.14564993570119,60.86885508900127,23.13069654457165,26.853901697871734,20
1120.0,64.9,64.00919158645893,57.042038376014716,60.826678640364264,23.18251294609466,26.96715321044421,20
1150.0,65.0,64.17364059803288,57.09093577540156,60.95496622323458,23.218674374798297,27.082704822631314,20
1180.0,64.80000000000001,64.05904260101346,57.00353754667191,60.92322528862182,23.135817312391637,27.055505054341552,20
1220.0,64.4,63.68282793330317,56.77232906949581,60.595713807643364,23.08711412565981,26.910498863807362,20
1250.0,64.5,63.5279782585437,56.408841773463806,60.314304029210874,23.213674229332824,27.119136485079892,20
1280.0,64.80000000000001,63.73048881971228,56.22289528885136,60.30673715570272,23.423751664009558,27.507593530860916,20
1320.0,64.7,63.79819849980423,56.215084390870075,60.33639181497706,23.461806684827167,27.583114108934154,20
1360.0,64.4,63.6747140449139,56.5837230777023,60.5032855229188,23.171428521995097,27.090990967211596,20
1400.0,64.3,63.725686203602535,56.896337468491765,60.540446802568155,23.18523940103438,26.82934873511077,20
1450.0,64.4,63.84852128518048,57.17524345323619,60.68685263857752,23.161668646602962,26.67327783194429,20
1500.0,64.4,63.90139289259544,56.80454091402774,60.56173760518479,23.33965528741065,27.0968519785677,20
1550.0,64.6,64.03283666994818,56.532521467043324,60.471703092249925,23.561133577698257,27.500315202904858,20
1600.0,64.80000000000001,64.4460919849069,57.02534886804651,61.06299018089959,23.38310180400731,27.420743116860393,20
1650.0,64.4,64.14671352258404,57.21582961391542,61.02881253334763,23.117900989236404,26.93088390866862,20
1700.0,63.70000000000002,63.748769264330434,57.28721158817379,60.69033505026505,23.058434214065386,26.461557676156644,20
1750.0,63.79999999999998,63.506312499563904,57.01760280152172,60.433463737830266,23.07284876173364,26.488709698042186,20
1800.0,64.4,63.78123986840862,56.64764312181208,60.41886368368225,23.362376184726372,27.133596746596538,20
1850.0,64.2,63.65908751934968,56.68920376693514,60.346671458186364,23.31241606116332,26.969883752414546,20
1900.0,63.3,63.211079600509024,56.579839454861244,59.978131567169086,23.232948033339937,26.63124014564778,20
1950.0,63.400000000000006,63.73732308589233,57.109322120660906,60.55667352042937,23.180649565462957,26.628000965231422,20
2000.0,63.2,63.42091257012926,56.981816247335374,60.408348013383375,23.012564556745886,26.439096322793887,20
2060.0,62.599999999999994,63.06869456205041,56.7796486170259,60.06718182929632,23.001512732754094,26.28904594502451,20
2120.0,62.900000000000006,63.249310368677044,56.94472798091205,60.39259616254185,22.856714206135194,26.304582387764995,20
2180.0,63.3,63.50736511924285,58.15237981605706,61.2853800732224,22.22198504602045,25.354985303185785,20
2240.0,64.0,63.040564154919366,58.01292095417335,60.95913020905046,22.08143394586891,25.027643200746013,20
2300.0,64.5,63.28938083543295,57.868827686706766,60.99083667022329,22.298544165209663,25.420553148726185,20
2360.0,66.0,65.2322076940427,58.018256109691976,61.88129637589202,23.35091131815068,27.213951584350724,20
2400.0,65.1,64.16497265989064,57.188292754643456,60.72238467654998,23.44258798334066,26.97667990524718,20
2500.0,64.0,62.91779867115635,58.265432443469294,61.07587518404053,21.84192348711582,24.652366227687054,20
2580.0,62.900000000000006,61.925248880746835,58.416213104168435,61.14079543236005,20.784453448386785,23.5090357765784,20
2650.0,63.0,61.64642168578227,57.753694507099965,60.52448468419989,21.12193700158238,23.892727178682307,20
2720.0,64.80000000000001,63.48420688662952,59.13358396925881,62.18535226111689,21.298854625512632,24.350622917370714,20
2800.0,66.1,64.87745766755354,58.5084141758867,62.1476978094981,22.729759858055445,26.369043491666844,20
2900.0,67.2,65.86606847323554,58.0941161891154,62.41430547451938,23.451762998716163,27.771952284120147,20
3000.0,67.69999999999999,66.1396679858556,57.516747580563674,62.051395667498014,24.088272318357582,28.62292040529192,20
3070.0,68.0,66.46640490212384,57.44120485207631,62.05997664158335,24.406428260540494,29.02520005004753,20
3150.0,67.9,66.25155265004156,57.26392675058351,61.84816257872916,24.4033900713124,28.987625899458052,20
3250.0,67.5,65.93554072679004,57.60440369350704,61.778948091902095,24.156592634887943,28.331137033283,20
3350.0,66.5,65.21532224138939,57.83815672714769,61.623174289622284,23.592147951767103,27.377165514241696,20
3450.0,65.4,64.33849213593993,57.93817339518591,61.439189610483766,22.899302525456164,26.400318740754017,20
