Freq,On Axis,Listening Window,Sound Power,Early Reflections,Early Reflections DI,Sound Power DI,DI offset
22.4,14.099999999999994,14.204720286964545,16.783638966580725,15.47514013372438,38.729580153240164,37.42108132038382,40
23.0,14.999999999999972,15.104720286964522,17.63083293924936,16.369544625961083,38.73517566100344,37.47388734771516,40
23.6,15.799999999999983,15.904720286964562,18.367946952228294,17.156240969509952,38.74847931745461,37.53677333473627,40
24.0,16.400000000000006,16.547050031776024,18.928407514320128,17.75816821071834,38.788881821057686,37.618642517455896,40
25.0,17.00000000000003,17.05790227094562,19.35212573173851,18.225706698736616,38.832195572209,37.70577653920711,40
25.8,17.299999999999983,17.380028127409616,19.605337662245773,18.51794800660329,38.862080120806326,37.77469046516384,40
26.5,17.400000000000006,17.524234407365157,19.66047414948727,18.621476336257018,38.90275807110814,37.863760257877885,40
27.2,17.200000000000017,17.324234407365168,19.397611131751404,18.40325298564167,38.920981421723496,37.926623275613764,40
28.0,16.700000000000017,16.735143736967075,18.727891131661664,17.785781400203547,38.94936233676353,38.00725260530541,40
29.0,16.099999999999994,16.199653261885373,18.09359162889558,17.198579595245405,39.00107366663997,38.10606163298979,40
30.0,17.299999999999983,17.39965326188539,19.202796371152914,18.36593649176288,39.03371677012251,38.19685689073248,40
30.7,21.200000000000017,21.23056498976257,22.931933933810626,22.139684293734632,39.09088069602794,38.298631055951944,40
31.5,25.5,25.55334746775577,27.170286893590628,26.424980313811062,39.12836715394471,38.38306057416514,40
32.5,28.799999999999983,28.87355213528582,30.419089745466977,29.710105412254705,39.163446723031115,38.45446238981884,40
33.5,31.099999999999994,31.219644137957403,32.67024314007139,32.00844556183617,39.211198576121234,38.54940099788601,40
34.5,33.099999999999994,33.15087567852197,34.487897572628725,33.87900534016143,39.27187033836054,38.662978105893245,40
35.5,34.900000000000006,34.973552135285814,36.26002676976023,35.693846731470956,39.27970540381486,38.713525365525584,40
36.5,36.70000000000002,36.773552135285826,37.9469048009521,37.418191627876155,39.35536050740967,38.82664733433373,40
37.5,38.400000000000006,38.473552135285814,39.56333010058384,39.08734945954487,39.38620267574095,38.910222034701974,40
38.7,39.79999999999998,39.894130579520294,40.91376736685805,40.4681714535034,39.42595912601689,38.98036321266224,40
40.0,40.900000000000006,40.92700292008263,41.84865485721616,41.46502213969282,39.46198078038981,39.07834806286647,40
41.2,42.099999999999994,42.12700292008262,42.950286307757665,42.60475990868082,39.5222430114018,39.17671661232495,40
42.5,44.70000000000002,44.68154004111531,45.43927816344697,45.1388809772381,39.54265906387721,39.24226187766834,40
43.7,48.0,47.98154004111532,48.647092266066664,48.39152335699876,39.59001668411656,39.33444777504866,40
45.0,50.400000000000006,50.42445814420117,50.98522195198021,50.76571351566781,39.658744628533356,39.43923619222096,40
46.2,51.79999999999998,51.824458144201145,52.31465346201574,52.14813161714153,39.676326527059615,39.509804682185404,40
47.5,53.099999999999994,53.124458144201185,53.52081943258193,53.385339889133235,39.73911825506795,39.603638711619254,40
48.7,54.79999999999998,54.77950687011969,55.08781836101258,54.996865935914826,39.78264093420486,39.69168850910711,40
50.0,56.599999999999994,56.66845670446244,56.88127037253656,56.82740216353682,39.841054540925626,39.78718633192588,40
51.5,58.70000000000002,58.679506870119695,58.807353514696985,58.80394895644923,39.87555791367046,39.87215335542271,40
53.0,60.7,60.72293110248063,60.77552734822595,60.807303747825074,39.915627354655555,39.94740375425468,40
54.5,62.7,62.67950687011968,62.62415535142276,62.69473916566852,39.98476770445116,40.055351518696924,40
56.0,64.2,64.2457535568586,64.12828810635392,64.23980653422316,40.00594702263544,40.11746545050468,40
58.0,65.4,65.37849019712911,65.18840514149039,65.33579775213651,40.042692444992596,40.19008505563872,40
60.0,66.8,66.82293110248062,66.53706957743594,66.7256241527885,40.097306949692125,40.28586152504468,40
61.5,68.8,68.7784901971291,68.44922028066652,68.67333358074053,40.10515661638857,40.32926991646258,40
63.0,70.9,70.87849019712911,70.41878864923038,70.67884267413852,40.19964752299059,40.45970154789873,40
65.0,72.8,72.7784901971291,72.25904340286522,72.55749579989455,40.22099439723455,40.519446794263885,40
67.0,74.70000000000002,74.65635648403186,74.06788650818172,74.40028495312129,40.256071530910575,40.588469975850145,40
69.0,76.5,76.43358982687998,75.75801374921012,76.13357214465707,40.300017682222915,40.67557607766986,40
71.0,77.9,77.83358982687999,77.07210100912053,77.47385781987063,40.359732007009356,40.76148881775946,40
73.0,78.69999999999999,78.65635648403187,77.86988408351772,78.30854394851798,40.347812535513896,40.78647240051416,40
75.0,79.2,79.15635648403186,78.27345112400455,78.75511819522737,40.40123828880449,40.88290536002731,40
77.5,79.79999999999998,79.75635648403188,78.79546333854093,79.30559595211992,40.45076053191197,40.96089314549096,40
80.0,80.3,80.2784901971291,79.27289668503232,79.79926792978523,40.47922226734387,41.00559351209678,40
82.5,80.4,80.28977136039705,79.2237560786877,79.78306212229606,40.506709238100996,41.066015281709355,40
85.0,80.3,80.21173585711585,79.06890383148009,79.65922598505121,40.55250987206465,41.14283202563577,40
87.5,80.4,80.33409756292212,79.12459194103644,79.73781918445503,40.59627837846709,41.20950562188568,40
90.0,80.4,80.33409756292212,79.0522990645683,79.70749333808305,40.62660422483907,41.28179849835382,40
92.5,80.5,80.41173585711584,79.0906381708695,79.76971719983445,40.6420186572814,41.32109768624635,40
95.0,80.9,80.85686156553042,79.43550665218474,80.1483291299827,40.708532435547724,41.42135491334568,40
97.5,81.19999999999999,81.15686156553042,79.70530906627201,80.4534890680489,40.703372497481524,41.45155249925841,40
100.0,81.5,81.3907853962292,79.9087446068728,80.67228193281024,40.71850346341897,41.482040789356404,40
103.0,81.9,81.7907853962292,80.23439574562957,81.02201777658038,40.76876761964881,41.55638965059963,40
106.0,82.0,81.95686156553042,80.32873426568968,81.14706963536854,40.80979193016188,41.62812729984074,40
109.0,82.20000000000002,82.09078539622921,80.4401703065794,81.27890178831612,40.81188360791309,41.650615089649804,40
112.0,82.5,82.3907853962292,80.66043581547744,81.52919825875584,40.861587137473364,41.73034958075176,40
115.0,82.1,81.9907853962292,80.214346137845,81.10164395119963,40.889141445029566,41.7764392583842,40
118.0,81.19999999999999,81.0907853962292,79.27691761992965,80.1863698288808,40.904415567348394,41.813867776299546,40
122.0,81.1,80.9907853962292,79.13877276574816,80.07407974642621,40.91670564980299,41.85201263048104,40
125.0,82.20000000000002,82.09078539622921,80.17776000421998,81.13151081525949,40.95927458096972,41.91302539200923,40
128.0,82.7,82.6356206840857,80.67590925282254,81.65724985476697,40.97837082931872,41.95971143126316,40
132.0,82.0,81.9356206840857,79.93768831914144,80.93513945401745,41.00048123006826,41.99793236494426,40
136.0,81.6,81.46971018796762,79.4662030412911,80.47568568684937,40.99402450111825,42.003507146676526,40
140.0,81.7,81.56971018796762,79.51249404319653,80.54419638703268,41.02551380093493,42.05721614477109,40
145.0,81.7,81.56971018796762,79.41017137802638,80.46515887045169,41.10455131751593,42.15953880994124,40
150.0,82.0,81.86971018796761,79.70672852559207,80.78702657773982,41.08268361022779,42.16298166237554,40
155.0,82.29999999999998,82.16971018796761,79.94492136378534,81.04437704549733,41.12533314247028,42.22478882418227,40
160.0,82.1,81.94901542823473,79.68509567693795,80.80007057394815,41.14894485428658,42.26391975129678,40
165.0,81.6,81.46971018796762,79.20086846549636,80.34177837866787,41.12793180929975,42.268841722471265,40
170.0,81.8,81.66971018796762,79.32581719302823,80.48561988237654,41.184090305591084,42.343892994939395,40
175.0,82.5,82.34901542823474,79.95021329024603,81.14069187009753,41.20832355813721,42.39880213798871,40
180.0,82.7,82.54901542823474,80.14296132145711,81.34296583782249,41.20604959041225,42.40605410677763,40
185.0,82.8,82.62723913795804,80.12598752952448,81.35307359836753,41.27416553959051,42.50125160843356,40
190.0,83.6,83.40681734560613,80.8639915803647,82.11472831583839,41.29208902976774,42.54282576524143,40
195.0,84.0,83.84901542823475,81.25416411771647,82.53269214490258,41.31632328333217,42.59485131051828,40
200.0,83.6,83.40681734560613,80.76445249966585,82.05629374799247,41.35052359761366,42.64236484594028,40
206.0,83.4,83.20681734560614,80.51605603078319,81.84099777766602,41.36581956794012,42.69076131482295,40
212.0,83.4,83.20681734560614,80.45100451665814,81.81036785269711,41.39644949290903,42.755812828947995,40
218.0,83.30000000000001,83.06063752019828,80.24660858584794,81.63029793709671,41.43033958310157,42.81402893435035,40
224.0,83.30000000000001,83.04037254002033,80.14669507863736,81.56570872772902,41.47466381229131,42.893677461382964,40
230.0,83.2,83.00681734560615,80.00277628621394,81.46756639379028,41.53925095181587,43.00404105939221,40
236.0,82.9,82.68676720294033,79.63242608834737,81.1335277085274,41.553239494412935,43.05434111459296,40
240.0,82.7,82.46363182410126,79.3249897006857,80.86218361436684,41.601448209734414,43.13864212341555,40
250.0,82.8,82.49855684849737,79.25927767058742,80.85522938910063,41.643327459396744,43.23927917790995,40
258.0,82.6,82.34192888293812,79.01664342436787,80.66932068316412,41.672608199774004,43.32528545857025,40
265.0,82.6,82.34192888293812,78.91502528603134,80.62970724374335,41.712221639194766,43.42690359690678,40
272.0,82.6,82.29855684849737,78.77023193728526,80.54263355968527,41.7559232888121,43.52832491121211,40
280.0,82.6,82.27892674764837,78.6061099281641,80.4524960642668,41.826430683381574,43.67281681948427,40
290.0,83.0,82.67892674764836,78.86482585861387,80.79189523333785,41.88703151431051,43.81410088903449,40
300.0,83.4,83.01453682579611,79.11422964196748,81.10936918379616,41.90516764199995,43.90030718382863,40
307.0,83.6,83.27892674764834,79.24274883528454,81.31969566050174,41.959231087146605,44.0361779123638,40
315.0,83.8,83.39101239693368,79.23306507228922,81.39842657916441,41.99258581776927,44.157947324644454,40
325.0,83.8,83.4145368257961,79.12740139575152,81.36359071575205,42.05094611004405,44.287135430044586,40
335.0,83.69999999999999,83.33793451608318,78.93923330775215,81.26000068625562,42.07793382982756,44.39870120833103,40
345.0,83.4,82.995425156109,78.4728342488831,80.86401973072161,42.131405425387385,44.52259090722589,40
355.0,82.9,82.53793451608317,77.89396452300045,80.35993915812274,42.17799535796043,44.64396999308272,40
365.0,82.9,82.51892575904013,77.76532805179593,80.29561448330391,42.22331127573622,44.7535977072442,40
375.0,83.1,82.71892575904012,77.87975166978404,80.4660972343412,42.25282852469891,44.839174089256076,40
387.0,83.4,82.97179669420507,78.029107389069,80.67980140648946,42.29199528771561,44.94268930513607,40
400.0,83.8,83.37179669420506,78.33232500270076,81.02528819752544,42.34650849667962,45.0394716915043,40
412.0,84.1,83.67179669420506,78.5267399303469,81.26597234926881,42.40582434493625,45.14505676385815,40
425.0,83.9,83.49542515610898,78.19869910565912,80.98642276400474,42.509002392104236,45.29672605044986,40
437.0,83.4,82.95293589421631,77.56356759078803,80.4006629446603,42.55227294955601,45.389368303428284,40
450.0,82.8,82.4173611493363,76.8995375846972,79.78579010573424,42.631571043602065,45.5178235646391,40
462.0,82.6,82.1766669139014,76.5040521957176,79.45185273058709,42.72481418331431,45.672614718183794,40
475.0,83.2,82.7534775229451,76.88845125062971,79.91648351449179,42.83699400845332,45.86502627231539,40
487.0,84.1,83.63496888623315,77.58940253602226,80.69373940043272,42.941229485800434,46.04556635021089,40
500.0,84.70000000000002,84.21312187236123,78.0018136963378,81.18651496640615,43.02660690595508,46.21130817602342,40
515.0,84.79999999999998,84.29486622004389,77.89000873129436,81.1552835896932,43.13958263035069,46.40485748874953,40
530.0,84.5,83.97695167110251,77.38183299310101,80.73670022569675,43.24025144540576,46.5951186780015,40
545.0,84.0,83.43764893628028,76.67348905977371,80.12984052763716,43.307808408643126,46.76415987650657,40
560.0,83.6,82.97416871788153,76.02854186163803,79.56855389605094,43.40561482183058,46.94562685624349,40
580.0,83.4,82.70216924669498,75.55287722460669,79.20004237675923,43.50212686993575,47.14929202208829,40
600.0,83.2,82.37805536797912,75.07271566753124,78.79221076106265,43.58584460691647,47.305339700447874,40
615.0,82.8,81.92550639022926,74.51873262831162,78.30171343711012,43.623792953119136,47.406773761917634,40
630.0,82.20000000000002,81.30013917409163,73.87050566148142,77.67487098298739,43.62526819110424,47.42963351261021,40
650.0,81.6,80.64019260588111,73.2457184164854,77.0327452165894,43.60744738929171,47.39447418939571,40
670.0,81.1,80.14019260588111,72.86763426076013,76.62779985085372,43.51239275502739,47.272558345120984,40
690.0,80.9,79.99067867884384,72.84351801134682,76.55513204621592,43.43554663262792,47.14716066749702,40
710.0,81.0,80.16679039670274,73.09992546713507,76.77724896707792,43.38954142962481,47.06686492956767,40
730.0,81.1,80.42673619596988,73.3785338278633,77.0713582725989,43.35537792337098,47.04820236810659,40
750.0,81.3,80.68123986840862,73.53867433940022,77.26652954318158,43.41471032522705,47.14256552900841,40
775.0,81.6,80.97416871788153,73.67173585249814,77.47288677065296,43.50128194722856,47.30243286538338,40
800.0,81.9,81.34534796905157,73.85774677298717,77.77189451786076,43.573453451190815,47.4876011960644,40
825.0,82.4,81.7797229228195,74.05368052734767,78.09665852777407,43.683064395045434,47.726042395471836,40
850.0,82.8,82.16503635842817,74.22196354141049,78.38484830138282,43.78018805704535,47.94307281701768,40
875.0,83.2,82.53245416534979,74.37432884256268,78.65360549936756,43.87884866598223,48.158125322787114,40
900.0,83.5,82.75846282237421,74.446999414346,78.8345330770401,43.92392974533411,48.31146340802822,40
925.0,83.8,82.90519816958982,74.48992250274438,78.96006931241457,43.94512885717525,48.415275666845446,40
950.0,83.9,82.95577656490102,74.44659130312664,78.98355457221072,43.972221992690294,48.50918526177438,40
975.0,84.0,82.94788632133995,74.34783326994632,78.94098126542004,44.006905055919916,48.60005305139363,40
1000.0,84.0,82.82980165340112,74.19224114225533,78.81694980764739,44.01285184575373,48.63756051114579,40
1030.0,84.0,82.70014691534412,74.02915765711624,78.67964704221046,44.02049987313366,48.67098925822788,40
1060.0,83.9,82.54275463500498,73.94683267791646,78.57564001222542,43.96711462277956,48.59592195708852,40
1090.0,83.8,82.42376700973344,73.98202956545929,78.56992181396834,43.8538451957651,48.44173744427415,40
1120.0,83.69999999999999,82.39521031312378,74.23576336259961,78.74316867056022,43.65204164256356,48.15944695052417,40
1150.0,83.6,82.4250344138547,74.61228020232377,79.01469202761848,43.41034238623622,47.81275421153093,40
1180.0,83.5,82.51757984942405,75.02076073610856,79.32521789093894,43.19236195848511,47.496819113315496,40
1220.0,83.4,82.51761255137399,75.30216335555771,79.53108292728882,42.986529624085165,47.21544919581628,40
1250.0,83.4,82.54570763400358,75.43354502153232,79.61476745249205,42.93094018151153,47.11216261247125,40
1280.0,83.5,82.51277251170112,75.3686579932803,79.54390855048139,42.968863961219725,47.14411451842082,40
1320.0,83.5,82.39456741629559,75.21046409032161,79.36865613734885,43.02591127894674,47.18410332597398,40
1360.0,83.5,82.23600543660005,74.95756105246812,79.08318759199875,43.1528178446013,47.27844438413193,40
1400.0,83.30000000000001,81.98914276589474,74.7570332194634,78.81073626140939,43.17840650448535,47.232109546431346,40
1450.0,83.1,81.80636639082435,74.63055098495903,78.61317556914543,43.193190821678925,47.17581540586532,40
1500.0,83.0,81.77069566681858,74.60717287456511,78.57983948878577,43.19085617803282,47.163522792253474,40
1550.0,83.0,81.82420248126412,74.5566437774726,78.54559012519874,43.27861235606538,47.26755870379152,40
1600.0,83.1,81.99711678121089,74.49495816307433,78.50037160549431,43.49674517571658,47.50215861813656,40
1650.0,83.2,82.07262694077869,74.30570773280618,78.30603120898003,43.76659573179866,47.76691920797251,40
1700.0,83.2,81.98770683581876,73.9588599911032,77.93452291526847,44.05318392055028,48.02884684471556,40
1750.0,83.0,81.73249886196793,73.45480035933527,77.43945017557596,44.29304868639197,48.27769850263266,40
1800.0,82.8,81.46956445872976,72.94497220893058,77.0050063590183,44.46455809971147,48.524592249799184,40
1850.0,82.6,81.24250921368784,72.49227754245571,76.67782881413243,44.564680399555414,48.75023167123213,40
1900.0,82.6,81.07294023063109,71.98219047894331,76.35922773010924,44.71371250052185,49.09074975168778,40
1950.0,82.6,80.97692462504858,71.48242119488442,76.04461968362781,44.93230494142077,49.49450343016416,40
2000.0,82.8,80.99759874106742,71.18737257876776,75.90616542188133,45.091433319186095,49.81022616229966,40
2060.0,82.9,80.96830749598229,71.06980977441211,75.8420957875171,45.12621170846519,49.89849772157018,40
2120.0,82.6,80.68650931112697,70.7891377542673,75.57866888179797,45.107840429329,49.89737155685967,40
2180.0,82.1,80.24252170780717,70.30960172093378,75.14578074578824,45.09674096201893,49.93291998687339,40
2240.0,82.1,80.17945298519692,70.17805531190056,75.03956614309912,45.139886842097795,50.00139767329635,40
2300.0,82.7,80.70864463594042,70.69834093347507,75.51399913757317,45.19464549836725,50.01030370246535,40
2360.0,83.2,81.21069522991243,71.24462157399412,75.95378254686187,45.25691268305056,49.96607365591831,40
2400.0,83.30000000000001,81.3181043130825,71.4639196964205,76.06080029686262,45.25730401621988,49.854184616661996,40
2500.0,83.2,81.32311588935033,71.61311029762786,76.08434501873948,45.23877087061085,49.71000559172248,40
2580.0,82.9,81.24493305730174,71.64284179697309,76.05873946141777,45.186193595883964,49.60209126032865,40
2650.0,82.6,81.22283600935445,71.70912996426395,76.1079077677114,45.11492824164306,49.5137060450905,40
2720.0,82.8,81.62330702573249,72.04394735619897,76.53084238403643,45.092464641696054,49.57935966953352,40
2800.0,83.30000000000001,82.18000613270388,72.45842667643913,77.04810575248868,45.1319003802152,49.72157945626475,40
2900.0,83.8,82.51823407070303,72.67065707731176,77.37594906974093,45.142285000962104,49.84757699339127,40
3000.0,83.69999999999999,82.46524196575706,72.63666698593296,77.37934417934026,45.085897786416794,49.8285749798241,40
3070.0,83.4,82.2232129976635,72.48659205484944,77.2154150444929,45.007797953170595,49.736620942814056,40
3150.0,83.0,81.87664968816662,72.2071535567625,76.9567457164249,44.91990397174172,49.66949613140412,40
3250.0,82.6,81.57846961243413,71.95159285998463,76.71932217670275,44.85914743573139,49.626876752449505,40
3350.0,82.29999999999998,81.49624836435298,71.8599896748897,76.66777518588253,44.828473178470446,49.636258689463276,40
3450.0,82.4,81.69483456690826,71.84728470726033,76.74715311101295,44.94768145589531,49.84754985964793,40
3550.0,82.8,82.07360665414754,71.98001193915212,76.98377392789428,45.08983272625326,50.09359471499542,40
3650.0,83.30000000000001,82.54368873030595,72.33391038145882,77.36938041814729,45.17430831215866,50.209778348847124,40
3750.0,83.9,83.0763789319067,72.86946607109255,77.9288304888549,45.147548443051804,50.20691286081416,40
3870.0,84.4,83.48166932681798,73.36343469177191,78.43064100948206,45.05102831733592,50.118234635046065,40
4000.0,84.70000000000002,83.5856072329099,73.63052088916234,78.64770003086124,44.93790720204865,49.95508634374755,40
4120.0,84.5,83.35119022047323,73.5285165445502,78.43398913599884,44.917201084474385,49.82267367592303,40
4250.0,84.0,82.99585164601604,73.1413948568424,77.94512061240674,45.050731033609296,49.85445678917364,40
4370.0,83.30000000000001,82.23688254235287,72.28461340695048,77.03733373354784,45.199548808805034,49.95226913540239,40
