Freq "Listening Window"
22.4 14.204720286964545
23.0 15.10472028696455
23.6 15.904720286964562
24.0 16.547050031775996
25.0 17.057902270945647
25.8 17.380028127409616
26.5 17.524234407365157
27.2 17.324234407365168
28.0 16.735143736967046
29.0 16.199653261885373
30.0 17.39965326188539
30.7 21.23056498976257
31.5 25.553347467755742
32.5 28.87355213528582
33.5 31.21964413795743
34.5 33.15087567852197
35.5 34.973552135285814
36.5 36.7735521352858
37.5 38.47355213528584
38.7 39.894130579520294
40.0 40.92700292008263
41.2 42.127002920082646
42.5 44.68154004111531
43.7 47.981540041115295
45.0 50.42445814420117
46.2 51.824458144201174
47.5 53.12445814420116
48.7 54.77950687011969
50.0 56.66845670446247
51.5 58.679506870119695
53.0 60.72293110248063
54.5 62.679506870119695
56.0 64.24575355685862
58.0 65.37849019712911
60.0 66.82293110248064
61.5 68.77849019712912
63.0 70.87849019712911
65.0 72.77849019712912
67.0 74.65635648403187
69.0 76.43358982687997
71.0 77.83358982687997
73.0 78.65635648403186
75.0 79.15635648403186
77.5 79.75635648403187
80.0 80.27849019712912
82.5 80.28977136039705
85.0 80.21173585711585
87.5 80.33409756292211
90.0 80.33409756292211
92.5 80.41173585711586
95.0 80.85686156553042
97.5 81.15686156553042
100.0 81.39078539622919
103.0 81.79078539622921
106.0 81.95686156553042
109.0 82.0907853962292
112.0 82.39078539622919
115.0 81.9907853962292
118.0 81.0907853962292
122.0 80.99078539622919
125.0 82.0907853962292
128.0 82.63562068408571
132.0 81.9356206840857
136.0 81.46971018796764
140.0 81.56971018796763
145.0 81.56971018796763
150.0 81.86971018796763
155.0 82.16971018796764
160.0 81.94901542823474
165.0 81.46971018796764
170.0 81.66971018796762
175.0 82.34901542823474
180.0 82.54901542823475
185.0 82.62723913795804
190.0 83.40681734560614
195.0 83.84901542823474
200.0 83.40681734560614
206.0 83.20681734560614
212.0 83.20681734560614
218.0 83.06063752019827
224.0 83.04037254002034
230.0 83.00681734560614
236.0 82.6867672029403
240.0 82.46363182410126
250.0 82.49855684849737
258.0 82.3419288829381
265.0 82.3419288829381
272.0 82.29855684849736
280.0 82.27892674764836
290.0 82.67892674764835
300.0 83.0145368257961
307.0 83.27892674764836
315.0 83.39101239693366
325.0 83.41453682579609
335.0 83.33793451608317
345.0 82.99542515610898
355.0 82.53793451608318
365.0 82.51892575904013
375.0 82.71892575904013
387.0 82.97179669420505
400.0 83.37179669420505
412.0 83.67179669420506
425.0 83.49542515610898
437.0 82.9529358942163
450.0 82.4173611493363
462.0 82.17666691390139
475.0 82.75347752294509
487.0 83.63496888623314
500.0 84.21312187236123
515.0 84.2948662200439
530.0 83.97695167110253
545.0 83.43764893628028
560.0 82.97416871788153
580.0 82.702169246695
600.0 82.3780553679791
615.0 81.92550639022926
630.0 81.30013917409163
650.0 80.64019260588111
670.0 80.1401926058811
690.0 79.99067867884382
710.0 80.16679039670275
730.0 80.42673619596988
750.0 80.68123986840861
775.0 80.97416871788153
800.0 81.34534796905159
825.0 81.77972292281952
850.0 82.16503635842817
875.0 82.5324541653498
900.0 82.75846282237421
925.0 82.90519816958982
950.0 82.955776564901
975.0 82.94788632133995
1000.0 82.8298016534011
1030.0 82.7001469153441
1060.0 82.542754635005
1090.0 82.42376700973344
1120.0 82.3952103131238
1150.0 82.42503441385469
1180.0 82.51757984942405
1220.0 82.51761255137399
1250.0 82.54570763400358
1280.0 82.51277251170112
1320.0 82.39456741629557
1360.0 82.23600543660004
1400.0 81.98914276589474
1450.0 81.80636639082434
1500.0 81.77069566681857
1550.0 81.82420248126411
1600.0 81.9971167812109
1650.0 82.0726269407787
1700.0 81.98770683581874
1750.0 81.73249886196794
1800.0 81.46956445872976
1850.0 81.24250921368785
1900.0 81.07294023063109
1950.0 80.97692462504857
2000.0 80.9975987410674
2060.0 80.96830749598229
2120.0 80.68650931112697
2180.0 80.24252170780716
2240.0 80.17945298519692
2300.0 80.70864463594043
2360.0 81.21069522991243
2400.0 81.31810431308249
2500.0 81.32311588935033
2580.0 81.24493305730172
2650.0 81.22283600935444
2720.0 81.62330702573249
2800.0 82.18000613270388
2900.0 82.51823407070304
3000.0 82.46524196575706
3070.0 82.22321299766351
3150.0 81.87664968816662
3250.0 81.57846961243412
3350.0 81.49624836435297
3450.0 81.69483456690827
3550.0 82.07360665414755
3650.0 82.54368873030595
3750.0 83.0763789319067
3870.0 83.48166932681798
4000.0 83.5856072329099
4120.0 83.35119022047323
4250.0 82.99585164601604
4370.0 82.23688254235287
4500.0 81.34965455051766
4620.0 80.80854403583893
4750.0 80.84514186512276
4870.0 81.02808220907325
5000.0 81.30930766057945
5150.0 81.73758252404416
5300.0 82.0362757076516
5450.0 82.10191268345932
5600.0 82.05565004299669
5800.0 82.14720976624858
6000.0 82.23833591863672
6150.0 82.0302004608585
6300.0 81.6001839920148
6500.0 81.05873807920408
6700.0 80.8234529078192
6900.0 81.09265978324933
7100.0 81.86818521241955
7300.0 82.68298968933345
7500.0 83.1488804092144
7750.0 83.30298470917998
8000.0 83.26395173929677
8250.0 83.41924040115163
8500.0 83.71831223952644
8750.0 83.6950203205762
9000.0 83.31244403124008
9250.0 82.97204543648861
9500.0 82.76934815212202
9750.0 82.56066937858141
10000.0 82.63277461279841
10300.0 83.17378428496346
10600.0 83.52720191653373
10900.0 83.58426078788574
11200.0 83.70879855069361
11500.0 84.05020756444785
11800.0 83.80067121243844
12200.0 83.27046486717906
12500.0 83.87860950038527
12800.0 83.61933830997731
13200.0 81.2214813214961
13600.0 78.80252095393121
14000.0 79.17533824823205
14500.0 80.3366010507582
15000.0 81.81217565891134
15500.0 82.67248668906942
16000.0 82.04002008390566
16500.0 81.54496735791861
17000.0 81.51594579531637
17500.0 80.69063477791573
18000.0 79.52773995709435
18500.0 79.55328084316662
19000.0 78.84300481286289
19500.0 77.30948839247434
