Freq "Listening Window"
22.4 13.9021886413949
23.0 14.802188641394906
23.6 15.602188641394918
24.0 16.24451838620635
25.0 16.755370625376003
25.8 17.077496481839972
26.5 17.221702761795513
27.2 17.021702761795524
28.0 16.432612091397402
29.0 15.89712161631573
30.0 17.097121616315746
30.7 20.928033344192926
31.5 25.250815822186098
32.5 28.571020489716176
33.5 30.917112492387787
34.5 32.848344032952326
35.5 34.67102048971617
36.5 36.47102048971615
37.5 38.1710204897162
38.7 39.59159893395065
40.0 40.624471274512985
41.2 41.824471274513
42.5 44.37900839554567
43.7 47.67900839554565
45.0 50.121926498631524
46.2 51.52192649863153
47.5 52.82192649863151
48.7 54.476975224550046
50.0 56.36592505889283
51.5 58.37697522455005
53.0 60.420399456910985
54.5 62.37697522455005
56.0 63.94322191128897
58.0 65.07595855155947
60.0 66.520399456911
61.5 68.47595855155947
63.0 70.57595855155947
65.0 72.47595855155947
67.0 74.35382483846223
69.0 76.13105818131032
71.0 77.53105818131033
73.0 78.35382483846222
75.0 78.85382483846222
77.5 79.45382483846222
80.0 79.97595855155947
82.5 79.98723971482741
85.0 79.90920421154621
87.5 80.03156591735247
90.0 80.03156591735247
92.5 80.10920421154621
95.0 80.55432991996078
97.5 80.85432991996078
100.0 81.08825375065955
103.0 81.48825375065957
106.0 81.65432991996077
109.0 81.78825375065955
112.0 82.08825375065955
115.0 81.68825375065956
118.0 80.78825375065955
122.0 80.68825375065954
125.0 81.78825375065955
128.0 82.33308903851606
132.0 81.63308903851606
136.0 81.16717854239799
140.0 81.26717854239799
145.0 81.26717854239799
150.0 81.56717854239798
155.0 81.867178542398
160.0 81.6464837826651
165.0 81.16717854239799
170.0 81.36717854239798
175.0 82.04648378266509
180.0 82.24648378266511
185.0 82.3247074923884
190.0 83.1042857000365
195.0 83.54648378266509
200.0 83.1042857000365
206.0 82.9042857000365
212.0 82.9042857000365
218.0 82.75810587462863
224.0 82.7378408944507
230.0 82.7042857000365
236.0 82.38423555737066
240.0 82.16110017853161
250.0 82.19602520292773
258.0 82.03939723736846
265.0 82.03939723736846
272.0 81.99602520292771
280.0 81.97639510207871
290.0 82.3763951020787
300.0 82.71200518022646
307.0 82.97639510207871
315.0 83.08848075136402
325.0 83.11200518022645
335.0 83.03540287051352
345.0 82.69289351053934
355.0 82.23540287051354
365.0 82.21639411347049
375.0 82.41639411347049
387.0 82.66926504863541
400.0 83.0692650486354
412.0 83.36926504863541
425.0 83.19289351053934
437.0 82.65040424864665
450.0 82.11482950376666
462.0 81.87413526833174
475.0 82.45094587737545
487.0 83.3324372406635
500.0 83.91059022679158
515.0 83.99233457447426
530.0 83.67442002553288
545.0 83.13511729071064
560.0 82.67163707231188
580.0 82.39963760112535
600.0 82.07552372240946
615.0 81.62297474465961
630.0 80.99760752852198
650.0 80.33766096031147
670.0 79.83766096031145
690.0 79.68814703327418
710.0 79.86425875113311
730.0 80.12420455040024
750.0 80.37870822283897
775.0 80.67163707231188
800.0 81.04281632348194
825.0 81.47719127724987
850.0 81.86250471285852
875.0 82.22992251978016
900.0 82.45593117680457
925.0 82.60266652402018
950.0 82.65324491933136
975.0 82.6453546757703
1000.0 82.52727000783146
1030.0 82.39761526977446
1060.0 82.24022298943535
1090.0 82.1212353641638
1120.0 82.09267866755415
1150.0 82.12250276828505
1180.0 82.21504820385441
1220.0 82.21508090580434
1250.0 82.24317598843393
1280.0 82.21024086613147
1320.0 82.09203577072593
1360.0 81.9334737910304
1400.0 81.6866111203251
1450.0 81.5038347452547
1500.0 81.46816402124892
1550.0 81.52167083569447
1600.0 81.69458513564126
1650.0 81.77009529520906
1700.0 81.6851751902491
1750.0 81.4299672163983
1800.0 81.16703281316012
1850.0 80.93997756811821
1900.0 80.77040858506145
1950.0 80.67439297947892
2000.0 80.69506709549776
2060.0 80.66577585041264
2120.0 80.38397766555732
2180.0 79.93999006223751
2240.0 79.87692133962727
2300.0 80.40611299037079
2360.0 80.90816358434279
2400.0 81.01557266751284
2500.0 81.02058424378069
2580.0 80.94240141173208
2650.0 80.9203043637848
2720.0 81.32077538016284
2800.0 81.87747448713424
2900.0 82.2157024251334
3000.0 82.16271032018741
3070.0 81.92068135209387
3150.0 81.57411804259698
3250.0 81.27593796686448
3350.0 81.19371671878332
3450.0 81.39230292133863
3550.0 81.77107500857791
3650.0 82.2411570847363
3750.0 82.77384728633706
3870.0 83.17913768124833
4000.0 83.28307558734025
4120.0 83.04865857490358
4250.0 82.69332000044639
4370.0 81.93435089678323
4500.0 81.04712290494801
4620.0 80.50601239026929
4750.0 80.54261021955311
4870.0 80.7255505635036
5000.0 81.0067760150098
5150.0 81.43505087847451
5300.0 81.73374406208195
5450.0 81.79938103788967
5600.0 81.75311839742704
5800.0 81.84467812067894
6000.0 81.93580427306708
6150.0 81.72766881528885
6300.0 81.29765234644516
6500.0 80.75620643363443
6700.0 80.52092126224956
6900.0 80.79012813767969
7100.0 81.5656535668499
7300.0 82.38045804376381
7500.0 82.84634876364476
7750.0 83.00045306361034
8000.0 82.96142009372713
8250.0 83.11670875558198
8500.0 83.4157805939568
8750.0 83.39248867500656
9000.0 83.00991238567043
9250.0 82.66951379091897
9500.0 82.46681650655238
9750.0 82.25813773301176
10000.0 82.33024296722877
10300.0 82.87125263939382
10600.0 83.22467027096408
10900.0 83.2817291423161
11200.0 83.40626690512397
11500.0 83.7476759188782
11800.0 83.4981395668688
12200.0 82.96793322160941
12500.0 83.57607785481562
12800.0 83.31680666440766
13200.0 80.91894967592646
13600.0 78.49998930836156
14000.0 78.87280660266241
14500.0 80.03406940518856
15000.0 81.5096440133417
15500.0 82.36995504349977
16000.0 81.73748843833602
16500.0 81.24243571234896
17000.0 81.21341414974673
17500.0 80.38810313234609
18000.0 79.22520831152471
18500.0 79.25074919759697
19000.0 78.54047316729324
19500.0 77.00695674690469
