Freq,Floor Bounce,Ceiling Bounce,Front Wall Bounce,Side Wall Bounce,Rear Wall Bounce,Total Early Reflection
20.507813,58.30636521427425,58.23056946703133,58.34292257640098,58.16275300089433,57.502117331862365,58.11963532996734
21.972656,59.52292429532082,59.449079708702925,59.55490941554669,59.38084436097421,58.74054811559438,59.33974488463812
23.4375,60.48194902841604,60.471197485583616,60.54260681536351,60.38695100525791,59.85553109388047,60.35471149297527
24.902344,61.633826124753256,61.46937601174956,61.672871928500996,61.403258109498495,60.32676734196596,61.32824045394241
26.367188,62.264678262987374,62.17033215768831,62.30505747616766,62.10108641790653,61.31902873207929,62.046679748351266
27.832031,63.16496544643314,63.059803213017545,63.203648970343664,62.99210115065351,62.19855637377921,62.9389979303064
29.296875,64.01797976382774,63.90438513272247,64.05351383088805,63.8432986212505,63.05044251644799,63.789051639912074
30.761719,64.75285810442432,64.64537301480149,64.79169643159199,64.57910807213557,63.793369212121874,64.52743462217629
32.226563,65.46402474463903,65.34157604867282,65.49905080796513,65.28684474348607,64.45645445661398,65.22593308311508
33.691406,66.07541335075689,65.98592499364759,66.10791601262504,65.93689347716807,65.29621366479634,65.89041228461683
35.15625,66.80481503742493,66.70854200529712,66.83443017691671,66.65998207590512,66.02241334317752,66.61598571479814
36.621094,67.47327311255019,67.37380763969992,67.4996513746168,67.32755525273379,66.71542622618216,67.28722735186307
38.085938,68.12158180202383,68.02668559161988,68.15136249150908,67.97777413884559,67.36131022381079,67.93714405691368
39.550781,68.76499818277904,68.66259815348904,68.79907632832081,68.61351539227186,67.94780438939048,68.56846250390942
41.015625,69.37796295084678,69.2687987142096,69.40699619440495,69.22807165844047,68.57543494340811,69.18185097959545
42.480469,69.93488029168256,69.82966089401678,69.96626335655799,69.78423988763909,69.13425315183454,69.74024774958663
43.945313,70.48339426028691,70.37272070918432,70.51401777057032,70.3272943374204,69.66746813920601,70.28372702563277
45.410156,71.05206479942744,70.94637623509317,71.08581583129508,70.8989028255564,70.24128586736722,70.85556193615591
46.875,71.59508678334424,71.49074189840051,71.62995594082193,71.43826975417808,70.77787628589584,71.39724013980539
48.339844,72.1167659890771,72.00930395443476,72.15163885656695,71.95990997480449,71.29760802990052,71.91793772858833
51.269531,73.1297011290842,73.01993331074534,73.16784796987525,72.96912434879451,72.28731341884978,72.9263230440837
52.734375,73.624657780413,73.5156142721133,73.66408402228572,73.46377912140045,72.7792139144224,73.42110989061574
54.199219,74.10069811198044,73.98951728011127,74.14072791298949,73.93741915647234,73.24547590992015,73.8946706904644
55.664063,74.55463361852254,74.43932680559189,74.59565899228869,74.38849901258519,73.67721064062182,74.34358053201848
58.59375,75.4169010977884,75.287112448845,75.45441197189525,75.25095945788381,74.53447077075332,75.20132552848004
60.058594,75.79599832644234,75.67540160008775,75.83325575330048,75.63622770528158,74.96515691258766,75.59238077587052
62.988281,76.61050013514144,76.48105012649359,76.65405707587047,76.42885929246134,75.68891552273627,76.38641176130372
64.453125,77.03141131439179,76.89566818521763,77.07551829802392,76.85109247146258,76.08279218571806,76.80182771836117
67.382813,77.70621880729855,77.58104096230537,77.74838457751193,77.54591757773613,76.84086615632069,77.49664444057044
68.847656,78.04704030204958,77.92798377499126,78.08886770376417,77.89146131016469,77.23135649720126,77.84817648992878
71.777344,78.7131179900321,78.59122623013693,78.75571089111112,78.55256460032854,77.91186461991495,78.51534236077038
74.707031,79.34283134908827,79.2068897318268,79.38450022618792,79.16633327838969,78.48837293617183,79.12956343215022
77.636719,79.88673340306156,79.76071473660159,79.93394158596566,79.72453228357631,79.07123051000384,79.68628509275278
79.101563,80.16175668380576,80.03537060507028,80.21064526773367,79.99696235824659,79.34052799011366,79.96007296013846
82.03125,80.62841626304663,80.49590735091785,80.677754777079,80.4596428790106,79.80554088745288,80.42449446248385
84.960938,80.9879728554298,80.84929926991376,81.03819650766727,80.81502580480375,80.1575176567767,80.78083048547832
87.890625,81.33516029819312,81.18880164294978,81.3856682983658,81.15850461915528,80.50364603922262,81.12558679399135
90.820313,81.65110267551967,81.4962923583512,81.70170862914155,81.4693543274436,80.80624258868193,81.4364984477591
95.214844,82.02272668754814,81.86502943540367,82.07739828610762,81.83789570202063,81.17940703094796,81.80804752574096
98.144531,82.24875209823635,82.09986402564238,82.31131681553599,82.06697754394115,81.40960295492677,82.03887611627663
101.07422,82.45663364967926,82.31181587552639,82.52668303640134,82.2762217482861,81.61091265312182,82.2483166923779
105.46875,82.68072550289894,82.52590028626625,82.7533084376757,82.49328930628437,81.81617540896376,82.46625847475691
108.39844,82.81725592195484,82.6620245023407,82.89609252915737,82.62156624666173,81.91947342085535,82.59667934117111
112.79297,82.96850575315135,82.80003222167011,83.04804865392242,82.76375196983739,82.04452379608824,82.73909588839669
117.1875,83.04586311937283,82.8515333847885,83.12119749551121,82.83272535617147,82.1223284931659,82.80870582317603
120.11719,83.09919410974277,82.89669361434213,83.17671635647477,82.87846430458788,82.15269649759007,82.8554169514112
124.51172,83.10916330290924,82.91707967031071,83.19679053228383,82.89134058384272,82.18084359732379,82.87334698469604
128.90625,83.22310939926254,83.00901179999457,83.31221905929453,82.98491739169948,82.23527128967135,82.96897673139455
133.30078,83.30884973538193,83.08522155110019,83.40306204207306,83.06202052785123,82.28180097179163,83.04556548595968
139.16016,83.34544695982643,83.13353792990343,83.44690028606236,83.110174113644,82.36071643419879,83.09554095071894
143.55469,83.29705165439854,83.08941176050679,83.405598521924,83.06572595847827,82.3502466170077,83.05676116481254
147.94922,83.26092807383944,83.04093874447433,83.37605598913802,83.02109099530418,82.30021592674035,83.0155127765104
153.80859,83.2720237116695,83.03354027494689,83.39539825474189,83.0169551426438,82.27610033966528,83.01568227772178
159.66797,83.28572974600337,83.03654795412201,83.41863382102534,83.019378255933,82.25958570723111,83.02198415245573
165.52734,83.27069598452587,83.02938583933982,83.4230108656538,82.99939276284272,82.1727047655825,82.99984265035476
171.38672,83.26955923100256,83.03189021254326,83.4249780887285,83.00780337675812,82.22661123492773,83.01117489540846
177.24609,83.14197223758428,82.90496845664619,83.30908906624532,82.87930568457284,82.14689076069254,82.8941390183604
183.10547,83.03505148285149,82.83261516929032,83.23672206886117,82.76972314259939,82.00486771858712,82.79538565590187
188.96484,83.05547467068868,82.8899618471936,83.28825156572267,82.78920879525174,81.97204103767794,82.82118717380497
196.28906,83.00999266389218,82.77723393705028,83.23342166131968,82.70602110386892,81.92534205339075,82.75235070100416
203.61328,82.88057616980228,82.62739888006561,83.1160594535187,82.55625393068905,81.72316390951582,82.6055525561527
210.9375,82.7611414799086,82.48263300132618,83.00840921149447,82.40813402740022,81.56161026193757,82.47117439627276
218.26172,82.71709198106305,82.39003079562927,82.97471516311563,82.317255764896,81.3770442420612,82.38800448313978
225.58594,82.7809202917835,82.42266564202939,83.06562779934788,82.32608141259607,81.1075567751813,82.38979484797723
232.91016,82.90314771517316,82.52858664304944,83.16794307799978,82.47351895662135,81.2376830595533,82.51025969640268
241.69922,82.71110418353858,82.28629545681915,82.98205768621429,82.25822906846417,81.1271804603933,82.3172993649421
250.48828,82.7000487669447,82.2097544125613,82.9805431669027,82.21109904340084,81.05168569721896,82.27866202492947
259.27734,82.77524675703984,82.24065251749302,83.07330135275095,82.26691090649291,81.05482630532435,82.33469427501161
268.06641,82.6625184081945,82.10301734463462,82.97029175095501,82.14562051086575,80.97543800779752,82.22271274599419
276.85547,82.54779641868723,82.02822531689831,82.91071610439367,82.01113583271022,80.78751063652646,82.11420731261414
287.10938,82.62024597013104,82.0985539723701,83.0177971739624,82.03240520747009,80.54180386064459,82.13919382770044
297.36328,82.72314072130766,82.15785815373468,83.11776689381654,82.11887757608034,80.38710253402512,82.19469569008326
307.61719,82.74832141721609,82.10658145627792,83.1431184469997,82.13663821485744,80.35447251310258,82.19579010399588
319.33594,82.52478134021088,81.98367443835572,82.99141730918166,81.96220759001503,80.54123292939467,82.07505558023789
329.58984,82.76302890967017,82.11598660397695,83.25551417189509,82.08483855247474,80.4127113777258,82.22670914993509
341.30859,82.84258688104418,82.07347451735316,83.28854168548546,82.15092131534198,80.4249082995915,82.25940817153216
353.02734,82.76722078021096,81.86979864187244,83.22066353263585,81.99464703580315,80.18686307433506,82.12474396516966
366.21094,82.79122242880172,81.82032219920181,83.26784390565177,82.02537131501187,79.96080656650298,82.11102355797496
379.39453,82.78453499715555,81.78180633005012,83.32641344438815,81.9756922131367,79.88182700614632,82.09843545367603
392.57813,83.26720329243786,82.35481477906147,83.88208125910558,82.40323880179446,79.4752351041155,82.50984407712394
405.76172,83.02705556748225,82.08007419761203,83.56489470684578,82.2472758876265,79.85894490556979,82.32504942433486
420.41016,82.74684515264461,81.84861815891486,83.41690921174988,82.05496718088085,79.55200194050553,82.10385135035439
435.05859,82.92827860009722,82.04597322977318,83.61199244672503,82.21349028617254,79.13933345083191,82.22535421148595
451.17188,82.5854474851137,81.50697056319808,83.2874614773746,81.78984094375198,79.33907761694704,81.891574887682
465.82031,83.31611173005919,81.89269447297858,83.89320299568553,82.30966572341262,79.00285948616776,82.37537246799079
483.39844,82.92182993834464,81.52179599174518,83.57809444815794,81.9214947349488,78.77327397360199,82.02438258928224
499.51172,83.24086291126422,81.7977667001824,83.83455069419504,82.29432822660445,78.43013053513842,82.26986249704511
517.08984,82.75358341473934,81.22639304206726,83.33962452848593,81.9178843178009,78.42770132963467,81.83014603337176
536.13281,82.88754912443571,80.96564748356568,83.50857335235082,81.90666957068537,78.24029415680081,81.84944727909154
555.17578,82.95455709311341,81.08058526541106,83.76642122749814,82.10471393484694,77.80114570146122,81.96653841035447
574.21875,83.15712793137504,81.1304476461823,84.03631094921899,82.40693469298174,77.7590897664743,82.16775332964119
594.72656,83.17258026761988,81.17503324177736,84.00918650335532,82.54739007547022,78.2656307351364,82.23890130901017
615.23438,82.7907714122102,80.81149894237477,83.65306948243713,82.29558756812062,77.54512037976937,81.86992154506156
637.20703,82.96580756961748,80.71316324276239,83.85026628206292,82.49121850314393,77.59535185856883,82.0054133427702
659.17969,82.62005574005171,80.31436402368249,83.47474510203011,82.12872315596505,77.55390805809134,81.66185524967581
682.61719,82.47435049548909,79.91806548618183,83.38588779957782,82.0577753561555,77.19568813600071,81.49846240699085
707.51953,81.74959263615968,79.43811780019482,82.76695377896672,81.61569262323867,76.70741886776949,80.9236693748818
732.42188,82.13123406412073,79.21184841084498,83.04596772998964,81.90492584701694,76.47482239532799,81.12519286916518
757.32422,81.34777037984286,78.89104159541293,82.50566835426979,81.22075269689417,76.88780141013234,80.59344387266049
785.15625,82.29020591272487,79.46490399425345,83.38455180947497,81.8969585605613,76.6992631078981,81.3186732090923
811.52344,81.93890852998013,79.26693258342556,83.24448944999149,81.55220808239548,76.6401630803237,81.078339178447
840.82031,81.90033252303317,78.99068021793653,83.26134132022125,81.48287494114994,76.85094951497886,81.03929067800975
870.11719,82.66461191416128,79.18740004474729,84.07799402907104,81.9209300595481,76.68615891017184,81.61744024699864
900.87891,82.40133584114402,79.33472277749908,84.47298519067698,82.43968658835541,77.10403738700808,81.85502718648385
933.10547,82.99315502654521,78.93379439256555,84.81701811514245,82.24567993400282,77.59024777826849,82.0723160124872
965.33203,83.14949264857276,78.85674775254924,85.00893822180981,82.30532584423848,76.90025273409046,82.14452863735191
1000.4883,83.11238238642343,78.03237336431197,84.66469975056819,81.65302063133483,76.67368215571186,81.78324616368435
1035.6445,82.81110695544847,78.59020651783351,84.55692588052491,81.16376042971447,76.00468274359385,81.58033741666907
1072.2656,82.58071204080741,78.5924352188953,84.40596543531045,81.02874091054974,75.37260841867652,81.40172796586684
1108.8867,82.66327944981414,78.64320065850106,84.6503194787017,81.0717023675227,75.17027600107713,81.52562556861733
1148.4375,82.89544620714858,77.91235812288612,84.91860974695425,81.12157458028727,75.22515519551071,81.64200466694182
1189.4531,82.63857871195387,77.0422086929642,84.93014166191692,81.10324557398496,74.92687669820901,81.49465315610512
1230.4688,82.8158330227512,77.17365526327895,85.10305065198943,81.1064238572009,74.92395752025688,81.62753110570746
1274.4141,82.09051848920758,77.0183383942832,84.42763548262954,80.56684159737281,74.12342324315938,80.99766407408438
1319.8242,82.15984915020218,76.99402316787436,84.19796577530369,80.22838691675318,73.40085052749716,80.82545774486029
1366.6992,81.43981688371613,76.22919156061711,83.7455404798838,79.65315637122728,72.90993385271493,80.25337984813132
1413.5742,81.51520462660473,76.16587904744048,83.82427881800469,79.66239424227048,72.52628517221066,80.29180384831866
1463.3789,81.11260144511142,75.77954926684696,83.67914226318331,79.49569784940765,72.27252978232809,80.05396368318497
1516.1133,81.22285009309007,76.25373651184947,83.527809633071,79.24537590852358,71.52651263652157,79.98520136852791
1568.8477,80.9163886398136,75.95610222604154,83.09551413040877,78.52556214489725,71.34054923489643,79.55874347224801
1624.5117,80.53201116291085,75.32709040751824,82.8849697161398,78.62210728273959,71.0840437342904,79.31547091344808
1681.6406,80.42449317921654,76.0834946894704,83.20812365281955,78.74097212746541,71.58721371932167,79.53680308631151
1741.6992,80.4236806733152,75.80465764737214,83.61545458430905,78.96866997825504,72.02458780557765,79.75901483001823
1803.2227,80.55909552594754,75.08773738340857,83.77594198652724,78.86858537327814,71.673801604529,79.78940345258509
1866.2109,80.33167823363445,74.9145519384646,83.39621583985299,78.17668860368885,70.82956211691018,79.39867632006283
1932.1289,80.15593441531735,76.34959920750062,83.6873268930792,78.70262867786826,70.66722783224776,79.69769965256633
1999.5117,80.0821275812895,76.26162424659421,84.65816652444106,79.40209313269428,71.44193768060894,80.31456673182217
2069.8242,80.45616702146988,75.60830218849944,84.86817343540525,79.12358973068373,70.89830845172484,80.4000798892825
2143.0664,80.56771034520197,74.19354315406595,84.30370643418541,78.2593206190353,69.51545712675825,79.87249675386482
2219.2383,80.01691147130987,73.10517922230227,84.45019796952197,78.1735101155682,69.14182520428083,79.76195186982287
2296.875,79.67262390237097,73.59147432051032,85.01880650541531,77.71350111959967,68.10338788305569,79.98897358344828
2378.9063,79.60431008344361,73.12984546935068,84.73019426371008,76.92648189352381,66.6718046601048,79.66568061203866
2462.4023,79.22630376462605,71.72050620549828,84.16403110810549,76.12933179582109,66.54898941774454,79.08411818521954
2548.8281,79.05269027443015,71.4826603749132,84.22255065993815,75.8084294998882,65.30317040159055,79.03471268450528
2639.6484,79.04627718209778,72.29768362931557,83.7368935329566,74.49332456165587,64.5587955318799,78.62938704988964
2731.9336,78.71961226817369,73.18697530146233,83.86015735962259,75.27170766100707,65.35602895754906,78.75782160607972
2828.6133,78.99149166084393,73.14436050022752,83.93908709047935,75.65874548612649,65.2616122128012,78.89587826774799
2928.2227,79.28666739844718,73.56201869405388,83.90178786546096,75.34614414749669,64.95541864040266,78.92662621440024
3030.7617,79.07828259380052,74.46079673795658,83.6469293573569,75.45927363332811,65.88415598625032,78.80139095051918
3137.6953,79.15489721282172,74.19138823397091,84.03902112577842,76.07177444223437,66.49791712678555,79.10584021767265
3249.0234,80.18719919031874,74.94275819341243,83.63317068154528,76.09401790927572,67.11228880828705,79.16224020402447
3363.2813,80.12151759492505,77.15015652462051,83.78549324735536,76.59852756492343,66.99364812093535,79.48902396418354
3481.9336,80.59631036049419,78.07432182947045,83.81780943205713,77.26385848180236,67.79727667203893,79.81412306653381
3604.9805,81.49141269538879,79.16686496658521,83.48888750070083,77.72522458645798,68.64148395220455,80.11452184053637
3732.4219,82.24687612618276,80.71865501255103,83.13375432859527,78.21321929934209,69.17372447353019,80.53892684390121
3864.2578,82.34287875377129,81.00526015325144,82.87846138421791,78.32850939197029,69.5127432010176,80.5581134330148
4000.4883,82.28171120405261,81.23371496226346,83.13712919632123,79.39260820967662,69.5604252535327,80.81977909662965
4141.1133,82.87947086138911,81.39274684066726,82.59103616931242,79.28161780778566,68.79799036257252,80.83362478964412
4287.5977,83.25491413511787,81.12509128788403,82.81929789556588,79.58871509758006,68.6654166849801,81.00971897110122
4438.4766,83.28214293687672,81.30045086771415,82.65006143091759,79.28559404045774,69.03634284019085,80.9673696263586
4595.2148,83.29893851405518,81.34793256395662,82.90958151510489,79.4150809438629,69.10631750730076,81.07950291735634
4756.3477,82.99690500042503,81.74376255025572,83.18531670198647,79.63026210221388,69.4829593486671,81.19080123021897
4924.8047,82.40036411493718,81.97154108561128,82.80885193473586,79.92775577874632,69.83598215681981,81.00483102252102
5097.6563,83.07854215487744,82.23528305131735,82.99063939663378,80.52203254583482,69.84657715655081,81.41137352871432
5277.832,83.15371349533955,82.35743842287988,82.71467412557922,80.77393492359744,70.83397243918732,81.4442665918096
5463.8672,82.71902312612154,82.4005112494878,82.69927567657237,81.35487237803173,70.55382071038986,81.42999761012588
5657.2266,82.80172686388802,82.25831311666019,82.93478686226153,81.5289011802538,70.05602691027653,81.50881157420514
5856.4453,82.80310898323764,82.09239506532498,82.35746320844044,81.39100087482635,70.34868713986691,81.2920944238016
6062.9883,82.69593356918519,81.69300828225721,82.28238477720572,81.45357103605065,69.95165606307953,81.15600725236526
6276.8555,82.2226584616325,81.38474003304287,82.16822714192301,81.00933228503827,69.45359529116529,80.82146861293892
6498.0469,81.75499857857302,80.91313067625087,81.77096652588668,80.5371402375446,68.4549908755836,80.36401226964882
6726.5625,81.42970138481073,79.93543898789491,82.08728719686654,79.93022162282563,67.16729437033045,80.02452838988307
6963.8672,81.49206683782816,79.21555226062458,82.17388063326572,78.68505597157338,65.84202744511332,79.70485933069254
7209.9609,81.18519796619609,78.2237628877318,82.64900809854488,78.04787415143838,63.649952698800476,79.52265959551936
7464.8438,80.88912491057663,77.4736535862577,82.56172312221607,77.10912293178342,61.45000328751925,79.15691969701331
7727.0508,80.715557190727,76.78642695744755,82.07940382559147,76.21794472570384,59.6956717336501,78.69032835546895
7999.5117,80.3895346124108,76.37939330013843,82.04211761825488,75.74826382857549,59.202559831935446,78.4666321336884
8282.2266,80.3227907408096,76.2041601430753,82.25679000384926,75.40006444346764,58.16612518373361,78.48700662798329
8573.7305,80.17262013470284,75.7120331030282,82.22860520999251,74.83076595528728,57.31970439477669,78.3164005718194
