Freq,Floor Bounce,Ceiling Bounce,Front Wall Bounce,Side Wall Bounce,Rear Wall Bounce,Total Early Reflection
20.507813,59.17464104760758,59.09884530036466,59.21119840973431,59.031028834227655,58.37039316519569,58.987911163300666
21.972656,60.39120012865415,60.31735554203625,60.42318524888002,60.24912019430754,59.60882394892771,60.20802071797145
23.4375,61.35022486174937,61.339473318916944,61.41088264869684,61.25522683859124,60.7238069272138,61.2229873263086
24.902344,62.502101958086584,62.33765184508289,62.541147761834324,62.27153394283182,61.19504317529929,62.19651628727574
26.367188,63.1329540963207,63.038607991021635,63.17333330950099,62.96936225123986,62.18730456541262,62.914955581684595
27.832031,64.03324127976647,63.928079046350874,64.07192480367699,63.86037698398684,63.06683220711254,63.80727376363973
29.296875,64.88625559716107,64.7726609660558,64.92178966422138,64.71157445458383,63.918718349781315,64.6573274732454
30.761719,65.62113393775765,65.51364884813482,65.65997226492532,65.4473839054689,64.6616450454552,65.39571045550962
32.226563,66.33230057797236,66.20985188200615,66.36732664129846,66.1551205768194,65.32473028994731,66.09420891644841
33.691406,66.94368918409022,66.85420082698091,66.97619184595837,66.8051693105014,66.16448949812967,66.75868811795016
35.15625,67.67309087075826,67.57681783863045,67.70270601025004,67.52825790923845,66.89068917651085,67.48426154813147
36.621094,68.34154894588352,68.24208347303325,68.36792720795013,68.19583108606712,67.58370205951549,68.1555031851964
38.085938,68.98985763535715,68.89496142495321,69.0196383248424,68.84604997217892,68.22958605714412,68.80541989024701
39.550781,69.63327401611237,69.53087398682237,69.66735216165414,69.48179122560519,68.81608022272381,69.43673833724274
41.015625,70.24623878418011,70.13707454754292,70.27527202773828,70.0963474917738,69.44371077674144,70.05012681292878
42.480469,70.80315612501589,70.69793672735011,70.83453918989132,70.65251572097242,70.00252898516787,70.60852358291996
43.945313,71.35167009362024,71.24099654251765,71.38229360390365,71.19557017075373,70.53574397253934,71.1520028589661
45.410156,71.92034063276077,71.8146520684265,71.95409166462841,71.76717865888973,71.10956170070055,71.72383776948924
46.875,72.46336261667757,72.35901773173384,72.49823177415526,72.30654558751141,71.64615211922917,72.26551597313872
48.339844,72.98504182241042,72.87757978776808,73.01991468990028,72.82818580813782,72.16588386323384,72.78621356192166
51.269531,73.99797696241752,73.88820914407867,74.03612380320858,73.83740018212784,73.1555892521831,73.79459887741703
52.734375,74.49293361374633,74.38389010544662,74.53235985561905,74.33205495473378,73.64748974775573,74.28938572394907
54.199219,74.96897394531376,74.8577931134446,75.00900374632282,74.80569498980567,74.11375174325347,74.76294652379772
55.664063,75.42290945185587,75.30760263892522,75.46393482562202,75.25677484591851,74.54548647395515,75.2118563653518
58.59375,76.28517693112173,76.15538828217832,76.32268780522858,76.11923529121714,75.40274660408664,76.06960136181337
60.058594,76.66427415977567,76.54367743342108,76.7015315866338,76.50450353861491,75.83343274592099,76.46065660920385
62.988281,77.47877596847476,77.34932595982691,77.5223329092038,77.29713512579467,76.5571913560696,77.25468759463705
64.453125,77.89968714772512,77.76394401855096,77.94379413135725,77.7193683047959,76.95106801905139,77.6701035516945
67.382813,78.57449464063188,78.4493167956387,78.61666041084526,78.41419341106946,77.70914198965401,78.36492027390376
68.847656,78.91531613538291,78.79625960832459,78.9571435370975,78.75973714349801,78.09963233053459,78.7164523232621
71.777344,79.58139382336543,79.45950206347025,79.62398672444445,79.42084043366187,78.78014045324828,79.3836181941037
74.707031,80.2111071824216,80.07516556516013,80.25277605952125,80.03460911172301,79.35664876950516,79.99783926548355
77.636719,80.75500923639488,80.62899056993491,80.80221741929898,80.59280811690964,79.93950634333717,80.55456092608611
79.101563,81.03003251713909,80.90364643840361,81.078921101067,80.86523819157992,80.20880382344698,80.82834879347179
82.03125,81.49669209637996,81.36418318425117,81.54603061041233,81.32791871234393,80.6738167207862,81.29277029581718
84.960938,81.85624868876313,81.71757510324709,81.9064723410006,81.68330163813708,81.02579349011003,81.64910631881165
87.890625,82.20343613152644,82.05707747628311,82.25394413169913,82.02678045248861,81.37192187255594,81.99386262732467
90.820313,82.519378508853,82.36456819168453,82.56998446247488,82.33763016077692,81.67451842201525,82.30477428109243
95.214844,82.89100252088147,82.733305268737,82.94567411944095,82.70617153535396,82.04768286428128,82.67632335907429
98.144531,83.11702793156968,82.9681398589757,83.17959264886932,82.93525337727448,82.2778787882601,82.90715194960995
101.07422,83.32490948301259,83.18009170885972,83.39495886973467,83.14449758161943,82.47918848645514,83.11659252571123
105.46875,83.54900133623227,83.39417611959958,83.62158427100903,83.3615651396177,82.68445124229709,83.33453430809024
108.39844,83.68553175528817,83.53030033567403,83.7643683624907,83.48984207999506,82.78774925418868,83.46495517450444
112.79297,83.83678158648468,83.66830805500344,83.91632448725575,83.63202780317071,82.91279962942157,83.60737172173002
117.1875,83.91413895270615,83.71980921812182,83.98947332884454,83.7010011895048,82.99060432649922,83.67698165650935
120.11719,83.9674699430761,83.76496944767545,84.0449921898081,83.74674013792121,83.0209723309234,83.72369278474453
124.51172,83.97743913624257,83.78535550364404,84.06506636561716,83.75961641717605,83.04911943065711,83.74162281802937
128.90625,84.09138523259587,83.8772876333279,84.18049489262786,83.85319322503281,83.10354712300467,83.83725256472788
133.30078,84.17712556871525,83.95349738443352,84.27133787540639,83.93029636118456,83.15007680512495,83.91384131929301
139.16016,84.21372279315976,84.00181376323675,84.31517611939569,83.97844994697734,83.22899226753212,83.96381678405227
143.55469,84.16532748773187,83.95768759384012,84.27387435525733,83.9340017918116,83.21852245034103,83.92503699814587
147.94922,84.12920390717277,83.90921457780766,84.24433182247135,83.8893668286375,83.16849176007368,83.88378860984373
153.80859,84.14029954500283,83.90181610828022,84.26367408807522,83.88523097597712,83.1443761729986,83.88395811105511
159.66797,84.1540055793367,83.90482378745534,84.28690965435867,83.88765408926633,83.12786154056444,83.89025998578906
165.52734,84.1389718178592,83.89766167267315,84.29128669898712,83.86766859617605,83.04098059891582,83.8681184836881
171.38672,84.13783506433589,83.90016604587659,84.29325392206182,83.87607921009145,83.09488706826106,83.87945072874179
177.24609,84.01024807091761,83.77324428997952,84.17736489957865,83.74758151790617,83.01516659402587,83.76241485169373
183.10547,83.90332731618481,83.70089100262365,84.1049979021945,83.63799897593272,82.87314355192045,83.6636614892352
188.96484,83.92375050402201,83.75823768052693,84.156527399056,83.65748462858507,82.84031687101127,83.6894630071383
196.28906,83.8782684972255,83.64550977038361,84.10169749465301,83.57429693720225,82.79361788672408,83.62062653433749
203.61328,83.74885200313561,83.49567471339894,83.98433528685203,83.42452976402238,82.59143974284915,83.47382838948603
210.9375,83.62941731324193,83.3509088346595,83.8766850448278,83.27640986073355,82.4298860952709,83.33945022960609
218.26172,83.58536781439638,83.2583066289626,83.84299099644896,83.18553159822933,82.24532007539453,83.25628031647311
225.58594,83.64919612511683,83.29094147536271,83.93390363268121,83.1943572459294,81.97583260851462,83.25807068131056
232.91016,83.77142354850649,83.39686247638276,84.03621891133311,83.34179478995468,82.10595889288663,83.37853552973601
241.69922,83.57938001687191,83.15457129015248,83.85033351954762,83.1265049017975,81.99545629372663,83.18557519827543
250.48828,83.56832460027803,83.07803024589462,83.84881900023603,83.07937487673416,81.91996153055229,83.1469378582628
259.27734,83.64352259037317,83.10892835082635,83.94157718608427,83.13518673982624,81.92310213865768,83.20297010834494
268.06641,83.53079424152783,82.97129317796795,83.83856758428834,83.01389634419908,81.84371384113085,83.09098857932752
276.85547,83.41607225202056,82.89650115023164,83.778991937727,82.87941166604355,81.65578646985979,82.98248314594747
287.10938,83.48852180346437,82.96682980570343,83.88607300729574,82.90068104080342,81.41007969397792,83.00746966103377
297.36328,83.59141655464099,83.02613398706801,83.98604272714987,82.98715340941366,81.25537836735845,83.06297152341659
307.61719,83.61659725054942,82.97485728961125,84.01139428033302,83.00491404819077,81.2227483464359,83.0640659373292
319.33594,83.39305717354421,82.85195027168905,83.85969314251498,82.83048342334835,81.409508762728,82.94333141357122
329.58984,83.6313047430035,82.98426243731028,84.12379000522841,82.95311438580806,81.28098721105913,83.09498498326842
341.30859,83.71086271437751,82.94175035068649,84.15681751881878,83.0191971486753,81.29318413292482,83.12768400486549
353.02734,83.63549661354429,82.73807447520576,84.08893936596918,82.86292286913648,81.0551389076684,82.99301979850298
366.21094,83.65949826213505,82.68859803253514,84.1361197389851,82.8936471483452,80.82908239983631,82.97929939130829
379.39453,83.65281083048887,82.65008216338344,84.19468927772148,82.84396804647002,80.75010283947965,82.96671128700936
392.57813,84.13547912577118,83.2230906123948,84.7503570924389,83.27151463512779,80.34351093744883,83.37811991045727
405.76172,83.89533140081558,82.94835003094536,84.4331705401791,83.11555172095983,80.72722073890311,83.19332525766819
420.41016,83.61512098597794,82.71689399224819,84.28518504508321,82.92324301421418,80.42027777383886,82.97212718368772
435.05859,83.79655443343054,82.91424906310651,84.48026828005835,83.08176611950587,80.00760928416524,83.09363004481928
451.17188,83.45372331844703,82.37524639653141,84.15573731070793,82.65811677708531,80.20735345028037,82.75985072101533
465.82031,84.18438756339252,82.7609703063119,84.76147882901886,83.17794155674595,79.8711353195011,83.24364830132411
483.39844,83.79010577167797,82.39007182507851,84.44637028149127,82.78977056828212,79.64154980693532,82.89265842261557
499.51172,84.10913874459754,82.66604253351572,84.70282652752837,83.16260405993778,79.29840636847175,83.13813833037844
517.08984,83.62185924807267,82.09466887540059,84.20790036181926,82.78616015113423,79.295977162968,82.69842186670509
536.13281,83.75582495776904,81.833923316899,84.37684918568415,82.7749454040187,79.10856999013414,82.71772311242486
555.17578,83.82283292644674,81.94886109874439,84.63469706083147,82.97298976818027,78.66942153479455,82.8348142436878
574.21875,84.02540376470837,81.99872347951563,84.90458678255231,83.27521052631506,78.62736559980763,83.03602916297451
594.72656,84.0408561009532,82.04330907511068,84.87746233668865,83.41566590880355,79.13390656846973,83.1071771423435
615.23438,83.65904724554353,81.6797747757081,84.52134531577046,83.16386340145395,78.4133962131027,82.73819737839489
637.20703,83.83408340295081,81.58143907609572,84.71854211539625,83.35949433647725,78.46362769190216,82.87368917610353
659.17969,83.48833157338504,81.18263985701581,84.34302093536344,82.99699898929838,78.42218389142467,82.53013108300914
682.61719,83.34262632882242,80.78634131951516,84.25416363291114,82.92605118948883,78.06396396933404,82.36673824032418
707.51953,82.617868469493,80.30639363352815,83.63522961230005,82.483968456572,77.57569470110282,81.79194520821513
732.42188,82.99950989745406,80.08012424417831,83.91424356332297,82.77320168035027,77.34309822866132,81.9934687024985
757.32422,82.21604621317618,79.75931742874626,83.37394418760312,82.0890285302275,77.75607724346567,81.46171970599381
785.15625,83.1584817460582,80.33317982758678,84.2528276428083,82.76523439389463,77.56753894123143,82.18694904242562
811.52344,82.80718436331345,80.13520841675889,84.11276528332482,82.42048391572881,77.50843891365703,81.94661501178032
840.82031,82.7686083563665,79.85895605126986,84.12961715355458,82.35115077448327,77.7192253483122,81.90756651134308
870.11719,83.53288774749461,80.05567587808062,84.94626986240436,82.78920589288143,77.55443474350517,82.48571608033197
900.87891,83.26961167447735,80.20299861083241,85.34126102401031,83.30796242168874,77.9723132203414,82.72330301981718
933.10547,83.86143085987854,79.80207022589887,85.68529394847577,83.11395576733615,78.45852361160182,82.94059184582053
965.33203,84.01776848190609,79.72502358588257,85.87721405514314,83.17360167757181,77.76852856742379,83.01280447068524
1000.4883,83.98065821975676,78.9006491976453,85.53297558390152,82.52129646466815,77.54195798904519,82.65152199701768
1035.6445,83.6793827887818,79.45848235116684,85.42520171385824,82.0320362630478,76.87295857692718,82.4486132500024
1072.2656,83.44898787414074,79.46071105222863,85.27424126864378,81.89701674388307,76.24088425200985,82.27000379920017
1108.8867,83.53155528314747,79.51147649183439,85.51859531203503,81.93997820085603,76.03855183441046,82.39390140195066
1148.4375,83.76372204048191,78.78063395621945,85.78688558028757,81.9898504136206,76.09343102884404,82.51028050027514
1189.4531,83.5068545452872,77.91048452629752,85.79841749525025,81.97152140731829,75.79515253154234,82.36292898943844
1230.4688,83.68410885608453,78.04193109661227,85.97132648532276,81.97469969053422,75.7922333535902,82.49580693904079
1274.4141,82.95879432254091,77.88661422761653,85.29591131596287,81.43511743070614,74.99169907649271,81.86593990741771
1319.8242,83.0281249835355,77.86229900120769,85.06624160863701,81.09666275008651,74.26912636083048,81.69373357819362
1366.6992,82.30809271704946,77.09746739395044,84.61381631321713,80.52143220456061,73.77820968604826,81.12165568146465
1413.5742,82.38348045993806,77.03415488077381,84.69255465133801,80.53067007560381,73.39456100554399,81.160079681652
1463.3789,81.98087727844475,76.64782510018028,84.54741809651664,80.36397368274098,73.14080561566142,80.9222395165183
1516.1133,82.0911259264234,77.1220123451828,84.39608546640433,80.11365174185691,72.3947884698549,80.85347720186124
1568.8477,81.78466447314693,76.82437805937487,83.9637899637421,79.39383797823058,72.20882506822976,80.42701930558134
1624.5117,81.40028699624418,76.19536624085157,83.75324554947314,79.49038311607292,71.95231956762373,80.18374674678141
1681.6406,81.29276901254987,76.95177052280373,84.07639948615288,79.60924796079874,72.455489552655,80.40507891964484
1741.6992,81.29195650664853,76.67293348070547,84.48373041764238,79.83694581158836,72.89286363891098,80.62729066335156
1803.2227,81.42737135928087,75.9560132167419,84.64421781986057,79.73686120661147,72.54207743786233,80.65767928591842
1866.2109,81.19995406696778,75.78282777179793,84.26449167318631,79.04496443702217,71.69783795024351,80.26695215339616
1932.1289,81.02421024865068,77.21787504083395,84.55560272641253,79.57090451120159,71.53550366558109,80.56597548589966
1999.5117,80.95040341462283,77.12990007992754,85.52644235777439,80.2703689660276,72.31021351394227,81.1828425651555
2069.8242,81.32444285480321,76.47657802183276,85.73644926873858,79.99186556401706,71.76658428505817,81.26835572261582
2143.0664,81.4359861785353,75.06181898739928,85.17198226751874,79.12759645236862,70.38373296009158,80.74077258719815
2219.2383,80.8851873046432,73.9734550556356,85.3184738028553,79.04178594890153,70.01010103761416,80.6302277031562
2296.875,80.5408997357043,74.45975015384364,85.88708233874864,78.581776952933,68.97166371638902,80.85724941678161
2378.9063,80.47258591677694,73.99812130268401,85.5984700970434,77.79475772685714,67.54008049343813,80.53395644537198
2462.4023,80.09457959795938,72.58878203883161,85.03230694143882,76.99760762915442,67.41726525107786,79.95239401855287
2548.8281,79.92096610776348,72.35093620824652,85.09082649327148,76.67670533322153,66.17144623492388,79.90298851783861
2639.6484,79.91455301543111,73.1659594626489,84.60516936628993,75.3616003949892,65.42707136521322,79.49766288322297
2731.9336,79.58788810150702,74.05525113479565,84.72843319295592,76.1399834943404,66.22430479088239,79.62609743941304
2828.6133,79.85976749417726,74.01263633356085,84.80736292381268,76.52702131945982,66.12988804613452,79.76415410108132
2928.2227,80.1549432317805,74.4302945273872,84.77006369879429,76.21441998083002,65.82369447373598,79.79490204773357
3030.7617,79.94655842713385,75.32907257128991,84.51520519069022,76.32754946666144,66.75243181958365,79.6696667838525
3137.6953,80.02317304615505,75.05966406730424,84.90729695911175,76.9400502755677,67.36619296011888,79.97411605100598
3249.0234,81.05547502365206,75.81103402674576,84.50144651487861,76.96229374260905,67.98056464162038,80.0305160373578
3363.2813,80.98979342825838,78.01843235795384,84.65376908068869,77.46680339825676,67.86192395426868,80.35729979751687
3481.9336,81.46458619382751,78.94259766280378,84.68608526539046,78.13213431513569,68.66555250537226,80.68239889986714
3604.9805,82.35968852872212,80.03514079991854,84.35716333403415,78.59350041979131,69.50975978553788,80.9827976738697
3732.4219,83.11515195951608,81.58693084588435,84.0020301619286,79.08149513267541,70.04200030686351,81.40720267723454
3864.2578,83.21115458710462,81.87353598658477,83.74673721755124,79.19678522530361,70.38101903435093,81.42638926634812
4000.4883,83.14998703738594,82.10199079559679,84.00540502965455,80.26088404300995,70.42870108686603,81.68805492996297
4141.1133,83.74774669472244,82.26102267400059,83.45931200264575,80.149893641119,69.66626619590585,81.70190062297745
4287.5977,84.1231899684512,81.99336712121736,83.68757372889921,80.45699093091339,69.53369251831343,81.87799480443455
4438.4766,84.15041877021005,82.16872670104748,83.51833726425092,80.15386987379107,69.90461867352418,81.83564545969193
4595.2148,84.16721434738851,82.21620839728995,83.77785734843822,80.28335677719623,69.97459334063409,81.94777875068966
4756.3477,83.86518083375836,82.61203838358905,84.0535925353198,80.4985379355472,70.35123518200042,82.0590770635523
4924.8047,83.2686399482705,82.8398169189446,83.67712776806918,80.79603161207964,70.70425799015314,81.87310685585435
5097.6563,83.94681798821077,83.10355888465068,83.85891522996711,81.39030837916815,70.71485298988414,82.27964936204765
5277.832,84.02198932867287,83.22571425621321,83.58294995891255,81.64221075693077,71.70224827252065,82.31254242514292
5463.8672,83.58729895945487,83.26878708282113,83.5675515099057,82.22314821136506,71.42209654372319,82.29827344345921
5657.2266,83.67000269722135,83.12658894999352,83.80306269559486,82.39717701358713,70.92430274360986,82.37708740753847
5856.4453,83.67138481657096,82.96067089865831,83.22573904177376,82.25927670815967,71.21696297320024,82.16037025713493
6062.9883,83.56420940251851,82.56128411559054,83.15066061053905,82.32184686938398,70.81993189641285,82.02428308569858
6276.8555,83.09093429496583,82.2530158663762,83.03650297525634,81.8776081183716,70.32187112449861,81.68974444627224
6498.0469,82.62327441190635,81.7814065095842,82.63924235922,81.40541607087793,69.32326670891693,81.23228810298215
6726.5625,82.29797721814406,80.80371482122824,82.95556303019987,80.79849745615896,68.03557020366378,80.8928042232164
6963.8672,82.36034267116149,80.0838280939579,83.04215646659905,79.5533318049067,66.71030327844664,80.57313516402587
7209.9609,82.05347379952941,79.09203872106512,83.51728393187821,78.9161499847717,64.5182285321338,80.39093542885269
7464.8438,81.75740074390995,78.34192941959103,83.4299989555494,77.97739876511675,62.31827912085258,80.02519553034664
7727.0508,81.58383302406033,77.65470279078087,82.9476796589248,77.08622055903717,60.56394756698343,79.55860418880228
7999.5117,81.25781044574413,77.24766913347176,82.9103934515882,76.61653966190882,60.070835665268774,79.33490796702173
8282.2266,81.19106657414292,77.07243597640863,83.12506583718259,76.26834027680097,59.03440101706694,79.35528246131662
8573.7305,81.04089596803617,76.58030893636153,83.09688104332584,75.6990417886206,58.18798022811002,79.18467640515273
