Freq "Rear Wall Bounce"
20.507813 58.37039316519569
21.972656 59.60882394892771
23.4375 60.7238069272138
24.902344 61.19504317529929
26.367188 62.18730456541262
27.832031 63.06683220711254
29.296875 63.918718349781315
30.761719 64.6616450454552
32.226563 65.32473028994731
33.691406 66.16448949812967
35.15625 66.89068917651085
36.621094 67.58370205951549
38.085938 68.22958605714412
39.550781 68.81608022272381
41.015625 69.44371077674144
42.480469 70.00252898516787
43.945313 70.53574397253934
45.410156 71.10956170070055
46.875 71.64615211922917
48.339844 72.16588386323384
51.269531 73.1555892521831
52.734375 73.64748974775573
54.199219 74.11375174325347
55.664063 74.54548647395515
58.59375 75.40274660408664
60.058594 75.83343274592099
62.988281 76.5571913560696
64.453125 76.95106801905139
67.382813 77.70914198965401
68.847656 78.09963233053459
71.777344 78.78014045324828
74.707031 79.35664876950516
77.636719 79.93950634333717
79.101563 80.20880382344698
82.03125 80.6738167207862
84.960938 81.02579349011003
87.890625 81.37192187255594
90.820313 81.67451842201525
95.214844 82.04768286428128
98.144531 82.2778787882601
101.07422 82.47918848645514
105.46875 82.68445124229709
108.39844 82.78774925418868
112.79297 82.91279962942157
117.1875 82.99060432649922
120.11719 83.0209723309234
124.51172 83.04911943065711
128.90625 83.10354712300467
133.30078 83.15007680512495
139.16016 83.22899226753212
143.55469 83.21852245034103
147.94922 83.16849176007368
153.80859 83.1443761729986
159.66797 83.12786154056444
165.52734 83.04098059891582
171.38672 83.09488706826106
177.24609 83.01516659402587
183.10547 82.87314355192045
188.96484 82.84031687101127
196.28906 82.79361788672408
203.61328 82.59143974284915
210.9375 82.4298860952709
218.26172 82.24532007539453
225.58594 81.97583260851462
232.91016 82.10595889288663
241.69922 81.99545629372663
250.48828 81.91996153055229
259.27734 81.92310213865768
268.06641 81.84371384113085
276.85547 81.65578646985979
287.10938 81.41007969397792
297.36328 81.25537836735845
307.61719 81.2227483464359
319.33594 81.409508762728
329.58984 81.28098721105913
341.30859 81.29318413292482
353.02734 81.0551389076684
366.21094 80.82908239983631
379.39453 80.75010283947965
392.57813 80.34351093744883
405.76172 80.72722073890311
420.41016 80.42027777383886
435.05859 80.00760928416524
451.17188 80.20735345028037
465.82031 79.8711353195011
483.39844 79.64154980693532
499.51172 79.29840636847175
517.08984 79.295977162968
536.13281 79.10856999013414
555.17578 78.66942153479455
574.21875 78.62736559980763
594.72656 79.13390656846973
615.23438 78.4133962131027
637.20703 78.46362769190216
659.17969 78.42218389142467
682.61719 78.06396396933404
707.51953 77.57569470110282
732.42188 77.34309822866132
757.32422 77.75607724346567
785.15625 77.56753894123143
811.52344 77.50843891365703
840.82031 77.7192253483122
870.11719 77.55443474350517
900.87891 77.9723132203414
933.10547 78.45852361160182
965.33203 77.76852856742379
1000.4883 77.54195798904519
1035.6445 76.87295857692718
1072.2656 76.24088425200985
1108.8867 76.03855183441046
1148.4375 76.09343102884404
1189.4531 75.79515253154234
1230.4688 75.7922333535902
1274.4141 74.99169907649271
1319.8242 74.26912636083048
1366.6992 73.77820968604826
1413.5742 73.39456100554399
1463.3789 73.14080561566142
1516.1133 72.3947884698549
1568.8477 72.20882506822976
1624.5117 71.95231956762373
1681.6406 72.455489552655
1741.6992 72.89286363891098
1803.2227 72.54207743786233
1866.2109 71.69783795024351
1932.1289 71.53550366558109
1999.5117 72.31021351394227
2069.8242 71.76658428505817
2143.0664 70.38373296009158
2219.2383 70.01010103761416
2296.875 68.97166371638902
2378.9063 67.54008049343813
2462.4023 67.41726525107786
2548.8281 66.17144623492388
2639.6484 65.42707136521322
2731.9336 66.22430479088239
2828.6133 66.12988804613452
2928.2227 65.82369447373598
3030.7617 66.75243181958365
3137.6953 67.36619296011888
3249.0234 67.98056464162038
3363.2813 67.86192395426868
3481.9336 68.66555250537226
3604.9805 69.50975978553788
3732.4219 70.04200030686351
3864.2578 70.38101903435093
4000.4883 70.42870108686603
4141.1133 69.66626619590585
4287.5977 69.53369251831343
4438.4766 69.90461867352418
4595.2148 69.97459334063409
4756.3477 70.35123518200042
4924.8047 70.70425799015314
5097.6563 70.71485298988414
5277.832 71.70224827252065
5463.8672 71.42209654372319
5657.2266 70.92430274360986
5856.4453 71.21696297320024
6062.9883 70.81993189641285
6276.8555 70.32187112449861
6498.0469 69.32326670891693
6726.5625 68.03557020366378
6963.8672 66.71030327844664
7209.9609 64.5182285321338
7464.8438 62.31827912085258
7727.0508 60.56394756698343
7999.5117 60.070835665268774
8282.2266 59.03440101706694
8573.7305 58.18798022811002
8876.9531 57.36235273524407
9188.9648 56.94821370754134
9514.1602 56.834200650879566
9849.6094 57.00855176254616
10196.777 57.21889694043965
10555.664 57.35810079639474
10927.734 58.11697539650693
11312.988 58.50997331937994
11712.891 58.34474360342365
12125.977 58.132035340936866
12553.711 57.84211156766314
12996.094 56.46607182491273
13454.59 55.76084514601801
13929.199 57.27838007815693
14419.922 58.34609678947335
14928.223 58.33362147615806
15455.566 58.43367225900589
16000.488 57.67333057841388
16564.453 56.7486502968092
17148.926 53.37599389932002
17752.441 49.25892354281997
18379.395 43.40630858406719
19026.855 48.66569419066185
19697.754 49.65125258087453
19999.512 49.306786071029094
