Freq "Sound Power"
20.5078 54.488200055171546
21.9727 56.1202581157072
23.4375 57.64221399828779
24.9023 59.830504595831314
26.3672 61.429299228489555
27.832 63.147280817356815
29.2969 64.81342360360956
30.7617 66.42609769321635
32.2266 68.24558985251439
33.6914 69.72991027875146
35.1563 71.34615699159768
36.6211 72.84702111957169
38.0859 74.23738256821187
39.5508 75.53869046423056
41.0156 76.52296202589712
42.4805 77.41611151851413
43.9453 78.29934489901733
45.4102 78.91841961710976
46.875 79.34330192313475
48.3398 79.76032197166674
51.2695 80.496803824634
52.7344 80.7429760071141
54.1992 80.98142241202369
55.6641 81.22417605649433
58.5938 81.65201074417465
60.0586 81.83785352786924
62.9883 82.32410453584205
64.4531 82.48289503291798
67.3828 82.65394229739941
68.8477 82.64243469191537
71.7773 82.85673251752706
74.707 83.14037525124714
77.6367 82.99178177655158
79.1016 82.93044595134144
82.0313 83.08601323016725
84.9609 83.2226833972133
87.8906 83.09326452876479
90.8203 82.89207786156881
95.2148 83.45510042619658
98.1445 83.00909701393729
101.074 83.15783531534665
105.469 83.19619447832217
108.398 83.2104762993014
112.793 83.38333126799884
117.188 83.35326858153894
120.117 83.40293288126428
124.512 83.00965560189923
128.906 82.60048764446103
133.301 82.63421314987093
139.16 82.58419438182837
143.555 82.39807996903588
147.949 82.24687349448935
153.809 82.09715244670477
159.668 82.12958978895392
165.527 82.13046836716119
171.387 82.1015363316577
177.246 82.00234758247899
183.105 81.87230414520135
188.965 81.88476244914528
196.289 82.07082747759189
203.613 81.96371644734907
210.938 81.92771869486211
218.262 82.07534236122268
225.586 82.18319746216021
232.91 82.3569296140702
241.699 82.48923305538199
250.488 82.66991172643355
259.277 82.9534058443999
268.066 82.72243262189464
276.855 82.75039293987814
287.109 82.6661473897449
297.363 82.44719882643946
307.617 82.67525541153306
319.336 82.2522560235072
329.59 82.23979821261689
341.309 81.85841606896642
353.027 81.50136849461947
366.211 81.49622972939792
379.395 81.80235441951501
392.578 81.42796017418539
405.762 81.13908813646157
420.41 81.4081307188243
435.059 81.33968203594016
451.172 81.33701744240781
465.82 81.16232484038619
483.398 80.92424155138262
499.512 80.86297508303527
517.09 80.61970212663562
536.133 80.61580559345833
555.176 80.79766907786006
574.219 80.97779033764564
594.727 80.81984283746287
615.234 80.80861503845925
637.207 80.92206796117475
659.18 81.12246511465922
682.617 81.00111723361016
707.52 81.01612802733638
732.422 80.87615981267638
757.324 80.49417128714859
785.156 80.48709636685125
811.523 80.4640864070268
840.82 80.38082313386903
870.117 80.49161255689822
900.879 80.51261047756145
933.105 80.67882988260503
965.332 80.48857743349114
1000.49 80.48225931700475
1035.64 80.09113755512507
1072.27 79.77393010825494
1108.89 79.5906388062216
1148.44 79.57939040753513
1189.45 79.44939520087769
1230.47 79.81571716422266
1274.41 80.01606272872186
1319.82 80.20864624620039
1366.7 80.24408480059351
1413.57 80.26683130579107
1463.38 80.48212090983696
1516.11 80.12739959405467
1568.85 79.907083071896
1624.51 79.45904965746601
1681.64 78.63018147503142
1741.7 78.4939186016856
1803.22 78.64141486695905
1866.21 78.71369984608418
1932.13 78.59324567686573
1999.51 78.50611454841778
2069.82 78.80545798173762
2143.07 78.47780050218543
2219.24 77.97473080818216
2296.88 77.96490053720582
2378.91 78.78359208103514
2462.4 78.35272276572542
2548.83 78.11270205213674
2639.65 78.05867231708928
2731.93 77.83140207151828
2828.61 77.32230285336976
2928.22 76.93914567974566
3030.76 76.93951246553534
3137.7 77.18182897405855
3249.02 77.19920857840246
3363.28 77.07627383249019
3481.93 76.8551091917432
3604.98 76.61297293240435
3732.42 76.148177710621
3864.26 76.07306489151209
4000.49 75.74564838669079
4141.11 75.5977856335576
4287.6 75.47060765910109
4438.48 75.10931244901016
4595.21 74.28768492247039
4756.35 73.93352680481635
4924.8 73.9459196079094
5097.66 74.7888088181764
5277.83 75.2151897848287
5463.87 75.35483528479456
5657.23 75.40090650904759
5856.45 75.4372255761173
6062.99 75.48142926485787
6276.86 75.69385325783577
6498.05 75.39352118703434
6726.56 75.17104763074069
6963.87 74.86214243019056
7209.96 74.48074673636933
7464.84 73.88760897588753
7727.05 73.57099987290863
7999.51 73.4241347442744
8282.23 73.9123819928124
8573.73 74.4735535171676
8876.95 74.67412088149734
9188.96 74.6627476702076
9514.16 74.40597236796904
9849.61 74.1714916457151
10196.8 73.94515376247446
10555.7 74.0806083919361
10927.7 74.24663652180627
11313.0 73.8560567189306
11712.9 73.56426571764032
12126.0 73.16621140193762
12553.7 73.04283506849245
12996.1 72.69969481188122
13454.6 72.48061261455453
13929.2 71.93344530033906
14419.9 71.42114880238736
14928.2 71.37539819563244
15455.6 71.42272741345775
16000.5 71.05643491914502
16564.5 70.84551269801267
17148.9 71.15933428481631
17752.4 71.03963629081281
18379.4 70.62883488761699
19026.9 69.59747648711861
19697.8 68.28888140355036
19999.5 67.98094435880202
