Freq,On Axis,Listening Window,Sound Power,Early Reflections,Early Reflections DI,Sound Power DI,DI offset
20.0,38.29783647798742,40.727316618200305,41.15997406623457,40.73037774767532,49.996938870524986,49.56734255196574,50
20.2909,37.537836477987426,39.936841761776705,40.32396053771352,39.925532282603925,50.01130947917278,49.61288122406319,50
20.586,36.50683647798742,38.85546099511079,39.20800678577261,38.836032903965744,50.019428091145045,49.64745420933818,50
20.8855,35.39983647798739,37.713436923026975,38.018295614598784,37.67832385996532,50.03511306306166,49.69514130842819,50
21.1893,34.67783647798741,36.95331227978808,37.21083589798822,36.90193611768545,50.05137616210263,49.74247638179986,50
21.4975,35.05783647798741,37.37268974474857,37.56818487905686,37.29493573834954,50.07775400639903,49.80450486569171,50
21.8102,36.1688364779874,38.45627536402803,38.59292678435888,38.351338073384866,50.104937290643164,49.86334857966915,50
22.1274,37.21883647798741,39.44509135471337,39.53010775109031,39.31955809229994,50.12553326241343,49.91498360362306,50
22.4492,37.94883647798743,40.162998488938754,40.195569524794124,40.01984667733298,50.143151811605776,49.96742896414463,50
22.7758,38.193836477987404,40.45434402313863,40.42908899107191,40.28598158209421,50.16836244104442,50.025255032066724,50
23.1071,38.104836477987405,40.35049537363152,40.28386031640234,40.15967184564012,50.1908235279914,50.06663505722918,50
23.4432,38.06683647798742,40.25839361451996,40.16787657249661,40.08113120436967,50.17726241015029,50.09051704202335,50
23.7841,38.57683647798741,40.7514629607101,40.58171090619608,40.53291744888547,50.21854551182463,50.16975205451402,50
24.1301,39.900836477987426,42.03443670892314,41.839639088226434,41.80618816985738,50.22824853906576,50.194797620696704,50
24.4811,41.509836477987406,43.625923402818685,43.381976392213275,43.378309814638456,50.24761358818023,50.24394701060541,50
24.8372,42.98083647798741,45.06457356650189,44.768451035681395,44.80357151990508,50.261002046596815,50.2961225308205,50
25.1984,43.971836477987424,46.00438102452763,45.68181658724693,45.73316093286981,50.271220091657824,50.322564437280704,50
25.5649,44.42483647798743,46.429581234835624,46.05552810166573,46.137004725976894,50.29257650885873,50.374053133169895,50
25.9368,44.59383647798741,46.549261814932365,46.14792794949709,46.245809768675215,50.30345204625715,50.40133386543528,50
26.3141,44.59383647798741,46.541301604566755,46.08558970664801,46.211650034927786,50.32965156963897,50.455711897918746,50
26.6968,44.6928364779874,46.582577059350186,46.104233602296475,46.25355155251076,50.32902550683943,50.47834345705371,50
27.0851,45.20983647798742,47.07029147426469,46.53891163858911,46.71678612583999,50.353505348424704,50.53137983567558,50
27.4791,46.001836477987425,47.83502253121658,47.24833121548234,47.460299189896105,50.374723341320475,50.58669131573424,50
27.8788,46.779836477987416,48.57567330944876,47.95526069091103,48.19264898175804,50.38302432769072,50.62041261853773,50
28.2843,47.38583647798741,49.12695055943887,48.48447593957077,48.7426049482177,50.384345611221164,50.642474619868096,50
28.6957,47.94683647798742,49.6898301638969,49.001538032729016,49.279020445812975,50.410809718083925,50.688292131167884,50
29.1131,48.600836477987414,50.377530341884224,49.655894706162954,49.95254377730841,50.42498656457582,50.72163563572127,50
29.5365,49.49483647798742,51.20603460357283,50.47171387553253,50.788217720592726,50.417816882980105,50.7343207280403,50
29.9661,50.29883647798742,51.949368989862435,51.201436587058296,51.533633092405935,50.4157358974565,50.74793240280414,50
30.402,50.90383647798741,52.506163285505,51.730024695029456,52.07756507428711,50.42859821121789,50.77613859047554,50
30.8442,51.20883647798742,52.780760759583146,51.951110951257036,52.32276550127115,50.457995258311996,50.82964980832611,50
31.2929,51.53283647798743,53.08707656980489,52.24119735365464,52.62787701239556,50.459199557409335,50.84587921615025,50
31.748,52.017836477987416,53.56260298218966,52.700430011885274,53.0975001595191,50.46510282267056,50.862172970304385,50
32.2098,52.80483647798742,54.30041580462954,53.402145049141396,53.81728880624827,50.483126998381266,50.89827075548814,50
32.6783,53.642836477987416,55.0801370074271,54.16829020349722,54.59372509397643,50.48641191345067,50.911846803929876,50
33.1536,54.15783647798743,55.5423605716645,54.599043214347645,55.041373312199696,50.50098725946481,50.94331735731686,50
33.6359,54.471836477987424,55.89065311294756,54.918729096740876,55.37574030807549,50.51491280487207,50.971924016206685,50
34.1251,55.112836477987415,56.48186148102958,55.48270954005413,55.95503357585223,50.526827905177356,50.99915194097545,50
34.6215,56.102836477987424,57.40144791591719,56.39120546920141,56.8711359413049,50.53031197461229,51.01024244671578,50
35.125,57.150836477987426,58.459037812958755,57.45048630592872,57.93296953050459,50.52606828245416,51.008551507030035,50
35.6359,57.856836477987414,59.12556723064928,58.07765542867371,58.57600039463658,50.5495668360127,51.04791180197557,50
36.1543,58.20083647798741,59.47104192358647,58.38895761907925,58.90236697551778,50.56867494806869,51.08208430450722,50
36.6802,58.39583647798743,59.62892615038653,58.530713846936024,59.05557337739454,50.573352772991996,51.09821230345051,50
37.2137,58.87983647798741,60.088967896174964,58.98325317843124,59.51824512085206,50.570722775322906,51.10571471774372,50
37.755,59.759836477987406,60.926528076892865,59.81287274374331,60.340656098637325,50.58587197825554,51.11365533314955,50
38.3041,60.47083647798742,61.59534137850285,60.487415776796766,61.02550805006065,50.5698333284422,51.107925601706086,50
38.8613,61.13383647798743,62.2018122064306,61.08923421712184,61.64101256047731,50.560799645953296,51.11257798930876,50
39.4265,61.69683647798742,62.75065600990105,61.62197280143697,62.17039316439265,50.5802628455084,51.12868320846408,50
40.0,62.380836477987415,63.38276352064135,62.246508342952396,62.80820601647697,50.574557504164375,51.13625517768895,50
40.5818,63.15883647798741,64.14055926412708,62.99897394886624,63.56091391339449,50.57964535073259,51.14158531526084,50
41.1721,63.80383647798742,64.74130051375927,63.58709856399939,64.14991864451319,50.59138186924608,51.15420194975988,50
41.771,64.35783647798742,65.23974481122418,64.07946455329817,64.64645576706987,50.59328904415432,51.16028025792602,50
42.3785,64.92083647798741,65.79422717576757,64.6260466314307,65.20461755688198,50.58960961888559,51.16818054433688,50
42.9949,65.59483647798741,66.43829110498574,65.28442623338144,65.8590998362866,50.579191268699134,51.1538648716043,50
43.6203,66.17783647798741,66.99873999638562,65.83798895497402,66.41808848867443,50.580651507711195,51.1607510414116,50
44.2548,66.8708364779874,67.67574904467217,66.49466823406551,67.07325370422687,50.6024953404453,51.18108081060666,50
44.8985,67.57383647798743,68.33487125536725,67.13931036593881,67.7253326986076,50.609538556759645,51.195560889428435,50
45.5515,68.28683647798739,69.04145116714557,67.86462636619449,68.44567348333122,50.59577768381435,51.17682480095108,50
46.2141,68.95683647798741,69.66806273183855,68.49710921812245,69.07446405442123,50.59359867741732,51.1709535137161,50
46.8863,69.64483647798741,70.31847472846574,69.15787232129344,69.72888035729203,50.58959437117372,51.160602407172306,50
47.5683,70.38983647798742,71.00476561025323,69.83427414229686,70.41940811018718,50.58535750006605,51.17049146795637,50
48.2602,71.1458364779874,71.7746752106237,70.62417480168232,71.2036906398978,50.5709845707259,51.15050040894138,50
48.9621,71.91183647798739,72.4824555719477,71.3347124588145,71.91117304772241,50.57128252422528,51.1477431131332,50
49.6743,72.68983647798741,73.22371533050911,72.06870315824133,72.64422627230987,50.57948905819924,51.155012172267774,50
50.3968,73.37983647798741,73.92569458908082,72.76786824657349,73.34465233080856,50.58104225827226,51.157826342507335,50
51.1299,74.17983647798741,74.67373711866583,73.52207905495078,74.10536547871551,50.568371639950314,51.15165806371505,50
51.8736,75.09183647798741,75.5641848239461,74.43518830199191,75.00313856427427,50.56104625967184,51.12899652195419,50
52.6281,75.81683647798741,76.23687612788034,75.11510039580388,75.68076230881286,50.55611381906748,51.12177573207646,50
53.3936,76.55283647798741,76.97021459016062,75.84309707954274,76.41001901479301,50.560195575367615,51.12711751061788,50
54.1702,77.40083647798741,77.82156357047451,76.70660121995691,77.27286622730617,50.54869734316834,51.1149623505176,50
54.9581,78.16183647798739,78.4868430964797,77.39100962886421,77.95189280034886,50.534950296130845,51.09583346761549,50
55.7575,78.87483647798742,79.20152140054562,78.11324166515317,78.66734661279932,50.534174787746295,51.08827973539245,50
56.5685,79.53883647798743,79.86385083317059,78.78363652504781,79.33608704169923,50.52776379147136,51.08021430812278,50
57.3914,80.21883647798741,80.4761506194618,79.40777867775195,79.95853820614599,50.51761241331582,51.068371941709856,50
58.2261,80.99683647798742,81.21285150633219,80.14911015830701,80.6912303344525,50.52162117187969,51.063741348025175,50
59.073,81.5908364779874,81.79998853873562,80.74755671276172,81.28335105608122,50.5166374826544,51.0524318259739,50
59.9323,82.19383647798742,82.39906427694973,81.3342591782794,81.86595755467233,50.533106722277395,51.064805098670334,50
60.804,82.67083647798741,82.84567557715971,81.80931152151342,82.33959032437211,50.5060852527876,51.03636405564629,50
61.6884,83.25383647798742,83.3975960459723,82.38455742113074,82.9125910886398,50.48500495733251,51.01303862484157,50
62.5857,83.71883647798741,83.83448634206532,82.83206347314218,83.35666764202806,50.47781870003726,51.002422868923134,50
63.496,84.04083647798741,84.12249710589492,83.12960053394647,83.64923134955102,50.473265756343906,50.99289657194845,50
64.4196,84.31983647798741,84.36830258368173,83.38174792315787,83.8999883472246,50.46831423645712,50.98655466052385,50
65.3566,84.5748364779874,84.62676043337275,83.65539965921535,84.16998164326739,50.45677879010536,50.971360774157404,50
66.3073,84.79383647798741,84.84260614807326,83.8933116898486,84.40506886686022,50.43753728121304,50.94929445822466,50
67.2717,84.89383647798742,84.90665740874289,83.94350354920412,84.46168401347536,50.444973395267525,50.963153859538764,50
68.2502,84.89383647798742,84.90588509854261,83.94393016484865,84.44865212340642,50.45723297513619,50.96195493369396,50
69.2429,84.89383647798742,84.89191848346884,83.94634104532057,84.44885026127989,50.443068222188955,50.94557743814828,50
70.2501,84.89383647798742,84.818403732465,83.89673539885773,84.39291486148534,50.42548887097966,50.92166833360727,50
71.2719,84.89383647798742,84.8527410669761,83.93649537053635,84.42673817352808,50.426002893448015,50.916245696439745,50
72.3086,84.89383647798742,84.82230992125899,83.92592832133435,84.41328174528867,50.40902817597032,50.89638159992464,50
73.3603,84.89383647798742,84.79991916342676,83.87716446647484,84.36400014020528,50.43591902322149,50.92275469695193,50
74.4274,84.79383647798741,84.7335010216416,83.79675308193882,84.29136806827513,50.44213295336647,50.936747939702784,50
75.5099,84.79383647798741,84.72190572104847,83.8188610966855,84.30422021289839,50.417685508150086,50.90304462436298,50
76.6083,84.69383647798742,84.62748079448045,83.71360104889662,84.196473309987,50.43100748449345,50.91387974558383,50
77.7226,84.69383647798742,84.60974624120082,83.71617734021837,84.19154592739062,50.4182003138102,50.89356890098246,50
78.8531,84.59383647798741,84.51464766963554,83.6063290195692,84.08252420755665,50.43212346207889,50.908318650066334,50
80.0,84.51383647798741,84.4143436113724,83.51187296517949,83.98544960834869,50.428894003023714,50.90247064619291,50
81.1636,84.49383647798741,84.3598864534155,83.4645725058577,83.92885499511915,50.431031458296346,50.895313947557796,50
82.3442,84.49383647798741,84.42313897712145,83.51540775019997,83.98348195817843,50.439657018943024,50.907731226921484,50
83.5419,84.39383647798742,84.29756477395046,83.38767700219549,83.84899208220865,50.4485726917418,50.90988777175497,50
84.757,84.39383647798742,84.29380172562007,83.38073792322653,83.84784190663909,50.44595981898098,50.91306380239354,50
85.9899,84.39383647798742,84.2726435174834,83.35931876681043,83.81646247641399,50.456181041069414,50.91332475067297,50
87.2406,84.39383647798742,84.26317011626581,83.34108216142957,83.80440248532751,50.4587676309383,50.92208795483624,50
88.5096,84.59383647798741,84.47156478656446,83.53739739585542,83.99921112169291,50.47235366487155,50.934167390709035,50
89.797,84.59383647798741,84.49651900144698,83.57243315019157,84.02291970100212,50.47359930044486,50.92408585125541,50
91.1031,84.69383647798742,84.5888976718956,83.65202904912243,84.10687074375416,50.48202692814144,50.93686862277316,50
92.4282,84.79383647798741,84.71716425737516,83.79214998332593,84.23661932813985,50.48054492923531,50.92501427404923,50
93.7726,84.79383647798741,84.67936207349851,83.73947084755471,84.18010204013378,50.499260033364735,50.939891225943796,50
95.1366,84.90683647798743,84.85477936272257,83.91244278317998,84.35249805369467,50.50228130902789,50.942336579542584,50
96.5204,85.08483647798741,85.0225304499017,84.07416269105407,84.50909052654225,50.51343992335944,50.948367758847624,50
97.9243,85.09383647798741,85.02778534099674,84.06934134775396,84.50180168553327,50.52598365546348,50.95844399324278,50
99.3486,85.19383647798743,85.16258139393746,84.20727236054856,84.63627385567177,50.526307538265684,50.9553090333889,50
100.794,85.19383647798743,85.1546325289928,84.20696469867642,84.63251565407747,50.52211687491534,50.94766783031639,50
102.26,85.2938364779874,85.22028457173148,84.25087477634133,84.6778857060562,50.54239886567528,50.96940979539015,50
103.747,85.39383647798742,85.33485310293327,84.37455597662947,84.7907163979218,50.54413670501147,50.9602971263038,50
105.256,85.49383647798741,85.45046686808084,84.4745952940546,84.89590864069463,50.55455822738621,50.97587157402624,50
106.787,85.59383647798741,85.55984810501722,84.58240143712464,84.99359791369443,50.566250191322794,50.97744666789258,50
108.34,85.61283647798741,85.58505394123704,84.60015543038575,85.01281146512589,50.57224247611114,50.98489851085128,50
109.916,85.79383647798741,85.7983174727179,84.81232421771253,85.22374665100648,50.57457082171142,50.98599325500537,50
111.515,86.07983647798743,86.05873167711279,85.08906617454188,85.4870079195464,50.57172375756639,50.969665502570905,50
113.137,86.19383647798742,86.21806701716108,85.24265515917645,85.64402117418656,50.57404584297451,50.975411857984625,50
114.783,86.39383647798742,86.38491982628736,85.41787232849289,85.81046369850483,50.574456127782526,50.96704749779447,50
116.452,86.59383647798741,86.57441475447773,85.58878017037961,85.9881172007275,50.58629755375023,50.98563458409812,50
118.146,86.6938364779874,86.66682615608782,85.70016689870236,86.09735333193055,50.56947282415727,50.96665925738546,50
119.865,86.85983647798741,86.8581680119208,85.88253346919318,86.269064891186,50.58910312073479,50.97563454272762,50
121.608,87.03583647798742,86.9849548147435,86.01899509312076,86.40401073139263,50.58094408335087,50.96595972162274,50
123.377,87.19383647798742,87.20844387186963,86.24230851970772,86.62499339400958,50.583450477860055,50.96613535216191,50
125.171,87.29383647798741,87.26736393770125,86.29046051495689,86.68333289654176,50.58403104115949,50.97690342274436,50
126.992,87.40583647798742,87.36842547936786,86.38064417784038,86.76839866145424,50.600026817913616,50.98778130152748,50
128.839,87.69383647798743,87.65177598720292,86.68672105426558,87.07885127059318,50.57292471660975,50.96505493293735,50
130.713,87.89383647798742,87.82774994633102,86.85711171433111,87.24816113138749,50.579588814943534,50.970638231999914,50
132.615,88.12683647798741,88.10987088250921,87.11320200148663,87.51592451250762,50.59394637000159,50.996668881022586,50
134.543,88.33383647798742,88.25758734472068,87.26191924744442,87.67340139623751,50.58418594848317,50.99566809727625,50
136.5,88.57383647798741,88.49721174203701,87.48005975686492,87.90603216423212,50.591179577804894,51.01715198517209,50
138.486,88.82683647798741,88.73683000830204,87.70276512547592,88.13940777097952,50.59742223732252,51.034064882826115,50
140.5,89.0138364779874,88.9166368051881,87.86175698907009,88.31566998673381,50.600966818454296,51.05487981611802,50
142.544,89.14383647798742,89.04097426361876,87.97377871595974,88.43934558173028,50.601628681888485,51.067195547659026,50
144.617,89.24383647798741,89.12915931904661,88.02778551167042,88.5155090551698,50.613650263876806,51.10137380737619,50
146.721,89.35383647798741,89.22718338839606,88.09842966112141,88.60548335544466,50.621700032951395,51.12875372727464,50
148.855,89.52683647798742,89.39164989209176,88.23813955224338,88.76514401195446,50.6265058801373,51.15351033984838,50
151.02,89.71083647798741,89.5624915476249,88.36937702828472,88.91899881077237,50.64349273685254,51.193114519340185,50
153.217,89.91083647798742,89.76639154998388,88.52727857651921,89.10539559922938,50.6609959507545,51.23911297346467,50
155.445,90.11083647798742,89.96324668088552,88.6905530594218,89.29211389503982,50.6711327858457,51.272693621463716,50
157.706,90.30783647798741,90.1647702209277,88.85691538046152,89.47800549022323,50.68676473070448,51.30785484046619,50
160.0,90.49383647798741,90.33992578480817,88.9826688442005,89.6355259368446,50.70439984796357,51.35725694060767,50
162.327,90.64383647798742,90.4921365601305,89.09383906539922,89.7701141963867,50.722022363743804,51.39829749473128,50
164.688,90.82283647798742,90.65989433999817,89.22187010281628,89.92363228705455,50.73626205294363,51.43802423718189,50
167.084,91.02683647798742,90.87908207227726,89.39330877607635,90.11913172594681,50.75995034633044,51.485773296200904,50
169.514,91.26483647798742,91.11568691221456,89.58251926914976,90.33634269192235,50.7793442202922,51.5331676430648,50
171.98,91.49383647798741,91.35717716152048,89.77636692687501,90.55373572989474,50.80344143162574,51.58081023464547,50
174.481,91.67983647798741,91.53589166878764,89.91667739817542,90.71784604187819,50.81804562690945,51.61921427061222,50
177.019,91.80783647798741,91.67789366816983,90.02711789022267,90.84548446694323,50.8324092012266,51.65077577794716,50
179.594,91.92283647798742,91.80294284602253,90.10127791194206,90.9427111461654,50.86023169985714,51.70166493408047,50
182.206,92.09383647798741,91.96207981409513,90.21061567197556,91.07291229541026,50.88916751868487,51.75146414211957,50
184.856,92.26483647798742,92.1410329357607,90.35611414264704,91.23947896234826,50.90155397341245,51.78491879311366,50
187.545,92.41883647798741,92.3023439851079,90.4716987842914,91.37375351952808,50.928590465579816,51.83064520081649,50
190.273,92.56483647798741,92.44262620238506,90.5714494504351,91.49325840242251,50.949367799962545,51.87117675194996,50
193.041,92.74383647798741,92.63513744359952,90.71967233930458,91.66199424125344,50.97314320234608,51.91546510429494,50
195.849,92.86883647798741,92.74898630342513,90.79343480217926,91.75210602211726,50.99688028130787,51.955551501245864,50
198.697,92.89383647798742,92.77553229703894,90.77491095353685,91.75301077299025,51.022521524048685,52.00062134350209,50
201.587,92.98083647798741,92.85723870477939,90.81201124486503,91.81732189646236,51.03991680831703,52.04522745991436,50
204.52,92.99383647798741,92.84270822696598,90.75336658817179,91.77353905644392,51.06916917052206,52.089341638794195,50
207.494,92.99383647798741,92.88915939242507,90.74530346765293,91.79704709574798,51.09211229667709,52.14385592477214,50
210.512,92.93183647798742,92.75831841998088,90.57103744078088,91.64973555846684,51.10858286151404,52.1872809792,50
213.574,92.89383647798742,92.7594709432401,90.5138303925632,91.61445423370158,51.145016709538524,52.24564055067691,50
216.681,92.9608364779874,92.78727366183588,90.48230343115215,91.61165959814367,51.17561406369221,52.304970230683736,50
219.833,92.89383647798742,92.731761227066,90.37877585007513,91.53509390782132,51.19666731924468,52.35298537699087,50
