Freq "Early Reflections"
20.0 41.13554126968789
20.2909 40.330695804616525
20.586 39.241196425978345
20.8855 38.08348738197789
21.1893 37.30709963969802
21.4975 37.70009926036214
21.8102 38.75650159539744
22.1274 39.724721614312514
22.4492 40.42501019934555
22.7758 40.69114510410681
23.1071 40.56483536765269
23.4432 40.48629472638227
23.7841 40.93808097089807
24.1301 42.21135169186998
24.4811 43.783473336651056
24.8372 45.20873504191765
25.1984 46.13832445488238
25.5649 46.542168247989466
25.9368 46.650973290687816
26.3141 46.61681355694036
26.6968 46.65871507452333
27.0851 47.12194964785256
27.4791 47.865462711908705
27.8788 48.59781250377064
28.2843 49.14776847023025
28.6957 49.684183967825575
29.1131 50.35770729932098
29.5365 51.19338124260533
29.9661 51.93879661441851
30.402 52.48272859629971
30.8442 52.72792902328372
31.2929 53.03304053440816
31.748 53.50266368153167
32.2098 54.22245232826087
32.6783 54.998888615989
33.1536 55.446536834212296
33.6359 55.78090383008809
34.1251 56.3601970978648
34.6215 57.2762994633175
35.125 58.338133052517165
35.6359 58.98116391664915
36.1543 59.30753049753035
36.6802 59.46073689940714
37.2137 59.92340864286463
37.755 60.745819620649925
38.3041 61.43067157207322
38.8613 62.04617608248991
39.4265 62.57555668640522
40.0 63.213369538489545
40.5818 63.96607743540709
41.1721 64.55508216652576
41.771 65.05161928908247
42.3785 65.60978107889458
42.9949 66.26426335829917
43.6203 66.82325201068703
44.2548 67.47841722623947
44.8985 68.13049622062017
45.5515 68.85083700534382
46.2141 69.47962757643381
46.8863 70.13404387930461
47.5683 70.82457163219976
48.2602 71.60885416191037
48.9621 72.316336569735
49.6743 73.04938979432247
50.3968 73.74981585282114
51.1299 74.5105290007281
51.8736 75.40830208628687
52.6281 76.08592583082545
53.3936 76.81518253680561
54.1702 77.67802974931874
54.9581 78.35705632236143
55.7575 79.0725101348119
56.5685 79.7412505637118
57.3914 80.36370172815857
58.2261 81.09639385646508
59.073 81.6885145780938
59.9323 82.2711210766849
60.804 82.7447538463847
61.6884 83.31775461065239
62.5857 83.76183116404064
63.496 84.05439487156359
64.4196 84.30515186923719
65.3566 84.57514516527998
66.3073 84.8102323888728
67.2717 84.86684753548796
68.2502 84.853815645419
69.2429 84.85401378329247
70.2501 84.79807838349792
71.2719 84.83190169554065
72.3086 84.81844526730126
73.3603 84.76916366221788
74.4274 84.69653159028772
75.5099 84.70938373491096
76.6083 84.60163683199958
77.7226 84.5967094494032
78.8531 84.48768772956923
80.0 84.39061313036127
81.1636 84.33401851713172
82.3442 84.38864548019102
83.5419 84.25415560422124
84.757 84.25300542865169
85.9899 84.22162599842657
87.2406 84.20956600734011
88.5096 84.40437464370548
89.797 84.42808322301471
91.1031 84.51203426576673
92.4282 84.64178285015244
93.7726 84.58526556214636
95.1366 84.75766157570727
96.5204 84.91425404855484
97.9243 84.90696520754584
99.3486 85.04143737768436
100.794 85.03767917609007
102.26 85.08304922806879
103.747 85.19587991993438
105.256 85.30107216270721
106.787 85.39876143570702
108.34 85.41797498713848
109.916 85.62891017301907
111.515 85.89217144155897
113.137 86.04918469619913
114.783 86.21562722051742
116.452 86.39328072274009
118.146 86.50251685394313
119.865 86.67422841319859
121.608 86.80917425340522
123.377 87.03015691602216
125.171 87.08849641855434
126.992 87.17356218346681
128.839 87.48401479260576
130.713 87.65332465340008
132.615 87.92108803452021
134.543 88.07856491825008
136.5 88.3111956862447
138.486 88.5445712929921
140.5 88.7208335087464
142.544 88.84450910374285
144.617 88.92067257718239
146.721 89.01064687745726
148.855 89.17030753396703
151.02 89.32416233278495
153.217 89.51055912124197
155.445 89.6972774170524
157.706 89.8831690122358
160.0 90.04068945885719
162.327 90.17527771839929
164.688 90.32879580906713
167.084 90.5242952479594
169.514 90.74150621393495
171.98 90.95889925190733
174.481 91.12300956389078
177.019 91.2506479889558
179.594 91.34787466817798
182.206 91.47807581742285
184.856 91.64464248436086
187.545 91.77891704154065
190.273 91.89842192443508
193.041 92.06715776326602
195.849 92.15726954412985
198.697 92.15817429500284
201.587 92.22248541847493
204.52 92.17870257845648
207.494 92.20221061776057
210.512 92.05489908047943
213.574 92.01961775571417
216.681 92.01682312015626
219.833 91.9402574298339
223.03 91.86453380797538
226.274 91.84683760311742
229.565 91.75512185813885
232.905 91.7354272117821
236.292 91.92192218588715
239.729 92.00980832753385
243.216 91.97893708243241
246.754 91.9142358825035
250.343 91.85383656484098
253.984 91.80671812329632
257.678 91.70884140253588
261.426 91.44806621892447
265.229 91.30589281191315
269.087 91.18902166254695
273.001 91.0664110644969
276.972 91.05900641126829
281.0 91.00660679950684
285.088 90.93135760813279
289.234 90.85609024429688
293.441 90.90623544708963
297.709 91.0301221557018
302.04 91.12655479714687
306.433 91.21757119973402
310.89 91.30964271496529
315.412 91.4310049290558
320.0 91.56390944452492
324.655 91.6353011399886
329.377 91.69281574612228
334.168 91.70886129559739
339.028 91.70009398920624
343.959 91.7130023656829
348.962 91.74690559703127
354.038 91.75404602106767
359.188 91.72123216107904
364.412 91.66774302079638
369.713 91.6024697245592
375.09 91.54453281982764
380.546 91.50801289084002
386.081 91.4797108709243
391.697 91.40025842642969
397.394 91.31645717207407
403.175 91.22836681684836
409.039 91.14596026036628
414.989 91.10042037518441
421.025 91.0358534495722
427.149 90.93413089972093
433.362 90.84023542052526
439.665 90.75584417440827
446.06 90.73333519997298
452.548 90.68267119728064
459.131 90.63967796273572
465.809 90.60548662599996
472.584 90.58858886048546
479.458 90.62048387068656
486.432 90.6551590235333
493.507 90.66362951462486
500.686 90.65407991394437
507.968 90.65718207702939
515.357 90.68644457678111
522.853 90.78182743134008
530.458 90.83572394888412
538.174 90.84831758389554
546.002 90.9067294020433
553.943 90.95642328430377
562.001 90.98251274282235
570.175 90.968415785628
578.469 90.91997688672592
586.883 90.83399060912227
595.419 90.74790665650004
604.08 90.66703131683194
612.866 90.59427785538729
621.78 90.54527299665439
630.824 90.5020773963695
640.0 90.43125165476285
649.309 90.33773583812984
658.753 90.2128814344346
668.335 90.06978614877288
678.056 89.93692461318017
687.919 89.8449124442209
697.925 89.80782989408367
708.077 89.833201863469
718.376 89.88178081263389
728.825 89.87193161920608
739.426 89.8193621616093
750.181 89.78623302177628
761.093 89.74572692616056
772.163 89.74769119961276
783.394 89.8492878328572
794.789 89.9511514999585
806.349 90.03538371219057
818.078 90.09211206847664
829.977 90.14605989050038
842.05 90.21462936835758
854.298 90.3302058187427
866.724 90.48716819473309
879.33 90.64112091225624
892.12 90.74172740880114
905.097 90.75346164317087
918.262 90.7566945508586
931.618 90.81168505034243
945.169 90.91265979124557
958.917 91.06514894395009
972.864 91.23846356515703
987.015 91.43241761239248
1001.37 91.62403318747248
1015.94 91.78766432949044
1030.71 91.88047997557912
1045.71 91.88066551946176
1060.92 91.75300849201012
1076.35 91.53497753830095
1092.0 91.26699660585795
1107.89 90.98277407137061
1124.0 90.68853494571769
1140.35 90.3947148610123
1156.94 90.14019534614702
1173.77 89.96028985538906
1190.84 89.84869963207507
1208.16 89.70332727094511
1225.73 89.43855408049521
1243.56 89.12811119277539
1261.65 88.86032071060161
1280.0 88.61830637900012
1298.62 88.36778581617794
1317.51 88.1014548465517
1336.67 87.84975564677876
1356.11 87.63599540481131
1375.84 87.39248500459153
1395.85 87.15748408605775
1416.15 87.03936161881236
1436.75 87.08025653451278
1457.65 87.1309995437098
1478.85 87.11045518295278
1500.36 87.1151337467073
1522.19 87.2194311968374
1544.33 87.327725633194
1566.79 87.33667308937406
1589.58 87.24910514874509
1612.7 87.18463950330333
1636.16 87.18072316237603
1659.95 87.18722223254527
1684.1 87.1642537252004
1708.6 87.14488544714074
1733.45 87.13008439995632
1758.66 87.09533036817534
1784.24 87.03489876775642
1810.19 86.95654546332894
1836.52 86.86429313395314
1863.24 86.82945486163945
1890.34 86.87844893070265
1917.83 86.97811294858523
1945.73 87.0616144681624
1974.03 87.11412063690219
2002.74 87.20998622234411
2031.87 87.31892235149787
2061.43 87.33535179941362
2091.41 87.29958543165671
2121.83 87.29424646078037
2152.69 87.28856492226325
2184.01 87.36756511245196
2215.77 87.5836605871433
2248.0 87.72629465939035
2280.7 87.78154729174864
2313.87 87.78546755880062
2347.53 87.71921708490784
2381.68 87.67549644260106
2416.32 87.71729886460473
2451.46 87.79321239571651
2487.12 87.82096105748612
2523.3 87.69379939297575
2560.0 87.5269322335232
2597.24 87.36083509453448
2635.01 87.17642739693602
2673.34 87.08715900815362
2712.23 87.005335778802
2751.68 86.91499640418951
2791.7 86.75527814628738
2832.31 86.44834373293293
2873.5 86.23608666781034
2915.3 86.16591470439765
2957.7 86.18726090359765
3000.72 86.118865285329
3044.37 85.85400139949476
3088.65 85.61833938215561
3133.58 85.59495308556333
3179.16 85.66767450338361
3225.4 85.61971456865221
3272.31 85.44395591647505
3319.91 85.27251492334197
3368.2 85.22022544649774
3417.19 85.18789397692677
3466.89 85.1438374681023
3517.32 84.96772434865612
3568.48 84.89701513835278
3620.39 85.00444773263744
3673.05 85.09441384241177
3726.47 84.93718042777776
3780.67 84.69045959317982
3835.67 84.7109621883475
3891.46 84.79926336648627
3948.06 84.711083363014
4005.49 84.67493868477898
4063.75 84.82617673958133
4122.86 84.93055386629443
4182.82 84.97742231843402
4243.66 85.08145168233831
4305.39 85.20783404377579
4368.01 85.24123776181199
4431.55 85.29029374253521
4496.01 85.33467326662854
4561.4 85.34432226037696
4627.75 85.3961726652896
4695.06 85.4219014310184
4763.35 85.37748812189282
4832.64 85.41156107181479
4902.93 85.52193907224233
4974.24 85.50253720689902
5046.6 85.5611566459816
5120.0 85.5986016304398
5194.47 85.49313952998503
5270.03 85.42522929761799
5346.68 85.45252765296595
5424.45 85.37510045755825
5503.35 85.36068312985711
5583.4 85.45862231143673
5664.61 85.38237228641276
5747.01 85.42855783153647
5830.6 85.48239741258463
5915.41 85.36812934213273
6001.45 85.33662882276953
6088.74 85.24780370067238
6177.3 85.05668441363594
6267.15 84.9837207418637
6358.31 84.81822092300006
6450.8 84.70569592055035
6544.62 84.64013530860778
6639.82 84.554526617433
6736.4 84.55944011900226
6834.38 84.45445219760671
6933.79 84.41095179395873
7034.64 84.32217012927593
7136.96 84.3086837171805
7240.77 84.30358985621235
7346.09 84.35648068955706
7452.94 84.37175145805485
7561.35 84.4068393169369
7671.33 84.37306720425708
7782.91 84.42036007747181
7896.12 84.47353151503603
8010.97 84.6298749472906
8127.49 84.79858073073379
8245.71 85.00029694998983
8365.65 85.07394100693703
8487.33 85.14791638196228
8610.78 85.20262937642485
8736.03 85.27253504665529
8863.09 85.37761092725148
8992.01 85.5196919134667
9122.8 85.6188340969425
9255.5 85.6819442972796
9390.12 85.65189595187461
9526.7 85.81026036610098
9665.27 85.95844879981304
9805.86 86.13486643600278
9948.49 86.26507162705884
10093.2 86.33614375837031
10240.0 86.48579522992006
10388.9 86.692775719393
10540.1 86.93392238291008
10693.4 87.09124682230123
10848.9 87.20715532270206
11006.7 87.22403766052778
11166.8 86.94669284030228
11329.2 85.81562770174818
11494.0 85.54611352850007
11661.2 86.63339924821817
11830.8 87.39036061659199
12002.9 87.91317593441694
12177.5 88.20207899828524
12354.6 88.18981724751136
12534.3 87.87016218121224
12716.6 87.00239857572454
12901.6 85.89415533763614
13089.2 85.38285690096103
13279.6 85.6479729251928
13472.8 86.17860307127226
13668.8 86.55883484126433
13867.6 86.68218046926069
14069.3 86.75736569271722
14273.9 86.79631644035165
14481.5 86.64661834268942
14692.2 86.34259816902086
14905.9 86.2356737785946
15122.7 86.24736079056758
15342.7 86.11086925083491
15565.8 86.02589362763642
15792.2 86.09216796267688
16021.9 86.15543345058471
16255.0 86.19966856933465
16491.4 86.33696204846791
16731.3 86.47345873647812
16974.7 86.6593620952686
17221.6 87.00774345262258
17472.1 86.98691543109466
17726.2 86.59870104310325
17984.0 86.25150210983364
18245.6 86.32577712984931
18511.0 86.9242364335799
18780.2 87.75281441314071
19053.4 88.28025263206874
19330.5 88.10501234476993
19611.7 87.04835001818708
19897.0 85.55103911314373
