Freq "Ceiling Bounce"
20.5078 55.2670690692442
21.9727 57.19565297175771
23.4375 59.00126406734378
24.9023 60.447931117637125
26.3672 61.46601133639692
27.832 63.369367546162124
29.2969 65.12074952271405
30.7617 65.8592249983636
32.2266 67.00419340427315
33.6914 68.09838164314726
35.1562 69.15326770293427
36.6211 70.15669922176376
38.0859 69.9662608468916
39.5508 71.4721837869615
41.0156 72.28225598970116
42.4805 73.11000689642387
43.9453 73.793314285084
45.4102 74.6580699884289
46.875 75.24587537069071
48.3398 75.85571409348218
51.2695 77.24605124163683
52.7344 77.89139874291558
54.1992 78.38178068900814
55.6641 78.70049247853724
58.5938 79.9246950703452
60.0586 80.19268564276243
62.9883 81.02516471960497
64.4531 81.52748449805286
67.3828 82.3316561291634
68.8477 82.66714351419145
71.7773 83.2600462958716
74.707 83.81940555541479
77.6367 84.30153539546755
79.1016 84.49862342067031
82.0312 84.87518808529677
84.9609 85.23177016235937
87.8906 85.49291907714701
90.8203 85.76269089695893
95.2148 86.0321870943242
98.1445 86.17306924069875
101.074 86.2971471133645
105.469 86.57337118056579
108.398 86.70898405505493
112.793 86.77257624756092
117.188 86.78039597821723
120.117 87.04888831534006
124.512 87.21042395588117
128.906 87.25095787487062
133.301 87.34250831554911
139.16 87.29601479550927
143.555 87.08014399486726
147.949 87.30303524970833
153.809 87.23201916191249
159.668 86.92423212520254
165.527 86.78104638438154
171.387 87.1311872379933
177.246 87.02222026977412
183.105 87.1145616978795
188.965 87.00698067582057
196.289 87.01913988289826
203.613 86.67455425300123
210.938 86.96583237158931
218.262 87.00766959720833
225.586 86.64977608640177
232.91 86.41646153502052
241.699 86.69610970124049
250.488 86.30026842340402
259.277 86.6458302481682
268.066 87.0620953671658
276.855 86.3108803826601
287.109 86.16115704683008
297.363 86.68301367940022
307.617 85.97509274877501
319.336 85.41491390778565
329.59 85.33053141898466
341.309 85.60640194787587
353.027 85.3498669858161
366.211 86.38955795126344
379.395 86.93975503493476
392.578 87.26605449772178
405.762 87.16545745857073
420.41 86.64827561371249
435.059 86.43104868663661
451.172 85.92723682320401
465.82 86.16137932585315
483.398 86.03823047688027
499.512 86.67016871622579
517.09 86.44526343232218
536.133 86.26551441494652
555.176 86.3989634357108
574.219 85.91193388834928
594.727 86.3191688369433
615.234 85.65049453573414
637.207 85.8662423804578
659.18 85.54087565629726
682.617 85.20075267144382
707.52 86.46265820156725
732.422 86.28067766138341
757.324 86.67747623922564
785.156 86.95998500427788
811.523 86.35245246577952
840.82 86.63544873871193
870.117 86.27332774754458
900.879 87.69085586339584
933.105 87.28358748676828
965.332 86.94172937240089
1000.49 86.94784230368629
1035.64 87.22348399444897
1072.27 86.55504780088141
1108.89 86.0250290315357
1148.44 86.2568490647521
1189.45 85.92914009583438
1230.47 85.04388174250234
1274.41 84.93688827669547
1319.82 84.14704431292088
1366.7 83.31951620831616
1413.57 83.25067198826899
1463.38 83.32823265377864
1516.11 83.62370575226737
1568.85 83.57636206672558
1624.51 84.04487307636286
1681.64 83.83901917864544
1741.7 84.61181921645031
1803.22 85.10596840526492
1866.21 85.30677718221914
1932.13 84.86502495153167
1999.51 85.38063352158369
2069.82 84.09051841854307
2143.07 83.5715320699296
2219.24 84.12527480911817
2296.88 83.33453344508183
2378.91 80.18470424681922
2462.4 76.8323170652826
2548.83 76.07444381036942
2639.65 75.971469500555
2731.93 77.6473828295754
2828.61 79.43566427613561
2928.22 80.41120722476064
3030.76 81.75857515725139
3137.7 81.33289656267763
3249.02 82.3596833318776
3363.28 82.63991752190488
3481.93 83.40083574545459
3604.98 84.36976188714259
3732.42 85.17362624381656
3864.26 85.97497357180973
4000.49 86.10176740242841
4141.11 86.3960970536825
4287.6 86.70219393525026
4438.48 85.96759803638412
4595.21 85.71039130916009
4756.35 85.45438821433531
4924.8 84.98045771376643
5097.66 84.87047441462914
5277.83 84.87511877696602
5463.87 84.5239611581547
5657.23 84.52455113495346
5856.45 84.6378315115276
6062.99 84.73060926713931
6276.86 84.39135636606365
6498.05 84.35469128783717
6726.56 84.57224242703143
6963.87 85.1124397122035
7209.96 85.29100220707892
7464.84 85.56363761691506
7727.05 85.60264738180733
7999.51 85.486095811778
8282.23 85.23522985470353
8573.73 84.75884421513783
8876.95 84.3538133913273
9188.96 84.37921517901803
9514.16 84.50540670353578
9849.61 84.68035822096164
10196.8 84.56470798662507
10555.7 84.41141232602757
10927.7 84.2997867049649
11313.0 83.85034319068623
11712.9 83.3936479837011
12126.0 82.77801022139258
12553.7 81.95441291559206
12996.1 80.94493936354726
13454.6 79.94033280904003
13929.2 78.71341214794859
14419.9 77.06756581664985
14928.2 78.45145730013313
15455.6 76.17770608651894
16000.5 72.75024294544986
16564.5 70.54064784048319
17148.9 68.47460378460066
17752.4 66.31838650888756
18379.4 63.40639812204827
19026.9 61.465071984037536
19697.8 60.3152640688846
19999.5 60.759048246314876
