Freq "Total Early Reflection"
20.5078 55.58750726621042
21.9727 57.36919475537306
23.4375 59.22942511312502
24.9023 60.67686592846675
26.3672 61.73743201507699
27.832 63.568045083395674
29.2969 65.276398395201
30.7617 66.06353511635248
32.2266 67.21214811035655
33.6914 68.26629226837076
35.1562 69.29809980437383
36.6211 70.24934615819721
38.0859 70.24541365458002
39.5508 71.67147230716927
41.0156 72.4637135863932
42.4805 73.28387328791483
43.9453 73.96230968856854
45.4102 74.84127354224472
46.875 75.42775027503215
48.3398 76.01586986725066
51.2695 77.45102636136646
52.7344 78.03919351363034
54.1992 78.51695196568568
55.6641 78.87734907683898
58.5938 80.0691498557902
60.0586 80.35504303877852
62.9883 81.21767790246224
64.4531 81.71354058219283
67.3828 82.46453460884088
68.8477 82.82738997595057
71.7773 83.43990598812033
74.707 84.0009847439531
77.6367 84.49021808796526
79.1016 84.69145623177315
82.0312 85.0752227200537
84.9609 85.4297720052968
87.8906 85.68462576042744
90.8203 85.94765302875592
95.2148 86.2275079126363
98.1445 86.37322768202078
101.074 86.49996419383645
105.469 86.7569977048177
108.398 86.88646135952352
112.793 86.98362678902234
117.188 87.03598816556404
120.117 87.26105181893952
124.512 87.4191357743686
128.906 87.48400872589647
133.301 87.56187473083482
139.16 87.51111876430262
143.555 87.36924645197132
147.949 87.54056665681864
153.809 87.4564703863904
159.668 87.16442146392309
165.527 87.07097713257336
171.387 87.39815944723247
177.246 87.32574275179383
183.105 87.37833996361897
188.965 87.26608806764722
196.289 87.24199788232137
203.613 86.96122627508382
210.938 87.15618279052899
218.262 87.19924972171492
225.586 86.92310452056982
232.91 86.75099061712244
241.699 86.94632879388065
250.488 86.5830481417815
259.277 86.94063132599317
268.066 87.24312613228989
276.855 86.62848757500223
287.109 86.648660737607
297.363 86.94370868333944
307.617 86.53975846943865
319.336 86.16366906136757
329.59 86.14756678090924
341.309 86.33425876714723
353.027 86.03040938057887
366.211 86.43657499482917
379.395 86.52006990006142
392.578 86.58785445408081
405.762 87.2271320679458
420.41 86.90138574751795
435.059 86.76273398339644
451.172 86.39371022783459
465.82 86.53146652711281
483.398 86.72073677352955
499.512 86.91822318167178
517.09 86.73894371892113
536.133 86.70613850316768
555.176 86.85272644909158
574.219 86.86185922339816
594.727 87.21538908011965
615.234 86.65831542455658
637.207 87.22378525513537
659.18 86.94072147062651
682.617 86.91226238859517
707.52 87.67944946305576
732.422 87.17108935299046
757.324 87.40961967627564
785.156 87.66680576950307
811.523 86.99027000239622
840.82 87.40801932417837
870.117 87.30026491346754
900.879 88.3864076123454
933.105 88.57457337899395
965.332 88.31139268525139
1000.49 87.6333641683969
1035.64 87.79104468124298
1072.27 87.74939868128531
1108.89 87.45468130153195
1148.44 87.51606831445824
1189.45 87.22706946776526
1230.47 86.54068890077288
1274.41 86.09807933713836
1319.82 85.61015089468378
1366.7 85.40439062855276
1413.57 85.06433070740505
1463.38 84.36789532172254
1516.11 84.0534286575756
1568.85 84.29826999778629
1624.51 84.49988767732685
1681.64 84.37733892414182
1741.7 84.1845186888642
1803.22 84.21941396080132
1866.21 84.77478993379
1932.13 84.70251733336593
1999.51 84.47005582916927
2069.82 84.52050868587203
2143.07 84.96790022430791
2219.24 84.76659640697167
2296.88 84.46607865444821
2378.91 84.9342409967758
2462.4 84.7174124583044
2548.83 84.48551236094109
2639.65 85.10548972323633
2731.93 85.27506891891781
2828.61 85.44917267590355
2928.22 85.6944629463347
3030.76 86.12885787001673
3137.7 85.75315355274344
3249.02 85.89893496434442
3363.28 85.64354842007879
3481.93 86.15239499388645
3604.98 85.8866231454019
3732.42 86.31699210206654
3864.26 86.24815139691071
4000.49 86.31921862418659
4141.11 86.2014249184316
4287.6 86.29592422624367
4438.48 86.27854196029463
4595.21 86.25665557944541
4756.35 86.25008708590182
4924.8 86.10120211724313
5097.66 86.21311401315074
5277.83 86.04287041691545
5463.87 85.91561223776223
5657.23 85.71387078076609
5856.45 85.76610665417437
6062.99 85.96605151480757
6276.86 86.1298852581994
6498.05 86.6386924264087
6726.56 87.04242891361596
6963.87 86.82534904713368
7209.96 86.87295080859184
7464.84 86.983606052338
7727.05 86.88968630448088
7999.51 86.6232674694347
8282.23 86.26554003885057
8573.73 86.0429686405754
8876.95 85.93098527319515
9188.96 85.81645933259614
9514.16 85.714824425074
9849.61 85.62264235090655
10196.8 85.41880014893943
10555.7 85.30231021459902
10927.7 85.20503537553661
11313.0 85.10900137361048
11712.9 85.10033784829844
12126.0 85.04892238367918
12553.7 84.9547930501279
12996.1 84.78223848533179
13454.6 84.38138227999471
13929.2 83.88371337031143
14419.9 82.83364346519923
14928.2 82.31245454562409
15455.6 84.27263530708962
16000.5 83.01857868812459
16564.5 81.91142275529812
17148.9 80.74993948001695
17752.4 79.47521841628098
18379.4 78.10022053710794
19026.9 76.76573488628368
19697.8 75.55567034598755
19999.5 74.92943603436458
