Freq "Floor Bounce"
22.4 30.03030664274779
23.0 31.265178893945304
23.6 32.56517889394529
24.0 34.16517889394531
25.0 35.565178893945316
25.8 36.76517889394533
26.5 37.96517889394532
27.2 39.46517889394532
28.0 40.796740457118446
29.0 41.99674045711846
30.0 43.26517889394533
30.7 44.73030664274778
31.5 45.96517889394532
32.5 47.16517889394531
33.5 48.63030664274778
34.5 49.96517889394532
35.5 51.16517889394531
36.5 52.5651788939453
37.5 53.86517889394533
38.7 55.0651788939453
40.0 56.36517889394533
41.2 57.49674045711846
42.5 58.66517889394531
43.7 59.8303066427478
45.0 60.86517889394533
46.2 61.96517889394532
47.5 62.96517889394531
48.7 63.93030664274781
50.0 64.79674045711846
51.5 65.63030664274781
53.0 66.39674045711847
54.5 67.09674045711846
56.0 67.7303066427478
58.0 68.3303066427478
60.0 68.89674045711847
61.5 69.4303066427478
63.0 69.89674045711845
65.0 70.3303066427478
67.0 70.69674045711845
69.0 71.09674045711847
71.0 71.39674045711847
73.0 71.76212172413027
75.0 71.99674045711846
77.5 72.26212172413027
80.0 72.46212172413028
82.5 72.66212172413027
85.0 72.86212172413026
87.5 73.06212172413026
90.0 73.29443838053156
92.5 73.49443838053156
95.0 73.69443838053157
97.5 73.89443838053155
100.0 74.09443838053156
103.0 74.29443838053155
106.0 74.49443838053155
109.0 74.66059273723644
112.0 74.86059273723644
115.0 74.99443838053155
118.0 75.19443838053157
122.0 75.36059273723644
125.0 75.46059273723642
128.0 75.59367088607594
132.0 75.69367088607594
136.0 75.79367088607593
140.0 75.96059273723644
145.0 76.06059273723645
150.0 76.19367088607594
155.0 76.26059273723645
160.0 76.36059273723644
165.0 76.42726071295591
170.0 76.52726071295591
175.0 76.56059273723643
180.0 76.56059273723643
185.0 76.59443838053156
190.0 76.56212172413026
195.0 76.49443838053155
200.0 76.42880147785577
206.0 76.36212172413026
212.0 76.26212172413027
218.0 76.09674045711847
224.0 75.99674045711845
230.0 75.79674045711846
236.0 75.56517889394533
240.0 75.36517889394531
250.0 75.10057589643053
258.0 74.83650119079566
265.0 74.60594266923214
272.0 74.40594266923212
280.0 74.20594266923212
290.0 74.04265603487146
300.0 73.97587055939898
307.0 73.98349945281065
315.0 73.98349945281065
325.0 74.05463602844776
335.0 74.12125807891186
345.0 74.19264533738519
355.0 74.23119865907621
365.0 74.30330345289214
375.0 74.34265447758436
387.0 74.3154682729649
400.0 74.3154682729649
412.0 74.28873546643423
425.0 74.22913351742275
437.0 74.12913351742276
450.0 74.02913351742276
462.0 74.00309337033613
475.0 73.87008718339747
487.0 73.76245122604384
500.0 73.66245122604383
515.0 73.56245122604385
530.0 73.46245122604385
545.0 73.32913351742276
560.0 73.22913351742277
580.0 73.02913351742276
600.0 72.80309337033613
615.0 72.52913351742275
630.0 72.17008718339747
650.0 71.7375881346923
670.0 71.27941004256564
690.0 70.73222171749642
710.0 70.23222171749642
730.0 69.8148433231738
750.0 69.66193762812388
775.0 69.87703025853894
800.0 70.49909489340256
825.0 71.42880147785577
850.0 72.42802229476096
875.0 73.29595550003613
900.0 74.03331620583594
925.0 74.53782863542445
950.0 74.81389398931846
975.0 74.88605650823699
1000.0 74.75786888903558
1030.0 74.540471364953
1060.0 74.11728191601306
1090.0 73.5706430056586
1120.0 72.94544526142333
1150.0 72.20762740695868
1180.0 71.45860123948688
1220.0 70.85272680988908
1250.0 70.45024103411448
1280.0 70.30694085690438
1320.0 70.28929959569395
1360.0 70.21424285834526
1400.0 70.25871026198345
1450.0 70.45126970735134
1500.0 70.91425781696985
1550.0 71.52877760608442
1600.0 72.14642082821953
1650.0 72.56505178684596
1700.0 72.66233785479967
1750.0 72.40207528221008
1800.0 72.07021761518341
1850.0 72.1002145259294
1900.0 72.2199712010204
1950.0 71.51034143128031
2000.0 70.00182083545724
2060.0 68.2646299491666
2120.0 67.41622616044864
2180.0 67.43084429114802
2240.0 67.3487471246478
2300.0 66.79864070311
2360.0 66.09865402462226
2400.0 65.85170416420736
2500.0 65.77322857303788
2580.0 65.60289783579263
2650.0 65.80184622527347
2720.0 66.17132723312609
2800.0 66.18249042281208
2900.0 65.64320063809579
3000.0 65.08064935032674
3070.0 65.07248545361497
3150.0 65.22535334988937
3250.0 65.23532287891216
3350.0 65.18791780075901
3450.0 65.01418631922444
3550.0 65.23941246497363
3650.0 66.11799243371415
3750.0 66.99800000857451
3870.0 67.50152408132935
4000.0 67.35371711613932
4120.0 67.24301978777314
4250.0 67.72379453871243
4370.0 67.66952055511909
4500.0 67.27895835364667
4620.0 67.30841614427597
4750.0 67.33151724032047
4870.0 68.03394207305116
5000.0 68.7424578934051
5150.0 68.30690663010726
5300.0 67.6229192755408
5450.0 66.82655181264116
5600.0 66.31237321562884
5800.0 66.5236927199178
6000.0 66.56335866700408
6150.0 67.20104524474696
6300.0 69.11679774199987
6500.0 69.92427126760559
6700.0 69.17772566940242
6900.0 70.13801616831454
7100.0 71.59987286003002
7300.0 71.29689414942273
7500.0 71.62129199743053
7750.0 72.33582779856256
8000.0 71.91372353328482
8250.0 72.4114709121813
8500.0 73.0086681531491
8750.0 72.05288996118223
9000.0 71.74703182355282
9250.0 70.58689723496776
9500.0 70.70847956097816
9750.0 70.04703182355281
10000.0 69.89151525132637
10300.0 71.042370949414
10600.0 72.5102306784954
10900.0 72.52040365719641
11200.0 72.74537021285795
11500.0 72.67067250061108
11800.0 73.6847133248135
12200.0 73.16158451529886
12500.0 73.954165032702
12800.0 73.34666888485748
13200.0 71.7776869689183
13600.0 71.31464821882957
14000.0 70.7804189014928
14500.0 70.1483071293982
15000.0 70.33312685058192
15500.0 69.35965265304976
16000.0 67.58671729140013
16500.0 69.46500870716449
17000.0 67.78709426688513
17500.0 64.89763300726322
18000.0 65.41562062637512
18500.0 63.757098180910575
19000.0 64.68814987592701
19500.0 64.85802231906804
