Freq "Front Wall Bounce"
22.4 29.464903063924183
23.0 30.706069363978187
23.6 31.978458403231954
24.0 33.57845840323195
25.0 34.978458403231954
25.8 36.20606936397819
26.5 37.37845840323196
27.2 38.87845840323193
28.0 40.278458403231966
29.0 41.478458403231954
30.0 42.67845840323194
30.7 44.17845840323194
31.5 45.44653877666552
32.5 46.61980929424605
33.5 48.07845840323195
34.5 49.37845840323196
35.5 50.60606936397819
36.5 52.046538776665514
37.5 53.31980929424604
38.7 54.51980929424603
40.0 55.846538776665525
41.2 56.978458403231954
42.5 58.14653877666552
43.7 59.29228582620108
45.0 60.34653877666551
46.2 61.446538776665506
47.5 62.44653877666552
48.7 63.44653877666552
50.0 64.34653877666553
51.5 65.14653877666552
53.0 65.94653877666552
54.5 66.64653877666552
56.0 67.31918471978769
58.0 67.9191847197877
60.0 68.46046803893744
61.5 68.98756411023953
63.0 69.48756411023955
65.0 69.88756411023955
67.0 70.28756411023954
69.0 70.68756411023953
71.0 71.02914766692042
73.0 71.38756411023954
75.0 71.68756411023955
77.5 71.88756411023954
80.0 72.10168350467235
82.5 72.32914766692042
85.0 72.60168350467234
87.5 72.80168350467235
90.0 73.02914766692042
92.5 73.27066002280178
95.0 73.47066002280178
97.5 73.67066002280177
100.0 73.87066002280177
103.0 74.1127325010189
106.0 74.31273250101889
109.0 74.5127325010189
112.0 74.71273250101889
115.0 74.9127325010189
118.0 75.08579349033651
122.0 75.25536715004785
125.0 75.41273250101888
128.0 75.52743090788618
132.0 75.65536715004787
136.0 75.79729589183869
140.0 75.95536715004785
145.0 76.07026065929423
150.0 76.19729589183869
155.0 76.325426024695
160.0 76.425426024695
165.0 76.54042238982947
170.0 76.64042238982948
175.0 76.6557146460684
180.0 76.71365512009038
185.0 76.74042238982948
190.0 76.71365512009038
195.0 76.68411451960917
200.0 76.68411451960917
206.0 76.59960598094345
212.0 76.49960598094344
218.0 76.39960598094346
224.0 76.29960598094344
230.0 76.09960598094345
236.0 75.89960598094345
240.0 75.69960598094346
250.0 75.49960598094344
258.0 75.24406513722141
265.0 75.0154012868002
272.0 74.8154012868002
280.0 74.66006336853435
290.0 74.56006336853436
300.0 74.5052952045846
307.0 74.5052952045846
315.0 74.60529520458459
325.0 74.7052952045846
335.0 74.8052952045846
345.0 74.87952802764502
355.0 75.02181189490094
365.0 75.15109804732147
375.0 75.25109804732145
387.0 75.32560199082894
400.0 75.39747300141683
412.0 75.46782174794738
425.0 75.55109804732145
437.0 75.62313424176584
450.0 75.65109804732145
462.0 75.70662258928328
475.0 75.76072633938715
487.0 75.74473055459539
500.0 75.74473055459539
515.0 75.72904175226581
530.0 75.68411451960917
545.0 75.62904175226582
560.0 75.51365512009036
580.0 75.38411451960917
600.0 75.21365512009037
615.0 74.98733678704376
630.0 74.68733678704376
650.0 74.33291364329585
670.0 73.9230776529922
690.0 73.41417039742296
710.0 72.87682587742333
730.0 72.3505661557814
750.0 71.84969114527996
775.0 71.57390936365383
800.0 71.48654625922747
825.0 71.58654625922746
850.0 71.85317894047182
875.0 72.20959236612443
900.0 72.5252775638709
925.0 72.79405243014854
950.0 72.92628196902483
975.0 72.94978399959894
1000.0 72.86208924431888
1030.0 72.72104728519459
1060.0 72.51146289686348
1090.0 72.314912177402
1120.0 72.13968333201555
1150.0 72.00530960407107
1180.0 71.89256282314923
1220.0 71.85901494840677
1250.0 71.8720207261142
1280.0 71.9341319934697
1320.0 72.08511629539059
1360.0 72.28041265071612
1400.0 72.5535903202054
1450.0 72.90960087052312
1500.0 73.31766622850158
1550.0 73.63483606207184
1600.0 73.87283237293924
1650.0 73.90368949319567
1700.0 73.76689332890444
1750.0 73.50429564728988
1800.0 73.36005224793757
1850.0 73.31150389369405
1900.0 73.31340406281151
1950.0 72.99276548018032
2000.0 72.30415085961673
2060.0 71.60013811456147
2120.0 71.16019055688871
2180.0 70.9304207414881
2240.0 70.791660617186
2300.0 70.61413439575257
2360.0 70.49911120697568
2400.0 70.51415622646213
2500.0 70.51812938427156
2580.0 70.40393047144013
2650.0 70.25237569424354
2720.0 70.28249706176814
2800.0 70.44487605434426
2900.0 70.63408672918597
3000.0 70.78152111443677
3070.0 70.88466262232335
3150.0 70.87543964057035
3250.0 70.80902066513762
3350.0 70.95300961733206
3450.0 71.30862037800561
3550.0 71.64323872901883
3650.0 71.84894338866137
3750.0 72.00832274601534
3870.0 72.16671099237105
4000.0 72.35747898213491
4120.0 72.66804180386222
4250.0 72.82570509416885
4370.0 72.73509701748226
4500.0 72.52999364116765
4620.0 72.37384855175245
4750.0 72.12526705396165
4870.0 71.96119274262323
5000.0 71.95036090981587
5150.0 71.76489785982436
5300.0 71.57577359628192
5450.0 71.14251499109159
5600.0 70.36111777581213
5800.0 69.90182883808647
6000.0 70.10799952530895
6150.0 70.7568825669746
6300.0 71.39975667550573
6500.0 71.71151798256565
6700.0 71.6786619786786
6900.0 71.89520329627835
7100.0 72.42203621432765
7300.0 72.7595577546712
7500.0 73.10798182386456
7750.0 73.44782266830899
8000.0 73.56202478306705
8250.0 73.77806398945424
8500.0 74.16723148183542
8750.0 74.0680542560518
9000.0 73.38771076256363
9250.0 73.27046701821222
9500.0 73.72685632868316
9750.0 73.56074781319047
10000.0 73.45913695499927
10300.0 73.41007251259275
10600.0 73.77215315586172
10900.0 73.83976977037601
11200.0 74.2780057803643
11500.0 74.41466542451893
11800.0 74.71301992157616
12200.0 74.74696087930538
12500.0 74.97986141516591
12800.0 74.97623301921429
13200.0 74.76170845269597
13600.0 74.52476557722487
14000.0 74.86253473159692
14500.0 74.40923752862192
15000.0 73.5571692490628
15500.0 72.71377972756132
16000.0 71.2562763252474
16500.0 72.27676773293148
17000.0 71.42533042474739
17500.0 69.43102146281939
18000.0 69.94581204518701
18500.0 70.34693624530262
19000.0 70.20990027352254
19500.0 70.1375906666547
