Freq "Side Wall Bounce"
22.4 30.358276547074738
23.0 31.640059013361295
23.6 32.89311689233013
24.0 34.49311689233012
25.0 35.909160150757444
25.8 37.13070844033997
26.5 38.267568015848795
27.2 39.767568015848795
28.0 41.15827654707472
29.0 42.348965157135254
30.0 43.567568015848806
30.7 45.067568015848806
31.5 46.30916015075745
32.5 47.48370575680407
33.5 48.96756801584881
34.5 50.26756801584882
35.5 51.46756801584881
36.5 52.8675680158488
37.5 54.1675680158488
38.7 55.34620228637176
40.0 56.6209647058472
41.2 57.78370575680407
42.5 58.937276223730336
43.7 60.08370575680408
45.0 61.13727622373034
46.2 62.23727622373033
47.5 63.20216071339759
48.7 64.13727622373032
50.0 65.03727622373033
51.5 65.87724715918374
53.0 66.63727622373032
54.5 67.29372339087276
56.0 67.93132297137504
58.0 68.53132297137502
60.0 69.07248626393601
61.5 69.63132297137504
63.0 70.04797401899381
65.0 70.4479740189938
67.0 70.82388533057654
69.0 71.20279554287691
71.0 71.52388533057655
73.0 71.84303055811462
75.0 72.07900984676188
77.5 72.27900984676188
80.0 72.47900984676188
82.5 72.65563903970624
85.0 72.89234657805316
87.5 73.09234657805315
90.0 73.29234657805316
92.5 73.44871083953184
95.0 73.62959069146925
97.5 73.80701839555066
100.0 73.98632942522794
103.0 74.1640508615594
106.0 74.28346109323863
109.0 74.44216844639001
112.0 74.62164664312805
115.0 74.7603771522436
118.0 74.90005323281571
122.0 75.03897592961556
125.0 75.11795947354192
128.0 75.21795947354191
132.0 75.27706045801892
136.0 75.37570467026427
140.0 75.47712434388478
145.0 75.53581511833717
150.0 75.63770380495687
155.0 75.65723188416722
160.0 75.71853502888085
165.0 75.79972049069637
170.0 75.82181728744585
175.0 75.80344584748667
180.0 75.7660157256702
185.0 75.74824548478885
190.0 75.69141439181082
195.0 75.59489784981757
200.0 75.51507721660671
206.0 75.35905048918528
212.0 75.2073683383197
218.0 75.03099964538102
224.0 74.8365562320232
230.0 74.60260258445301
236.0 74.34508236168303
240.0 74.05405402308907
250.0 73.73923765072861
258.0 73.44935307353693
265.0 73.14935307353691
272.0 72.86493991430996
280.0 72.62593994523418
290.0 72.42014996213945
300.0 72.2861538723229
307.0 72.25571181244703
315.0 72.22575511025093
325.0 72.20515541740463
335.0 72.23953633720156
345.0 72.27327982325994
355.0 72.27327982325994
365.0 72.32428231704598
375.0 72.38453941363677
387.0 72.45192597626556
400.0 72.49224472083064
412.0 72.56421732012548
425.0 72.65312169794109
437.0 72.76894521765057
450.0 72.86894521765055
462.0 72.98147332887591
475.0 73.09755957779619
487.0 73.19755957779618
500.0 73.28507785143044
515.0 73.35700401087186
530.0 73.34469220604943
545.0 73.26129217191722
560.0 73.16129217191722
580.0 73.0125290387348
600.0 72.79076981735174
615.0 72.47261145124162
630.0 72.05260394472647
650.0 71.56193892116079
670.0 70.9457199432346
690.0 70.21970411204128
710.0 69.36041068547992
730.0 68.43165530716253
750.0 67.47122684211966
775.0 66.62266511975592
800.0 66.0433700964551
825.0 66.06369970286288
850.0 66.68754970311072
875.0 67.67256625067147
900.0 68.60962611171364
925.0 69.25221446978874
950.0 69.64684132354526
975.0 69.76305891953558
1000.0 69.63453504451532
1030.0 69.37634282938697
1060.0 68.96457119553666
1090.0 68.45721985106623
1120.0 67.90736315386361
1150.0 67.31575067320362
1180.0 66.79386380917975
1220.0 66.39297312622467
1250.0 66.17832164180443
1280.0 66.17829155930308
1320.0 66.40126199062486
1360.0 66.865656987994
1400.0 67.4918356182581
1450.0 68.25887308816169
1500.0 68.92456896662405
1550.0 69.44227912598686
1600.0 69.71867158518032
1650.0 69.60961466321444
1700.0 69.21227066863416
1750.0 68.64265483480835
1800.0 68.22342090744964
1850.0 68.21872094064715
1900.0 68.3005404833364
1950.0 67.64525662023436
2000.0 65.84037290288643
2060.0 63.72189646581384
2120.0 62.20739955109555
2180.0 61.309007727616844
2240.0 60.27822194067896
2300.0 58.91052888752165
2360.0 57.71343771680307
2400.0 56.92535426918441
2500.0 56.06263672791816
2580.0 55.34904659400827
2650.0 55.82883186221049
2720.0 56.71610092994344
2800.0 56.72903857686738
2900.0 56.259185727019826
3000.0 56.18244475442522
3070.0 56.6484782885221
3150.0 57.29266276559251
3250.0 57.98779025231808
3350.0 58.22409381936383
3450.0 58.2000374012658
3550.0 58.76049831176367
3650.0 59.55677118104602
3750.0 59.89966076653407
3870.0 60.385844890208816
4000.0 61.26695852996755
4120.0 61.70331858245642
4250.0 62.02870566923514
4370.0 62.03761193546431
4500.0 61.4922414164961
4620.0 61.09030485613724
4750.0 60.888611077516174
4870.0 61.865885064419174
5000.0 62.985089450379945
5150.0 62.256781385585086
5300.0 61.36919407820962
5450.0 60.41799423487733
5600.0 59.95914344718902
5800.0 60.57430433757996
6000.0 60.96553032654761
6150.0 61.38002163695485
6300.0 61.7398762450282
6500.0 62.349304673217446
6700.0 62.12392983999686
6900.0 62.439888491089974
7100.0 62.574493148236314
7300.0 62.196916508203046
7500.0 63.09815054911573
7750.0 63.74427411899566
8000.0 62.832710266723566
8250.0 61.88537984582837
8500.0 63.547489903349344
8750.0 64.08278712688822
9000.0 62.56247853490659
9250.0 63.0042750557994
9500.0 63.39781893045047
9750.0 63.69689392528997
10000.0 62.99309825523726
10300.0 63.30326502537797
10600.0 63.68888682336424
10900.0 63.06100134730238
11200.0 63.74804326408906
11500.0 63.54159138532229
11800.0 63.88877878806062
12200.0 63.95789903523884
12500.0 64.8258365248598
12800.0 63.73740452379447
13200.0 63.068902532758344
13600.0 62.84801381183193
14000.0 63.2872513757997
14500.0 62.32746648338944
15000.0 60.644817841324766
15500.0 59.789021120834875
16000.0 57.1021963776343
16500.0 60.10064103646798
17000.0 59.420687508784425
17500.0 52.59471523762606
18000.0 52.93762858436041
18500.0 53.75982074326099
19000.0 52.089805844730066
19500.0 50.77092272535258
