Freq "Estimated In-Room Response"
20.5078 61.91260119283038
21.9727 64.4008974094346
23.4375 66.95266612301708
24.9023 69.29183543225219
26.3672 71.37834582447519
27.832 73.37473243918339
29.2969 74.9449800844211
30.7617 76.36278022639428
32.2266 77.50564877910728
33.6914 78.49474828706998
35.1562 79.33365192695827
36.6211 80.75645738537546
38.0859 81.32602369031596
39.5508 81.7587898060954
41.0156 82.14050820512125
42.4805 82.60964768128507
43.9453 82.9844864497113
45.4102 83.33774080664524
46.875 83.66357955411355
48.3398 83.95264764738864
51.2695 84.53829252405724
52.7344 84.7911778843926
54.1992 85.07694622782633
55.6641 85.35142659444132
58.5938 85.91161201748051
60.0586 86.10641674606552
62.9883 86.55929234241778
64.4531 86.76589334124657
67.3828 87.21013307417891
68.8477 87.40956925203992
71.7773 87.7783078731466
74.707 88.18087056836428
77.6367 88.51723162883593
79.1016 88.65755141135465
82.0312 88.94650286419225
84.9609 89.2233661541639
87.8906 89.53782484423775
90.8203 89.80256153013106
95.2148 90.06723395888471
98.1445 90.23881499665185
101.074 90.33739283441817
105.469 90.57681067000662
108.398 90.79661387005649
112.793 91.02276949084757
117.188 91.11346575097888
120.117 91.20689783875778
124.512 91.29543187475859
128.906 91.3023729982367
133.301 91.25797009233293
139.16 91.15016717733947
143.555 91.03534796809994
147.949 90.90904368128993
153.809 90.86019401786743
159.668 90.96852191263754
165.527 90.8002622045343
171.387 90.55685955093028
177.246 90.31324550768767
183.105 90.0995648364879
188.965 90.06855536655398
196.289 89.9593854433051
203.613 89.71158226776627
210.938 89.56765793880001
218.262 89.25707854674475
225.586 89.16975973162596
232.91 89.00410217868483
241.699 88.75553691754281
250.488 89.17074012503927
259.277 88.83943555072179
268.066 88.64630175958315
276.855 88.72930177357637
287.109 88.55021012796044
297.363 88.97300369510549
307.617 88.35736732973865
319.336 87.99309443710214
329.59 87.92467244631074
341.309 87.34306929400641
353.027 87.5248608892455
366.211 88.18968136342936
379.395 88.1858177279769
392.578 87.65441057655825
405.762 87.02022394136473
420.41 87.28840481856511
435.059 87.07924214861771
451.172 88.1722122359351
465.82 87.54474049432189
483.398 87.39294583846306
499.512 87.0959938699345
517.09 86.00528522988076
536.133 86.37856518456108
555.176 86.66120053197378
574.219 86.42565582791804
594.727 86.4647069218824
615.234 85.85639015336449
637.207 85.86930349063908
659.18 85.05068095466915
682.617 85.08837375633225
707.52 85.30242655020784
732.422 84.21420092738259
757.324 84.15272503607353
785.156 83.67801806468022
811.523 83.32999554420957
840.82 83.0915405399338
870.117 83.11698342390193
900.879 82.65908905476526
933.105 82.31829940872763
965.332 82.48439088208745
1000.49 81.53629075970593
1035.64 81.73754838902434
1072.27 81.13182435745041
1108.89 80.7831061768432
1148.44 80.65457967977271
1189.45 80.793147363923
1230.47 81.02430337618733
1274.41 81.2074051160479
1319.82 81.83593357621092
1366.7 81.93861788636957
1413.57 81.90805235517871
1463.38 82.65964322821458
1516.11 83.736517474194
1568.85 84.19191306535171
1624.51 84.55522174650616
1681.64 84.71285652506863
1741.7 85.03741679775273
1803.22 85.73422856098466
1866.21 86.03253419727051
1932.13 85.99681756475152
1999.51 86.04419419001071
2069.82 86.37295547047219
2143.07 86.29690350413702
2219.24 86.20405273897317
2296.88 86.5397087452249
2378.91 86.44428047373299
2462.4 85.63605053557421
2548.83 85.56232896974491
2639.65 85.59723576098654
2731.93 84.58563311159102
2828.61 84.01580040104145
2928.22 84.07335804876779
3030.76 83.68575441335547
3137.7 83.36950806655379
3249.02 83.85637728392017
3363.28 83.96261663391981
3481.93 84.33437419031235
3604.98 84.94309590116768
3732.42 85.64807285791272
3864.26 85.89341657195058
4000.49 86.48543106055025
4141.11 86.76632694543845
4287.6 86.9522852084192
4438.48 87.09596744233689
4595.21 86.8429216944105
4756.35 86.7462729932831
4924.8 86.53096095952709
5097.66 86.62875247451642
5277.83 86.1533538995857
5463.87 86.39070782026597
5657.23 86.19585204623644
5856.45 86.09641499332477
6062.99 85.68435033632119
6276.86 85.49465318992351
6498.05 84.99904597265896
6726.56 84.97532722210067
6963.87 85.00308307863902
7209.96 84.66920171684397
7464.84 84.49399110266592
7727.05 84.52132564719798
7999.51 84.65900994821592
8282.23 84.72439256289177
8573.73 84.64525409056859
8876.95 84.6351247464362
9188.96 85.39708333871033
9514.16 86.14282733712157
9849.61 87.14769776586974
10196.8 88.0041808187318
10555.7 88.44671839135793
10927.7 88.61579956198204
11313.0 88.47671445502519
11712.9 88.07378955133413
12126.0 87.93073974465031
12553.7 87.05663865483439
12996.1 86.21905746843859
13454.6 85.69201397369297
13929.2 85.35851360958928
14419.9 84.3373530867262
14928.2 83.10967632420768
15455.6 82.34476748274659
16000.5 81.628216246402
16564.5 80.96148476381072
17148.9 80.57402996833022
17752.4 79.13187254319936
18379.4 76.21259707125488
19026.9 73.80328437430612
19697.8 70.94912776188521
19999.5 69.25911686480492
