Freq "Rear Wall Bounce"
20.5078 64.07818313433832
23.4375 67.09930155713154
26.3672 69.77565405029537
29.2969 72.65442572164768
32.2266 75.37021757607144
35.1563 78.10978160600708
38.0859 80.58895380891698
41.0156 82.74197055865864
43.9453 84.14993332607533
46.875 85.00768042628248
49.8047 85.31111540422762
52.7344 85.32443853164756
55.6641 85.22292491739402
58.5938 85.13736851258983
61.5234 84.93588920563842
64.4531 84.80005429326695
67.3828 84.71352029301869
70.3125 84.70430757846776
73.2422 84.7604483638039
76.1719 84.81627530518041
79.1016 84.88786715947762
82.0313 84.94275547140221
84.9609 84.87236816538486
87.8906 85.03505363908062
90.8203 85.15080667072696
93.75 85.29183354160007
96.6797 85.1223957333057
102.539 85.40426024853537
105.469 85.51098939050979
108.398 85.63382985669077
111.328 85.72241350806127
117.188 85.92036937576196
120.117 86.05537849345211
125.977 86.0489802972842
128.906 85.9853321726907
134.766 86.07533940750483
137.695 86.16637448719776
143.555 86.16852231106488
149.414 86.10513930693992
155.273 86.12794493038714
158.203 86.17705973293094
164.063 86.1775421900617
169.922 86.10697489286954
175.781 85.98962262714892
181.641 85.77892052785994
190.43 85.70226595428863
196.289 85.69988556570611
202.148 85.5190394994205
210.938 85.22223076485255
216.797 85.10877678909927
225.586 84.79922094893777
234.375 84.66231928779757
240.234 84.47279856681293
249.023 83.87515606970867
257.813 84.21811920577392
266.602 83.55097274020683
278.32 83.75588465610879
287.109 83.47418677586094
295.898 82.94255288069294
307.617 83.09719385035226
319.336 82.5620577487256
331.055 82.61485017863356
342.773 82.14428191476141
354.492 81.70629206418454
366.211 81.23822873175456
377.93 82.15151635318554
392.578 81.87196865777736
407.227 81.45265914397245
421.875 80.96627583875947
436.523 80.99258699353429
451.172 80.7353407598607
465.82 80.60917733423003
483.398 80.12199551568402
500.977 79.94571362925593
518.555 79.13488582836294
536.133 77.73024294309467
553.711 78.01926722651311
574.219 78.67299895017995
594.727 78.97680713093072
615.234 78.6983119741382
638.672 79.51430074961337
659.18 79.09045454994877
682.617 80.35174968275673
706.055 81.0796133744399
732.422 80.65819266237833
758.789 79.8166086717535
785.156 78.9477845287914
811.523 78.38187707814217
840.82 79.1155537254364
870.117 79.3846910621691
902.344 78.11093619630442
931.641 76.9442928403404
966.797 76.33715535504305
999.023 76.07326719118055
1034.18 75.63241010213486
1072.27 75.28043917183976
1110.35 74.89592715923892
1148.44 74.47873652717793
1189.45 74.28899129283937
1230.47 74.50245419762604
1274.41 74.20975464767993
1318.36 73.65968780356444
1365.23 72.76710590461272
1415.04 72.23351182650079
1464.84 72.25983448260942
1514.65 72.18342705710921
1570.31 71.85965563372113
1623.05 71.56803412339016
1681.64 70.83985872740372
1740.23 71.15953598447125
1801.76 71.3769546421446
1866.21 71.3906770786424
1930.66 71.1535423718503
2000.98 71.30584353054304
2071.29 72.08068688760288
2144.53 71.57807707110297
2217.77 71.94090705927702
2296.88 72.22403533358982
2378.91 72.67330841823353
2460.94 72.60500726335678
2548.83 72.89414377108103
2639.65 73.24415841080557
2733.4 73.18447019616576
2827.15 73.82853453629858
2926.76 73.8710436270398
3032.23 73.98875321521811
3137.7 74.22812481103621
3249.02 74.32589490357348
3363.28 74.10313567191824
3483.4 74.420637331524
3606.45 73.38234759714614
3732.42 72.725226468198
3864.26 72.34290111832397
3999.02 72.45376263166938
4139.65 73.23805064868898
4286.13 74.80349574605111
4438.48 74.99544801927304
4593.75 75.39801321221755
4757.81 75.157632987614
4924.8 74.02313143359105
5097.66 73.38965986437995
5279.3 72.57216863589883
5463.87 72.33956966272942
5657.23 72.01152093911367
5856.45 71.7061170148585
6061.52 72.07582145595876
6275.39 72.25005864352427
6498.05 71.98928156350681
6726.56 71.29831618507075
6963.87 70.97608346158381
7209.96 69.91282840047498
7464.84 69.33291859798138
7728.52 68.35821600113675
8000.98 67.69211020752597
8282.23 68.27764647802995
8575.2 68.42614707930427
8876.95 68.01123371775869
9190.43 67.43325950069257
9512.7 66.3668698053927
9849.61 65.15565677450775
10195.3 64.64946605878401
10555.7 64.31085510728215
10927.7 63.59227968288256
11314.5 63.49902376464493
11712.9 63.237624404726304
12126.0 63.12605583928027
12553.7 63.498733555281746
12996.1 63.55667347255762
13453.1 63.70893193539996
13927.7 63.212362289884496
14419.9 62.26378773287607
14929.7 62.44637659171832
15454.1 63.06339824308347
15999.0 63.66147078691705
16564.5 62.99209304080752
17147.5 62.541163011001146
17753.9 63.365558337963634
18377.9 63.65574353818862
19028.3 64.03693154623005
19699.2 64.29756254089422
19998.0 64.87793689865083
