Freq,On Axis,Listening Window,Sound Power,Early Reflections,Early Reflections DI,Sound Power DI,DI offset
22.4,26.89999999999999,29.220294049769038,24.048019185340294,24.353728969455503,44.866565080313535,45.17227486442874,40
23.0,27.999999999999986,30.05012950579949,24.68230990809475,25.179857793627022,44.87027171217247,45.36781959770474,40
23.6,29.299999999999997,30.994946998350358,25.48996429650795,26.205051749198233,44.789895249152124,45.50498270184241,40
24.0,31.89999999999999,33.160578456718795,27.51408348469552,28.4473639721367,44.713214484582096,45.64649497202328,40
25.0,33.999999999999986,34.77981158039144,29.02547397441093,30.196415361436905,44.58339621895453,45.75433760598051,40
25.8,35.7,36.129601825052404,30.324834827614623,31.707019413849153,44.42258241120325,45.80476699743778,40
26.5,37.3,37.32878716840922,31.478512501941637,33.03929320486556,44.28949396354366,45.850274666467584,40
27.2,38.7,38.2738919189937,32.42832471444443,34.22032819387677,44.05356372511693,45.84556720454927,40
28.0,39.89999999999999,39.064353521522875,33.25257600838923,35.23198661916244,43.832366902360434,45.81177751313365,40
29.0,41.10000000000001,39.89500979813492,34.07208112398389,36.19439745327405,43.70061234486087,45.82292867415103,40
30.0,42.499999999999986,41.0223523324572,35.22539960476324,37.491145064368524,43.53120726808868,45.79695272769396,40
30.7,44.499999999999986,42.785359780800704,37.029548997834226,39.431622263908494,43.35373751689221,45.75581078296648,40
31.5,46.2,44.231925124137675,38.5771986985399,41.11747679539501,43.11444832874267,45.65472642559777,40
32.5,47.7,45.56961944786819,39.92956191143098,42.575998145506716,42.993621302361476,45.64005753643721,40
33.5,48.999999999999986,46.72326685630442,41.09365089056534,43.839072891596246,42.884193964708174,45.62961596573908,40
34.5,50.10000000000001,47.74104714380202,42.14557892886579,44.975296255726576,42.765750888075445,45.59546821493623,40
35.5,51.2,48.82738950747718,43.27173828313097,46.15940461840428,42.6679848890729,45.55565122434621,40
36.5,53.10000000000001,50.67428696862943,45.11726515024618,48.03908670636723,42.6352002622622,45.55702181838325,40
37.5,54.7,52.30051806554148,46.73989240196444,49.6764323452599,42.624085720281585,45.56062566357704,40
38.7,55.999999999999986,53.710525651975885,48.150556546734904,51.09853518645251,42.61199046552338,45.55996910524098,40
40.0,57.2,54.92657968776142,49.391708139649936,52.37058507758432,42.555994610177095,45.53487154811148,40
41.2,58.39999999999999,56.13685744636415,50.60027866238629,53.57390754412525,42.5629499022389,45.53657878397786,40
42.5,59.8,57.63645956602575,52.119054685954,55.0860149128154,42.55044465321035,45.51740488007175,40
43.7,61.2,59.13712100409707,53.657403507044805,56.587847501258764,42.549273502838304,45.47971749705226,40
45.0,62.39999999999999,60.44725299368419,54.984885484878376,57.885215563173844,42.562037430510344,45.46236750880581,40
46.2,63.5,61.62936819565276,56.21133536386371,59.09574542406206,42.5336227715907,45.41803283178905,40
47.5,64.6,62.75652528129298,57.397488636339276,60.253758151600195,42.502767129692785,45.359036644953704,40
48.7,65.9,64.15493427760934,58.83720747852506,61.656723088563936,42.498211189045406,45.317726799084284,40
50.0,67.1,65.4324838510118,60.174989365209896,62.95229019372874,42.48019365728305,45.2574944858019,40
51.5,68.2,66.61920034623377,61.45087926850333,64.18565839318543,42.43354195304833,45.16832107773044,40
53.0,69.2,67.73417202856355,62.66043728316258,65.3548980352248,42.37927399333874,45.07373474540097,40
54.5,70.2,68.78292165415266,63.80575252810969,66.43373336375586,42.349188290396796,44.977169126042966,40
56.0,71.2,69.90136818556968,65.02171777726744,67.61376417412559,42.28760401144409,44.87965040830224,40
58.0,72.4,71.09013851580569,66.2943763715527,68.84945181868474,42.24068669712095,44.79576214425299,40
60.0,73.3,72.11409572434218,67.43316561637926,69.93356837898479,42.18052734535739,44.68093010796292,40
61.5,74.2,73.07843446893031,68.51176565777348,70.96819388891733,42.110240580012984,44.56666881115683,40
63.0,75.10000000000001,73.99835010125985,69.49756849751671,71.90823306959317,42.09011703166668,44.500781603743135,40
65.0,75.9,74.84902246527203,70.43123625390835,72.80463953042846,42.04438293484357,44.417786211363676,40
67.0,76.7,75.73575713073829,71.3976697272673,73.73691196821574,41.99884516252256,44.33808740347099,40
69.0,77.60000000000001,76.6584771500951,72.37398366349454,74.67634567360706,41.982131476488036,44.28449348660055,40
71.0,78.4,77.47067528641445,73.27328220563932,75.54805405287836,41.92262123353609,44.19739308077513,40
73.0,79.09999999999998,78.25221017039979,74.1170387536661,76.35383109613576,41.89837907426403,44.1351714167337,40
75.0,79.8,79.01227507445797,74.90380804841634,77.09887355168739,41.913401522770585,44.10846702604164,40
77.5,80.40000000000002,79.64994623316896,75.60517937938984,77.76139284924777,41.88855338392119,44.04476685377912,40
80.0,81.0,80.20580344548833,76.21940750794391,78.35201611166336,41.85378733382497,43.986395937544415,40
82.5,81.59999999999998,80.84285887705052,76.88581211407381,78.99613227317921,41.8467266038713,43.9570467629767,40
85.0,82.2,81.4523214226147,77.56509848179032,79.63292004895351,41.819401373661194,43.88722294082439,40
87.5,82.60000000000001,81.93540083820335,78.13808771098373,80.17420077040413,41.76120006779922,43.797313127219624,40
90.0,82.99999999999999,82.38896525675923,78.62404981146328,80.62818197119779,41.760783285561445,43.764915445295955,40
92.5,83.3,82.69770368982574,79.0027650377067,80.966035525046,41.73166816477975,43.69493865211905,40
95.0,83.6,82.97325377135036,79.30736057831065,81.25345981301173,41.71979395833863,43.66589319303971,40
97.5,83.8,83.26054577878203,79.66675974470363,81.58645072437258,41.67409505440945,43.593786034078406,40
100.0,84.2,83.59227503886181,80.05202197305897,81.9380029008773,41.65427213798452,43.540253065802844,40
103.0,84.39999999999999,83.8328361908097,80.32531999518196,82.19082202541865,41.642014165391046,43.507516195627744,40
106.0,84.5,83.99851532813936,80.53464547360277,82.38732940206738,41.61118592607198,43.4638698545366,40
109.0,84.8,84.28699429366443,80.82736687484451,82.67234099338229,41.61465330028214,43.45962741881992,40
112.0,85.0,84.50785751089617,81.05816252284875,82.89271675578551,41.61514075511066,43.449694988047426,40
115.0,85.10000000000001,84.58533601300523,81.14234583061996,82.9780983686547,41.60723764435053,43.44299018238527,40
118.0,85.2,84.67351037362629,81.22080213279317,83.06596429871529,41.607546074911,43.45270824083312,40
122.0,85.2,84.7492008711725,81.3106203083729,83.15408209455508,41.595118776617426,43.4385805627996,40
125.0,85.3,84.82783185758005,81.36270649858407,83.21855118683827,41.60928067074178,43.46512535899598,40
128.0,85.3,84.80437952829551,81.34366647170172,83.21339160311108,41.590987925184436,43.46071305659379,40
132.0,85.40000000000002,84.90437952829552,81.42202778217914,83.29790251525537,41.60647701304015,43.48235174611638,40
136.0,85.40000000000002,84.980242681717,81.49002980976483,83.3729493628157,41.6072933189013,43.49021287195217,40
140.0,85.49999999999999,85.03455731571741,81.54322711129872,83.42877302697158,41.605784288745824,43.49133020441869,40
145.0,85.49999999999999,85.0998668488642,81.5922916201208,83.48010752762774,41.61975932123646,43.50757522874339,40
150.0,85.49999999999999,85.13400698604524,81.63417617887842,83.5320584474584,41.60194853858684,43.499830807166816,40
155.0,85.6,85.18834940392519,81.65853732441339,83.56361644624921,41.624732957675974,43.5298120795118,40
160.0,85.6,85.18834940392519,81.68098023153316,83.58170944576763,41.60663995815756,43.50736917239203,40
165.0,85.6,85.23175437022813,81.72531074813766,83.62471065443354,41.60704371579459,43.50644362209047,40
170.0,85.6,85.23175437022813,81.70388139114664,83.60148227455771,41.63027209567042,43.527872979081494,40
175.0,85.6,85.22108533891027,81.66795283965622,83.57767470185291,41.64341063705736,43.55313249925405,40
180.0,85.6,85.23175437022813,81.66136695431518,83.57250062004896,41.659253750179175,43.57038741591295,40
185.0,85.7,85.24397182195698,81.62816424114976,83.56740944193366,41.67656238002331,43.615807580807214,40
190.0,85.6,85.22108533891027,81.572245218997,83.5067546303762,41.71433070853408,43.648840119913274,40
195.0,85.6,85.21133216162958,81.49215623740956,83.45502082011676,41.75631134151283,43.719175924220025,40
200.0,85.6,85.2001069378202,81.41791483093525,83.40936518125964,41.79074175656055,43.78219210688495,40
206.0,85.6,85.18859013042196,81.35408019909518,83.37546812042717,41.813122009994785,43.83450993132678,40
212.0,85.6,85.18859013042196,81.3091724887958,83.35630089501349,41.83228923540847,43.87941764162616,40
218.0,85.6,85.14572476064315,81.21532728711216,83.27644762790618,41.86927713273697,43.93039747353099,40
224.0,85.6,85.15683284287356,81.16774093145675,83.2694414329239,41.88739140994966,43.98909191141681,40
230.0,85.6,85.12440656555178,81.1023655174746,83.23223738087658,41.8921691846752,44.022041048077185,40
236.0,85.6,85.16741452250827,81.07769324397212,83.24237554622742,41.925038976280845,44.089721278536146,40
240.0,85.6,85.2001069378202,81.06251600294618,83.24604340806872,41.95406352975148,44.13759093487401,40
250.0,85.6,85.19007793520701,81.0213846890133,83.23321147750293,41.95686645770408,44.16869324619371,40
258.0,85.7,85.21241361791571,81.01481980481536,83.24617662170114,41.966236996214576,44.197593813100355,40
265.0,85.7,85.19142106397778,80.95218374559404,83.20579346574473,41.98562759823305,44.23923731838374,40
272.0,85.7,85.20216312868907,80.93490641104998,83.21873924829971,41.98342388038935,44.267256717639086,40
280.0,85.7,85.20361253641275,80.88976369967322,83.19830985724806,42.005302679164686,44.313848836739524,40
290.0,85.7,85.20361253641275,80.87013708210037,83.18952330831787,42.014089228094875,44.33347545431238,40
300.0,85.7,85.2153566027396,80.82015812398357,83.17759780067182,42.037758802067785,44.39519847875603,40
307.0,85.6,85.13988897427572,80.6988066097215,83.07611581156449,42.06377316271123,44.44108236455422,40
315.0,85.6,85.05236723698289,80.5701054314347,82.97211710959876,42.08025012738413,44.48226180554819,40
325.0,85.49999999999999,84.99723475290614,80.4662504379567,82.88217202721943,42.11506272568671,44.530984314949436,40
335.0,85.49999999999999,84.95605142905106,80.3478417569033,82.77520017786968,42.18085125118138,44.60820967214775,40
345.0,85.40000000000002,84.87976547709775,80.2271338571958,82.67170635872891,42.20805911836884,44.65263161990195,40
355.0,85.40000000000002,84.85255195106406,80.12085237148248,82.57916628301925,42.27338566804481,44.73169957958157,40
365.0,85.3,84.77683633554321,80.01144978048696,82.4746699469297,42.302166388613514,44.76538655505625,40
375.0,85.40000000000002,84.81330275876375,79.95897650859604,82.45080880856797,42.362493950195784,44.854326250167716,40
387.0,85.40000000000002,84.80797760016186,79.86778467428375,82.35899082903786,42.448986771124,44.94019292587811,40
400.0,85.40000000000002,84.74530197526121,79.70502718228893,82.21670595217375,42.52859602308746,45.04027479297228,40
412.0,85.40000000000002,84.75720456930232,79.63823349589865,82.1704494071749,42.58675516212742,45.11897107340367,40
425.0,85.40000000000002,84.74897346475487,79.50420358740095,82.07048527019344,42.678488194561425,45.24476987735392,40
437.0,85.3,84.64013632913456,79.2698810862117,81.88365961552066,42.75647671361391,45.370255242922866,40
450.0,85.3,84.64013632913456,79.14384761376857,81.80467322506802,42.83546310406655,45.49628871536599,40
462.0,85.2,84.54013632913457,78.93312548877081,81.65130417398372,42.88883215515085,45.607010840363756,40
475.0,85.2,84.48646026385276,78.74824513074014,81.53837278478085,42.948087479071916,45.73821513311262,40
487.0,85.0,84.31592479866204,78.45813793275407,81.3404071109575,42.97551768770454,45.85778686590797,40
500.0,85.0,84.2831019834767,78.28213667936525,81.22971412965684,43.053387853819856,46.000965304111446,40
515.0,85.0,84.27099427010414,78.15522369658822,81.174908242957,43.09608602714714,46.11577057351592,40
530.0,85.0,84.30234900999875,78.07706638020845,81.17130816665816,43.131040843340585,46.2252826297903,40
545.0,85.0,84.35517834772834,78.00198246199571,81.19210654588795,43.16307180184039,46.35319588573263,40
560.0,85.10000000000001,84.45202925150654,77.98021352054289,81.25331716283036,43.19871208867619,46.471815730963655,40
580.0,85.2,84.55202925150655,77.95063446862855,81.30493054193235,43.2470987095742,46.601394782878,40
600.0,85.2,84.59441360348715,77.87707384865588,81.30441339009337,43.29000021339378,46.71733975483127,40
615.0,85.10000000000001,84.5357716923501,77.70241889866924,81.20072419636203,43.335047495988064,46.83335279368086,40
630.0,85.0,84.41687038512607,77.48300876216716,81.04058891243426,43.376281472691815,46.933861622958915,40
650.0,84.9,84.30428956551691,77.26241646051757,80.86811430307866,43.436175262438255,47.04187310499934,40
670.0,84.7,84.10428956551691,76.9542579235116,80.61644311888527,43.487846446631636,47.1500316420053,40
690.0,84.6,84.02856586714732,76.78518242003767,80.5021330443057,43.52643282284163,47.24338344710965,40
710.0,84.9,84.28680308094972,76.90451175029547,80.68823186720698,43.598571213742744,47.382291330654255,40
730.0,85.40000000000002,84.73310644057645,77.25948612497055,81.08606907979573,43.647037360780715,47.4736203156059,40
750.0,85.8,85.13519375134435,77.57862555743505,81.45033642909023,43.68485732225412,47.5565681939093,40
775.0,86.0,85.27642914617245,77.6432629936449,81.55030820160748,43.72612094456497,47.63316615252755,40
800.0,85.8,84.98188494499631,77.31693773892174,81.25384412628294,43.72804081871337,47.66494720607457,40
825.0,85.10000000000001,84.31858852756899,76.68824914804834,80.61149564252659,43.7070928850424,47.63033937952065,40
850.0,84.8,83.91780728507818,76.37185097321647,80.28608471753228,43.63172256754591,47.545956311861715,40
875.0,85.40000000000002,84.4987960070513,77.10903999755229,80.97149065093554,43.52730535611576,47.38975600949901,40
900.0,86.0,85.061591813954,77.85614434914784,81.645859031232,43.41573278272199,47.205447464806156,40
925.0,86.59999999999998,85.67211538884271,78.69713831865126,82.37991598397262,43.29219940487009,46.97497707019146,40
950.0,86.0,85.03693576059625,78.35816274377825,81.91424212411923,43.122693636477024,46.678773016818,40
975.0,84.2,83.23938587317441,76.96539885134271,80.32679782601753,42.91258804715689,46.2739870218317,40
1000.0,84.00000000000001,83.01697686957364,77.09034390180847,80.28898035587063,42.727996513703005,45.92663296776517,40
1030.0,84.39999999999999,83.43517561461387,77.74479632750435,80.8494684337095,42.585707180904365,45.69037928710952,40
1060.0,83.6,82.77141881227881,77.11265903714094,80.22013096166951,42.5512878506093,45.65875977513787,40
1090.0,82.2,81.48048703735508,75.70803374844822,78.86361858588042,42.61686845147466,45.77245328890686,40
1120.0,82.4,81.80987245777152,75.92543319716412,79.14153060063926,42.66834185713226,45.884439260607394,40
1150.0,83.6,83.06116533556718,77.0003241920115,80.2862724755303,42.774892860036886,46.06084114355568,40
1180.0,84.09999999999998,83.46528515629434,77.17561471678478,80.5598331772044,42.905451979089946,46.289670439509564,40
1220.0,83.6,82.8387584707358,76.24167779598217,79.7406470824255,43.0981113883103,46.59708067475363,40
1250.0,83.5,82.59238668473812,75.64145886606529,79.28671683200095,43.30566985273717,46.950927818672824,40
1280.0,84.5,83.32636002356217,76.01099669155856,79.78528723118255,43.54107279237962,47.31536333200361,40
1320.0,85.3,83.9272734647988,76.24892574369356,80.16672889231974,43.76054457247906,47.67834772110524,40
1360.0,85.8,84.118274102934,76.0258116372291,80.10771301874861,44.01056108418538,48.0924624657049,40
1400.0,86.59999999999998,84.78617330657055,76.41941686835632,80.60019033855293,44.18598296801761,48.366756438214225,40
1450.0,87.8,85.79669058928118,77.23672340476892,81.51527055656953,44.28142003271165,48.55996718451226,40
1500.0,87.99999999999999,85.94129617223298,77.31078166533408,81.63073031575816,44.310565856474824,48.630514506898905,40
1550.0,87.0,85.00549544800593,76.37412531926161,80.71919521474702,44.28630023325891,48.63137012874432,40
1600.0,86.8,84.7881168626259,76.16626303175677,80.54385476040612,44.24426210221978,48.62185383086913,40
1650.0,86.8,84.80174663928449,76.20619797722,80.59949992366343,44.20224671562106,48.59554866206449,40
1700.0,85.8,83.94528898860808,75.39754346067569,79.81544600872482,44.129842979883264,48.54774552793239,40
1750.0,85.2,83.49107447739016,74.97436314631506,79.43922821679804,44.051846260592114,48.5167113310751,40
1800.0,84.6,83.09157564601053,74.61052681201528,79.11182816831263,43.9797474776979,48.481048833995246,40
1850.0,83.9,82.53243065221967,74.03645252913812,78.57616512190633,43.956265530313345,48.49597812308156,40
1900.0,83.9,82.6005749649436,73.99882833259086,78.59238093616575,44.00819402877785,48.60174663235274,40
1950.0,83.8,82.61922055876913,73.92197894300061,78.56334433543317,44.05587622333596,48.69724161576852,40
2000.0,83.9,82.7349880355331,73.89637425428317,78.59201339662447,44.14297463890864,48.83861378124993,40
2060.0,84.3,83.17948505511508,74.21305468681992,78.92909815422094,44.25038690089414,48.966430368295164,40
2120.0,85.0,83.80196145997485,74.69988130299883,79.44639952269905,44.355561937275795,49.102080156976015,40
2180.0,85.3,83.97799026414954,74.72230642086924,79.49977783958698,44.47821242456256,49.255683843280295,40
2240.0,85.3,83.86192638987352,74.42792054663944,79.21591758856741,44.64600880130611,49.434005843234075,40
2300.0,85.40000000000002,83.81651839321763,74.25000780260709,79.06609274577625,44.75042564744139,49.56651059061055,40
2360.0,85.49999999999999,83.75174138895325,74.0472892337364,78.86561147725578,44.886129911697466,49.704452155216856,40
2400.0,85.6,83.7086711034383,73.90934083587034,78.73636261554306,44.97230848789525,49.79933026756797,40
2500.0,86.2,84.2563384234117,74.39169058784093,79.21871259794415,45.03762582546756,49.86464783557078,40
2580.0,87.1,85.11584564469464,75.21603501184332,80.0609131164394,45.05493252825525,49.89981063285133,40
2650.0,87.5,85.56155155591085,75.67752439855929,80.53584834439722,45.02570321151363,49.88402715735157,40
2720.0,87.1,85.257080295933,75.41959960889297,80.29617226062511,44.96090803530788,49.83748068704003,40
2800.0,86.2,84.43416227092398,74.6826396869912,79.54297748482979,44.891184786094186,49.75152258393278,40
2900.0,85.3,83.69686709998439,74.08148338810392,78.90925621899741,44.787610880986975,49.61538371188047,40
3000.0,84.7,83.26892624225522,73.8337027620832,78.61407519013044,44.65485105212478,49.43522348017201,40
3070.0,83.9,82.71273283694732,73.55129658889801,78.25693055628155,44.45580228066578,49.16143624804931,40
3150.0,83.3,82.35366204185216,73.51097926620777,78.13834719790215,44.21531484395001,48.84268277564439,40
3250.0,82.99999999999999,82.11354492312181,73.54936925462154,78.11218725398611,44.0013576691357,48.56417566850027,40
3350.0,82.7,81.84781431097653,73.58200423881767,78.08299849079273,43.7648158201838,48.26581007215886,40
3450.0,82.3,81.35130376557353,73.370095949609,77.83278113477456,43.51852263079897,47.98120781596454,40
3550.0,81.89999999999999,80.85832306921618,73.08105901268867,77.50092861141577,43.35739445780041,47.777264056527514,40
3650.0,82.60000000000001,81.34636671908974,73.6448195374672,78.0570825949679,43.28928412412185,47.701547181622544,40
3750.0,84.00000000000001,82.5078750863003,74.80154866362561,79.1947551948312,43.3131198914691,47.70632642267469,40
3870.0,85.6,83.75790218296909,75.9430904584881,80.35724554892516,43.400656634043926,47.81481172448099,40
4000.0,86.7,84.52776262637919,76.58070875642242,81.01192304507553,43.51583958130365,47.94705386995676,40
4120.0,86.8,84.47240339809743,76.42297670376855,80.89978743187005,43.572615966227374,48.04942669432887,40
4250.0,86.50000000000001,84.0502718274855,75.90849543983302,80.4327544345718,43.6175173929137,48.141776387652484,40
4370.0,86.1,83.73945476626413,75.54215363619363,80.09522970342572,43.644225062838416,48.1973011300705,40
