Freq "Early Reflections DI"
22.4 44.866565080313535
23.0 44.87027171217247
23.6 44.789895249152124
24.0 44.713214484582096
25.0 44.58339621895453
25.8 44.42258241120325
26.5 44.28949396354366
27.2 44.05356372511693
28.0 43.832366902360434
29.0 43.70061234486087
30.0 43.53120726808868
30.7 43.35373751689221
31.5 43.11444832874267
32.5 42.993621302361476
33.5 42.884193964708174
34.5 42.765750888075445
35.5 42.6679848890729
36.5 42.6352002622622
37.5 42.624085720281585
38.7 42.61199046552338
40.0 42.555994610177095
41.2 42.5629499022389
42.5 42.55044465321035
43.7 42.549273502838304
45.0 42.562037430510344
46.2 42.5336227715907
47.5 42.502767129692785
48.7 42.498211189045406
50.0 42.48019365728305
51.5 42.43354195304833
53.0 42.37927399333874
54.5 42.349188290396796
56.0 42.28760401144409
58.0 42.24068669712095
60.0 42.18052734535739
61.5 42.110240580012984
63.0 42.09011703166668
65.0 42.04438293484357
67.0 41.99884516252256
69.0 41.982131476488036
71.0 41.92262123353609
73.0 41.89837907426403
75.0 41.913401522770585
77.5 41.88855338392119
80.0 41.85378733382497
82.5 41.8467266038713
85.0 41.819401373661194
87.5 41.76120006779922
90.0 41.760783285561445
92.5 41.73166816477975
95.0 41.71979395833863
97.5 41.67409505440945
100.0 41.65427213798452
103.0 41.642014165391046
106.0 41.61118592607198
109.0 41.61465330028214
112.0 41.61514075511066
115.0 41.60723764435053
118.0 41.607546074911
122.0 41.595118776617426
125.0 41.60928067074178
128.0 41.590987925184436
132.0 41.60647701304015
136.0 41.6072933189013
140.0 41.605784288745824
145.0 41.61975932123646
150.0 41.60194853858684
155.0 41.624732957675974
160.0 41.60663995815756
165.0 41.60704371579459
170.0 41.63027209567042
175.0 41.64341063705736
180.0 41.659253750179175
185.0 41.67656238002331
190.0 41.71433070853408
195.0 41.75631134151283
200.0 41.79074175656055
206.0 41.813122009994785
212.0 41.83228923540847
218.0 41.86927713273697
224.0 41.88739140994966
230.0 41.8921691846752
236.0 41.925038976280845
240.0 41.95406352975148
250.0 41.95686645770408
258.0 41.966236996214576
265.0 41.98562759823305
272.0 41.98342388038935
280.0 42.005302679164686
290.0 42.014089228094875
300.0 42.037758802067785
307.0 42.06377316271123
315.0 42.08025012738413
325.0 42.11506272568671
335.0 42.18085125118138
345.0 42.20805911836884
355.0 42.27338566804481
365.0 42.302166388613514
375.0 42.362493950195784
387.0 42.448986771124
400.0 42.52859602308746
412.0 42.58675516212742
425.0 42.678488194561425
437.0 42.75647671361391
450.0 42.83546310406655
462.0 42.88883215515085
475.0 42.948087479071916
487.0 42.97551768770454
500.0 43.053387853819856
515.0 43.09608602714714
530.0 43.131040843340585
545.0 43.16307180184039
560.0 43.19871208867619
580.0 43.2470987095742
600.0 43.29000021339378
615.0 43.335047495988064
630.0 43.376281472691815
650.0 43.436175262438255
670.0 43.487846446631636
690.0 43.52643282284163
710.0 43.598571213742744
730.0 43.647037360780715
750.0 43.68485732225412
775.0 43.72612094456497
800.0 43.72804081871337
825.0 43.7070928850424
850.0 43.63172256754591
875.0 43.52730535611576
900.0 43.41573278272199
925.0 43.29219940487009
950.0 43.122693636477024
975.0 42.91258804715689
1000.0 42.727996513703005
1030.0 42.585707180904365
1060.0 42.5512878506093
1090.0 42.61686845147466
1120.0 42.66834185713226
1150.0 42.774892860036886
1180.0 42.905451979089946
1220.0 43.0981113883103
1250.0 43.30566985273717
1280.0 43.54107279237962
1320.0 43.76054457247906
1360.0 44.01056108418538
1400.0 44.18598296801761
1450.0 44.28142003271165
1500.0 44.310565856474824
1550.0 44.28630023325891
1600.0 44.24426210221978
1650.0 44.20224671562106
1700.0 44.129842979883264
1750.0 44.051846260592114
1800.0 43.9797474776979
1850.0 43.956265530313345
1900.0 44.00819402877785
1950.0 44.05587622333596
2000.0 44.14297463890864
2060.0 44.25038690089414
2120.0 44.355561937275795
2180.0 44.47821242456256
2240.0 44.64600880130611
2300.0 44.75042564744139
2360.0 44.886129911697466
2400.0 44.97230848789525
2500.0 45.03762582546756
2580.0 45.05493252825525
2650.0 45.02570321151363
2720.0 44.96090803530788
2800.0 44.891184786094186
2900.0 44.787610880986975
3000.0 44.65485105212478
3070.0 44.45580228066578
3150.0 44.21531484395001
3250.0 44.0013576691357
3350.0 43.7648158201838
3450.0 43.51852263079897
3550.0 43.35739445780041
3650.0 43.28928412412185
3750.0 43.3131198914691
3870.0 43.400656634043926
4000.0 43.51583958130365
4120.0 43.572615966227374
4250.0 43.6175173929137
4370.0 43.644225062838416
4500.0 43.597126700200306
4620.0 43.537850384837455
4750.0 43.47146757737879
4870.0 43.36327989824832
5000.0 43.28782013422739
5150.0 43.21762591095168
5300.0 43.14653708347966
5450.0 43.10939111341861
5600.0 43.0394167087791
5800.0 42.98152513772928
6000.0 42.907040329800324
6150.0 42.80227557422663
6300.0 42.72346161470162
6500.0 42.66388720261858
6700.0 42.58041786648279
6900.0 42.477399279662436
7100.0 42.4056398336822
7300.0 42.327569765302016
7500.0 42.31421197956041
7750.0 42.34122044590303
8000.0 42.37163808086093
8250.0 42.39525764909736
8500.0 42.40413563582251
8750.0 42.414279022814185
9000.0 42.44806674855781
9250.0 42.5101025486141
9500.0 42.578390396784386
9750.0 42.709016207247856
10000.0 42.830438526371196
10300.0 42.94410340997884
10600.0 43.06945787330051
10900.0 43.174109388396616
11200.0 43.30659826435614
11500.0 43.40409497022462
11800.0 43.495226436760774
12200.0 43.6117135889226
12500.0 43.69524242134696
12800.0 43.77619924632795
13200.0 43.874663604243196
13600.0 43.98878779584079
14000.0 44.102206662368914
14500.0 44.218001888555236
15000.0 44.38027103224411
15500.0 44.5450772564771
16000.0 44.70084858624149
16500.0 44.79614310542502
17000.0 44.873563588404494
17500.0 44.891430247393814
18000.0 44.898769197951054
18500.0 44.88825338652342
19000.0 44.79120325703292
19500.0 44.65482274576544
