Freq "Sound Power"
22.4 24.17839893217571
23.0 24.812689654930224
23.6 25.620344043343366
24.0 27.644463231530963
25.0 29.155853721246345
25.8 30.455214574450068
26.5 31.60889224877708
27.2 32.55870446127987
28.0 33.38295575522467
29.0 34.20246087081934
30.0 35.355779351598656
30.7 37.15992874466967
31.5 38.70757844537535
32.5 40.059941658266425
33.5 41.22403063740076
34.5 42.27595867570123
35.5 43.40211802996639
36.5 45.24764489708163
37.5 46.870272148799856
38.7 48.28093629357032
40.0 49.52208788648535
41.2 50.730658409221704
42.5 52.24943443278944
43.7 53.78778325388028
45.0 55.11526523171379
46.2 56.341715110699155
47.5 57.52786838317469
48.7 58.967587225360504
50.0 60.30536911204531
51.5 61.581259015338745
53.0 62.790817029997996
54.5 63.93613227494512
56.0 65.15209752410286
58.0 66.42475611838815
60.0 67.56354536321467
61.5 68.64214540460891
63.0 69.62794824435214
65.0 70.5616160007438
67.0 71.52804947410272
69.0 72.50436341032996
71.0 73.40366195247475
73.0 74.24741850050151
75.0 75.03418779525177
77.5 75.73555912622525
80.0 76.34978725477934
82.5 77.01619186090925
85.0 77.69547822862575
87.5 78.26846745781917
90.0 78.75442955829872
92.5 79.13314478454211
95.0 79.43774032514608
97.5 79.79713949153904
100.0 80.18240171989439
103.0 80.45569974201737
106.0 80.6650252204382
109.0 80.95774662167995
112.0 81.18854226968419
115.0 81.27272557745538
118.0 81.3511818796286
122.0 81.44100005520833
125.0 81.4930862454195
128.0 81.47404621853715
132.0 81.55240752901459
136.0 81.62040955660028
140.0 81.67360685813416
145.0 81.72267136695622
150.0 81.76455592571384
155.0 81.78891707124882
160.0 81.81135997836859
165.0 81.85569049497308
170.0 81.83426113798207
175.0 81.79833258649165
180.0 81.79174670115061
185.0 81.75854398798519
190.0 81.70262496583244
195.0 81.62253598424499
200.0 81.54829457777068
206.0 81.48445994593061
212.0 81.43955223563123
218.0 81.34570703394759
224.0 81.29812067829218
230.0 81.23274526431003
236.0 81.20807299080757
240.0 81.1928957497816
250.0 81.15176443584872
258.0 81.14519955165079
265.0 81.08256349242946
272.0 81.0652861578854
280.0 81.02014344650865
290.0 81.0005168289358
300.0 80.950537870819
307.0 80.82918635655693
315.0 80.70048517827014
325.0 80.59663018479213
335.0 80.47822150373872
345.0 80.35751360403123
355.0 80.2512321183179
365.0 80.14182952732237
375.0 80.08935625543145
387.0 79.99816442111917
400.0 79.83540692912437
412.0 79.76861324273408
425.0 79.63458333423637
437.0 79.40026083304713
450.0 79.27422736060399
462.0 79.06350523560624
475.0 78.87862487757558
487.0 78.58851767958949
500.0 78.41251642620067
515.0 78.28560344342365
530.0 78.20744612704388
545.0 78.13236220883114
560.0 78.11059326737832
580.0 78.08101421546398
600.0 78.00745359549131
615.0 77.83279864550467
630.0 77.61338850900259
650.0 77.392796207353
670.0 77.08463767034705
690.0 76.9155621668731
710.0 77.0348914971309
730.0 77.38986587180597
750.0 77.70900530427048
775.0 77.77364274048033
800.0 77.44731748575715
825.0 76.81862889488377
850.0 76.5022307200519
875.0 77.23941974438772
900.0 77.98652409598328
925.0 78.82751806548669
950.0 78.48854249061368
975.0 77.09577859817814
1000.0 77.2207236486439
1030.0 77.87517607433979
1060.0 77.24303878397639
1090.0 75.83841349528366
1120.0 76.05581294399956
1150.0 77.13070393884693
1180.0 77.3059944636202
1220.0 76.37205754281761
1250.0 75.77183861290072
1280.0 76.14137643839398
1320.0 76.379305490529
1360.0 76.15619138406451
1400.0 76.54979661519175
1450.0 77.36710315160435
1500.0 77.4411614121695
1550.0 76.50450506609702
1600.0 76.2966427785922
1650.0 76.33657772405543
1700.0 75.52792320751111
1750.0 75.10474289315049
1800.0 74.74090655885071
1850.0 74.16683227597353
1900.0 74.12920807942628
1950.0 74.05235868983605
2000.0 74.0267540011186
2060.0 74.34343443365535
2120.0 74.83026104983428
2180.0 74.85268616770466
2240.0 74.55830029347487
2300.0 74.38038754944252
2360.0 74.17766898057182
2400.0 74.03972058270578
2500.0 74.52207033467636
2580.0 75.34641475867876
2650.0 75.80790414539472
2720.0 75.5499793557284
2800.0 74.81301943382661
2900.0 74.21186313493935
3000.0 73.96408250891864
3070.0 73.68167633573346
3150.0 73.6413590130432
3250.0 73.67974900145697
3350.0 73.7123839856531
3450.0 73.50047569644443
3550.0 73.21143875952411
3650.0 73.77519928430264
3750.0 74.93192841046105
3870.0 76.07347020532355
4000.0 76.71108850325786
4120.0 76.553356450604
4250.0 76.03887518666845
4370.0 75.67253338302906
4500.0 75.4131799501035
4620.0 75.12356328562795
4750.0 74.78668683112342
4870.0 74.48564660816037
5000.0 73.98671562291058
5150.0 73.30631274615567
5300.0 73.35160685738337
5450.0 74.94012263767551
5600.0 76.34643815517059
5800.0 76.34363409430404
6000.0 75.9549459936916
6150.0 74.64315033030928
6300.0 74.26156107672456
6500.0 75.46439452254229
6700.0 75.40939627639032
6900.0 75.44516943353202
7100.0 76.42464739842102
7300.0 76.08300337085315
7500.0 75.48799768335248
7750.0 75.22893642186907
8000.0 75.545693518476
8250.0 76.1533167163811
8500.0 76.36526933675964
8750.0 77.02405947722683
9000.0 77.35156694922463
9250.0 77.67558316033555
9500.0 77.24479831164429
9750.0 76.25099364684726
10000.0 74.9715856812615
10300.0 73.98520473296038
10600.0 74.61964357435481
10900.0 75.35426379405689
11200.0 75.91945734554116
11500.0 75.96504308713595
11800.0 74.79641610235136
12200.0 73.35532313979917
12500.0 73.05223748243962
12800.0 73.87646114023586
13200.0 74.57325896902552
13600.0 74.17945938135253
14000.0 72.46326690533633
14500.0 72.28042318902739
15000.0 73.23877163480927
15500.0 73.85177215515272
16000.0 74.00168723083951
16500.0 73.43473435465071
17000.0 72.23224039245898
17500.0 70.25381343294616
18000.0 68.94842328921925
18500.0 63.829201290748685
19000.0 62.21560175931249
19500.0 58.87550383061178
