Freq,On Axis,Listening Window,Sound Power,Early Reflections,Early Reflections DI,Sound Power DI,DI offset
20.5078,69.45770612844865,69.32412732343126,75.16758830886076,73.11993672104894,36.20419060238231,34.1565390145705,40
21.2402,72.13920612844865,72.13773612011121,77.60594955203288,75.54392302323605,36.59381309687517,34.53178656807833,40
21.9727,73.90880612844865,73.94606303727828,78.79696003076373,76.85933457884869,37.08672845842959,35.14910300651455,40
22.7051,75.53680612844865,75.59652872220227,79.78363142712635,78.02816713134526,37.56836159085701,35.81289729507591,40
23.4375,76.59070612844864,76.66101015765217,80.63001159074382,78.92217356136966,37.73883659628251,36.03099856690835,40
24.1699,78.26840612844863,78.33708792826931,81.69786011173743,80.17016767220156,38.166920256067755,36.639227816531886,40
25.6348,79.63320612844865,79.6809744572641,81.6907334749153,80.68870686692834,38.99226759033576,37.990240982348794,40
26.3672,79.87120612844863,79.91182525107298,81.83403861575464,80.87466925835832,39.03715599271466,38.07778663531835,40
27.0996,79.89680612844865,79.94640453330504,81.99269872102076,80.98084828137284,38.9655562519322,37.953705812284284,40
27.832,80.28440612844862,80.33844898102672,82.41581521277432,81.37970741609982,38.958741564926896,37.922633768252396,40
29.2969,81.19130612844866,81.24532399882851,83.04994114864974,82.11711157308727,39.12821242574124,38.195382850178774,40
30.0293,81.74230612844865,81.79049712471335,83.33958198663986,82.52651268725525,39.263984437458106,38.4509151380735,40
31.4941,82.95610612844864,82.99508490563426,84.26600668737804,83.55496960641281,39.440115299221446,38.72907821825622,40
32.2266,83.34000612844865,83.37337984620244,84.47350714743904,83.83794044599462,39.53543940020782,38.8998726987634,40
33.6914,84.25750612844864,84.28131147596393,85.1335580686613,84.61581256306785,39.66549891289608,39.14775340730263,40
34.4238,84.57690612844864,84.60012343110738,85.41972630539571,84.9165020127657,39.68362141834167,39.180397125711664,40
35.8887,85.18360612844864,85.199319286314,85.79292299071139,85.40933399031834,39.78998529599565,39.406396295602605,40
37.3535,85.84680612844865,85.86188198833554,86.43177538666689,86.05176115575671,39.81012083257883,39.430106601668655,40
38.8184,86.37440612844865,86.3860072612015,86.8414609623891,86.53080828508817,39.85519897611333,39.54454629881239,40
39.5508,86.69850612844864,86.70899256768847,87.13556193553188,86.83939682500136,39.86959574268711,39.57343063215659,40
41.0156,87.14920612844864,87.1550783358382,87.48376530220143,87.23109369644835,39.92398463938984,39.671313033636764,40
42.4805,87.78370612844864,87.78540919482397,87.99192986744886,87.79765056754981,39.98775862727416,39.79347932737511,40
43.9453,88.04120612844865,88.03997414635448,88.1736768711847,88.01641389034963,40.023560256004856,39.866297275169785,40
45.4102,88.44070612844864,88.43589909712448,88.46320807973837,88.3640246432376,40.07187445388688,39.97269101738611,40
47.6074,88.71590612844865,88.70779424832335,88.64889189726318,88.59287551269372,40.11491873562963,40.05890235106017,40
49.0723,88.85100612844865,88.84019790621396,88.70943431113402,88.69116501808631,40.14903288812765,40.13076359507994,40
50.5371,88.89880612844864,88.88581417094908,88.6955048126178,88.70762549168718,40.17818867926189,40.19030935833128,40
52.7344,88.98940612844865,88.97420793332041,88.7126134453868,88.75957918368609,40.21462874963433,40.26159448793362,40
54.1992,89.02280612844864,89.00570015825848,88.6777955837791,88.7610683119392,40.24463184631928,40.327904574479376,40
56.3965,88.80850612844864,88.78632440710362,88.29214464419012,88.4726889014102,40.313635505693426,40.494179762913504,40
58.5938,88.60690612844864,88.57927996429979,88.01381917782611,88.22791055639945,40.351369407900336,40.56546078647368,40
60.0586,88.53700612844862,88.50621859936084,87.8592531882807,88.12204593747758,40.384172661883255,40.64696541108013,40
62.2559,88.46410612844865,88.43464058318155,87.78828481452605,88.05975214157064,40.374888441610906,40.646355768655496,40
64.4531,88.28250612844865,88.25043801114775,87.58193692350399,87.86651285021865,40.383925160929095,40.66850108764376,40
66.6504,88.15510612844862,88.11877323989337,87.37943078561715,87.70393284619728,40.414840393696096,40.739342454276226,40
69.5801,88.18000612844865,88.13919596998126,87.32624376714139,87.6805886401084,40.45860732987286,40.81295220283987,40
71.7773,88.22640612844864,88.17999038348366,87.29952794426795,87.68058505142307,40.49940533206059,40.880462439215705,40
73.9746,88.36800612844864,88.31553087746322,87.31885647579831,87.75711670604889,40.55841417141433,40.996674401664905,40
76.9043,88.70780612844864,88.646779271428,87.40600437751877,87.98453700949015,40.66224226193785,41.24077489390923,40
79.834,88.87370612844863,88.8117646138034,87.41311155737186,88.09089313695267,40.72087147685073,41.39865305643154,40
82.7637,89.18950612844864,89.12134595231646,87.73242046344483,88.40231457237569,40.71903137994077,41.388925488871635,40
85.6934,89.48130612844864,89.40628561099194,87.84443798603509,88.60953605631776,40.79674955467418,41.561847624956854,40
88.623,89.91020612844865,89.8312292098823,88.09407572713829,88.97036339277818,40.86086581710411,41.737153482744006,40
91.5527,90.28500612844864,90.20373186699018,88.36080057570739,89.30900779950933,40.89472406748085,41.842931291282795,40
94.4824,90.58210612844864,90.49997451334077,88.59597729204172,89.58914935466453,40.910825158676246,41.90399722129905,40
98.1445,90.73730612844865,90.6547619413842,88.76291727144624,89.7530833956859,40.90167854569829,41.89184466993795,40
101.807,90.75060612844864,90.66535103958866,88.71204124260753,89.74034259662194,40.925008442966714,41.95330979698113,40
105.469,90.72560612844865,90.6384230373131,88.58128928658346,89.68066338530978,40.95775965200332,42.05713375072965,40
109.131,90.63270612844865,90.54293149510846,88.45234234360225,89.58187327158895,40.961058223519515,42.09058915150621,40
112.793,90.53240612844864,90.42746965591141,88.1930121504144,89.39862930134706,41.02884035456435,42.234457505497005,40
116.455,90.64300612844865,90.52785275013899,88.09736568222644,89.41718553337793,41.11066721676106,42.43048706791255,40
120.85,91.03210612844863,90.91597468264793,88.44967120333403,89.78414274515072,41.13183193749721,42.46630347931389,40
125.244,90.79350612844864,90.68389029012533,88.50529398629104,89.6458092579366,41.03808103218873,42.1785963038343,40
129.639,90.65550612844865,90.52772416508152,88.14039814480506,89.3792352496144,41.14848891546713,42.38732602027646,40
134.033,90.93620612844865,90.8092704383611,88.08493061600593,89.5602427341846,41.2490277041765,42.72433982235516,40
138.428,90.94010612844865,90.82637352847595,88.2332755408916,89.65693064717415,41.169442881301805,42.59309798758436,40
143.555,90.58480612844865,90.46535752842337,87.99700845852257,89.32194750157149,41.14341002685188,42.468349069900796,40
148.682,90.16910612844865,90.08697469274807,87.70678229935227,89.04346534040191,41.04350935234616,42.3801923933958,40
153.809,89.74520612844866,89.67840370149138,87.45013172201256,88.71796659286186,40.96043710862952,42.22827197947882,40
159.668,89.36450612844864,89.29938881964665,87.13334514128054,88.35688463755599,40.94250418209066,42.16604367836611,40
164.795,89.15620612844863,89.08870323859158,86.79852250029114,88.08759667230544,41.00110656628614,42.290180738300435,40
170.654,89.33110612844864,89.24657667351774,86.64333660895822,88.08646409764565,41.16011257587209,42.603240064559515,40
176.514,89.38130612844864,89.29824501193833,86.66767819262532,88.13722574461939,41.16101926731895,42.63056681931302,40
183.105,89.28500612844864,89.15640367891335,86.50802840920316,87.94786054866574,41.208543130247605,42.648375269710186,40
189.697,88.95220612844864,88.8094584623965,86.0738585591347,87.58429479131125,41.225163671085255,42.7355999032618,40
196.289,88.62040612844864,88.48289043170028,85.75722488491236,87.31193381184411,41.17095661985617,42.72566554678792,40
202.881,88.30040612844864,88.16643543383319,85.5235109957677,86.95970810480163,41.20672732903155,42.64292443806549,40
210.205,88.18780612844863,88.06195850549108,85.4426401464897,86.81748598650393,41.24447251898715,42.61931835900138,40
217.529,88.28690612844865,88.14672818263871,85.56909620508104,86.87883012417686,41.26789805846185,42.57763197755767,40
225.586,88.39610612844864,88.19574785976373,85.62581147238676,86.77035510639064,41.42539275337309,42.56993638737697,40
232.91,88.77590612844865,88.59124169252972,85.57888149629193,86.8556418826387,41.73559980989103,43.01236019623779,40
241.699,88.03760612844864,87.91988558405706,85.08419775163765,86.41083516517418,41.50905041888288,42.83568783241941,40
249.756,86.65400612844864,86.48235010000612,84.29640565587985,85.30113552877641,41.1812145712297,42.185944444126264,40
258.545,86.86580612844864,86.6703907970442,84.05120001807246,85.16905540624754,41.50133539079667,42.61919077897174,40
268.066,87.38990612844864,87.11175254660927,83.94129460508684,85.28458910352167,41.8271634430876,43.17045794152243,40
277.588,87.95130612844865,87.62535442418921,83.87556792646201,85.38531378225484,42.24004064193437,43.7497864977272,40
287.109,87.40460612844866,87.11322542228385,83.30054559417157,84.81920682203386,42.294018600249984,43.81267982811228,40
297.363,87.17840612844864,86.93301113000815,83.17323443317962,84.51839088968597,42.41462024032218,43.75977669682854,40
307.617,86.81010612844864,86.43474124415941,82.61308217458806,84.35300199929192,42.08173924486749,43.82165906957135,40
318.604,88.94860612844865,88.65185019359996,84.25198440523577,86.41168401418878,42.240166179411176,44.39986578836418,40
329.59,88.93130612844864,88.63330519917851,84.73860701684136,86.59877966758286,42.03452553159565,43.89469818233715,40
341.309,89.10450612844865,88.6881967305027,84.68454272667707,86.21347317053993,42.47472355996277,44.00365400382563,40
353.76,90.37100612844864,89.93957005272343,84.81579638974874,86.76802280971478,43.171547243008646,45.123773662974685,40
366.211,89.78930612844864,89.42607811399455,85.02935961517078,87.01975823199842,42.406319881996126,44.39671849882377,40
378.662,90.14830612844862,89.71136401760097,84.86463233384374,86.70950144303323,43.00186257456774,44.84673168375723,40
392.578,90.81950612844864,90.4404400032641,85.13506106614165,87.45080127544058,42.98963872782352,45.305378937122455,40
405.762,90.38450612844865,90.10811911737967,85.11222880681647,87.46119171752527,42.646927399854405,44.9958903105632,40
420.41,88.95240612844864,88.76308738650266,84.54020415483093,86.64096561581698,42.12212177068568,44.22288323167173,40
435.059,88.93120612844864,88.67929109831464,84.60556583853791,86.50347384100691,42.17581725730773,44.07372525977672,40
450.439,89.13600612844864,88.71712021100065,84.42658494357116,86.51813223065196,42.19898798034869,44.29053526742949,40
466.553,89.89940612844863,89.42189911420456,84.17125185451947,86.3700157434298,43.05188337077476,45.250647259685095,40
482.666,89.88850612844864,89.47941420184048,84.41641660266983,87.05411041260197,42.42530378923851,45.06299759917066,40
500.244,89.29380612844864,88.94132573360037,83.92985603059226,86.34345061635747,42.59787511724289,45.0114697030081,40
517.822,89.08760612844864,88.77019293168125,83.93029001440136,86.28519461856955,42.4849983131117,44.839902917279886,40
536.133,89.09900612844864,88.82968440065252,84.0488602673684,86.49208325112185,42.33760114953067,44.78082413328413,40
554.443,88.43030612844866,88.1566192973929,83.67416406369287,85.82174588685787,42.334873410535025,44.48245523370002,40
574.219,87.96550612844864,87.79610291237131,83.46828269679015,85.96936940536008,41.82673350701123,44.327820215581156,40
594.727,88.39390612844865,88.13722087123436,83.46789848782315,86.07381777867148,42.06340309256288,44.66932238341121,40
615.234,88.83230612844865,88.47589933694842,83.74337495360707,86.25806534926389,42.21783398768453,44.73252438334134,40
637.207,88.82250612844864,88.32617765842456,83.86240334211637,86.49478425099247,41.83139340743209,44.46377431630819,40
659.912,89.23330612844865,88.75357509612583,84.0188623883523,86.87751987875912,41.87605521736671,44.734712707773525,40
683.35,89.47360612844862,88.94892016342256,83.86259977268729,86.69357926941787,42.25534089400469,45.08632039073527,40
706.787,90.28110612844866,89.68647790319477,84.3686636007816,87.22659829728343,42.45987960591134,45.31781430241317,40
731.689,90.55750612844862,90.15181765978744,84.89900297875371,87.84644706065542,42.30537059913202,45.252814681033726,40
758.057,90.16800612844862,89.79403800149014,84.78560785219427,87.46386721603464,42.33017078545549,45.00843014929586,40
784.424,89.77310612844865,89.42135430288266,84.71610601772612,87.21771023174544,42.20364407113722,44.70524828515654,40
812.256,89.67330612844863,89.15222261548257,84.3875487311167,87.13986729708127,42.012355318401305,44.76467388436588,40
840.82,89.80390612844865,89.19066853639563,84.23022335903403,87.06214577034176,42.12852276605388,44.960445177361606,40
870.85,89.43730612844864,89.32248246308652,83.97368014835556,87.00856858611601,42.3139138769705,45.34880231473096,40
901.611,89.90940612844864,89.29621192355539,83.85600527563815,86.88236888214409,42.4138430414113,45.440206647917236,40
933.105,90.31600612844865,89.69194804814393,84.0222110232537,86.79582926493019,42.89611878321374,45.669737024890225,40
966.064,90.38270612844865,89.76420995399012,84.18209205063356,87.28641113988543,42.47779881410469,45.58211790335656,40
999.756,89.97530612844865,89.43979661024558,83.78435832980493,86.74530344544182,42.69449316480376,45.65543828044065,40
1034.91,89.49340612844864,89.00082103172865,83.29684801694114,86.51155231436836,42.48926871736029,45.70397301478751,40
1071.53,88.51440612844864,88.44887622233391,83.38198761361937,86.5323298841671,41.91654633816681,45.066888608714535,40
1109.62,89.09420612844865,88.64379479678477,83.3335711549373,86.73410046549135,41.90969433129342,45.31022364184747,40
1148.44,88.58100612844865,88.73498125746916,83.24033568152707,86.71590155972189,42.01907969774727,45.49464557594209,40
1189.45,89.97260612844865,89.35391034412423,83.20502135761895,86.86899127055126,42.48491907357297,46.148888986505284,40
1231.2,90.50200612844863,89.98143351344159,83.56870070280011,87.17518989466193,42.80624361877966,46.41273281064147,40
1274.41,90.78220612844865,90.27730169293264,83.65001110337408,87.23384263011232,43.04345906282032,46.627290589558555,40
1319.82,90.50770612844865,90.06123742185405,83.54459327772742,86.94302430663325,43.1182131152208,46.51664414412663,40
1365.97,89.71180612844863,89.34566627928268,83.131667125879,86.45277765364503,42.89288862563765,46.21399915340368,40
1414.31,88.85930612844864,88.48083243978712,82.37621577080854,85.74161262255555,42.73921981723157,46.10461666897858,40
1464.11,87.89280612844864,87.68449656188453,81.56575048421416,85.07601075994903,42.6084858019355,46.118746077670366,40
1515.38,87.92160612844864,87.59566539945833,81.21548229453131,84.76148995395056,42.83417544550777,46.38018310492701,40
1568.85,87.72090612844865,87.35274577465859,80.9437296767101,84.51624195123786,42.83650382342073,46.40901609794848,40
1624.51,88.07400612844864,87.48864433680792,81.0103866900887,84.58543352202086,42.90321081478706,46.47825764671923,40
1681.64,88.05390612844865,87.44318617579222,80.83079880462854,84.51749802918171,42.92568814661051,46.61238737116368,40
1740.97,87.88460612844864,87.24567952285433,80.79867159610941,84.45318559596514,42.79249392688919,46.44700792674492,40
1802.49,87.71030612844864,87.20449571213054,80.77877231351088,84.38923241920766,42.81526329292288,46.42572339861965,40
1866.21,88.30380612844864,87.64370224318453,81.09832855768332,84.62008398743171,43.02361825575282,46.54537368550122,40
1932.13,87.95810612844865,87.35850606910391,81.10155752052933,84.6085959202385,42.74991014886541,46.256948548574584,40
2000.24,86.79140612844863,86.19720753752642,80.52387875551973,83.91532052718146,42.28188701034496,45.67332878200669,40
2070.56,86.36410612844865,85.77819557015867,80.13130649433764,83.50374688662417,42.2744486835345,45.646889075821036,40
2143.8,88.11320612844864,87.19861791518886,80.23122021360594,83.97458674292933,43.22403117225953,46.967397701582925,40
2219.24,89.18860612844864,88.27230825462144,80.75690680571974,84.64100911760795,43.631299137013485,47.5154014489017,40
2297.61,89.27600612844866,88.33477247702028,80.9962221246755,84.88676175436026,43.448010722660015,47.33855035234478,40
2378.17,89.38360612844865,88.32917130013512,81.21032868006101,85.11716841066415,43.212002889470966,47.118842620074105,40
2462.4,89.45180612844864,88.51593981406864,81.47941156760108,85.37288263270129,43.143057181367354,47.03652824646757,40
2548.83,88.63000612844864,88.05865354180922,81.29056356917786,85.05741240974497,43.00124113206425,46.76808997263136,40
2638.92,87.73750612844864,87.70297883507526,80.91150997241958,84.5496290375975,43.15334979747776,46.79146886265568,40
2731.93,88.65730612844864,88.48190553161214,81.22391919075518,85.03162505955795,43.45028047205419,47.25798634085696,40
2828.61,88.66110612844864,88.55166464173054,81.35140353496955,85.28047113592774,43.2711935058028,47.20026110676099,40
2928.22,87.90110612844866,88.19937512223173,81.32449600745427,85.23990698324629,42.95946813898544,46.87487911477746,40
3031.49,86.90960612844863,88.22089232020944,81.54554995620123,85.1966787963318,43.02421352387765,46.675342364008216,40
3138.43,83.93030612844865,87.43127727356809,81.56840174714831,84.81993390374323,42.61134336982485,45.86287552641977,40
3249.02,84.23060612844864,86.76991628852439,81.23953705001934,84.47894533325325,42.290970955271135,45.53037923850505,40
3363.28,86.91240612844864,87.38137063290152,81.21628351602236,84.78958550661456,42.591785126286965,46.165087116879164,40
3481.93,88.32340612844864,88.26792870570601,81.41435564437245,85.20906718892256,43.05886151678345,46.85357306133356,40
3604.98,89.08350612844866,88.78146660512675,81.48403360009452,85.50073395981953,43.280732645307225,47.29743300503223,40
3732.42,88.78960612844864,88.22127380811598,81.03476110018696,84.98468633955316,43.23658746856282,47.186512707929026,40
3863.53,87.51220612844863,87.03074688781355,80.08652503591448,83.87763071071866,43.15311617709489,46.94422185189907,40
3999.76,86.73560612844864,86.3932486514595,79.31447916012961,83.09539634057002,43.29785231088948,47.07876949132989,40
4141.11,87.89880612844864,86.90834509001787,79.14365235101654,83.32753105659607,43.5808140334218,47.76469273900133,40
4286.87,89.44590612844864,88.20724015106383,80.35892955209198,84.5799741473652,43.62726600369862,47.84831059897185,40
4438.48,89.35640612844864,88.68228183161962,81.37579811374258,85.40856394081435,43.27371789080527,47.30648371787704,40
4594.48,88.44200612844864,88.49144534769295,81.77289406260412,85.71056424102572,42.78088110666722,46.71855128508882,40
4757.08,89.46440612844864,89.14669570620156,82.18682331525106,86.21821273441661,42.928482971784945,46.959872390950494,40
4924.8,89.72980612844864,89.68987325859611,82.58031963150425,86.59342003036262,43.096453228233486,47.109553627091856,40
5098.39,89.56350612844864,89.74214232963475,82.59415693044052,86.62553514993219,43.116607179702555,47.147985399194226,40
5277.83,88.48320612844864,89.00068576303691,82.10489911880696,86.08887083002365,42.91181493301326,46.89578664422996,40
5463.87,89.42460612844864,89.27754750373767,81.76002960824182,85.867029382855,43.41051812088267,47.51751789549584,40
5656.49,91.07050612844864,89.96968359205724,82.04129759112355,86.29988767584676,43.669795916210475,47.928386000933685,40
5856.45,90.71900612844864,89.59246834547909,81.90196027353278,85.93149995960552,43.66096838587357,47.69050807194631,40
6062.99,90.44990612844866,88.95113197608892,81.11789941889272,85.21581908895227,43.735312887136644,47.8332325571962,40
6276.86,90.13160612844864,88.49686116519888,80.73714731491492,84.64077058697183,43.856090578227054,47.75971385028396,40
6498.05,88.95990612844865,87.91775458178516,80.99321417348646,84.73689368929304,43.18086089249212,46.9245404082987,40
