Freq "Estimated In-Room Response"
20.5078 49.01280881919688
21.9727 50.987155690779915
23.4375 52.17916250099957
24.9023 54.55001841870616
26.3672 56.2212329501087
27.832 57.85713242637972
29.2969 59.53780108164035
30.7617 60.29636285694265
32.2266 62.03518758220231
33.6914 63.51461111258875
35.1562 64.9268668034197
36.6211 66.11026751240912
38.0859 67.27092378124816
39.5508 68.44538876658915
41.0156 69.68613746310923
42.4805 70.68955117985291
43.9453 71.60038311342026
45.4102 72.52731024699321
46.875 73.4292661575105
48.3398 74.24221765653186
51.2695 75.71467759124971
52.7344 76.42040497451049
54.1992 77.07726933943668
55.6641 77.57636991009468
58.5938 78.37870573079816
60.0586 78.79676075136099
62.9883 79.52646153393182
64.4531 79.8478580327171
67.3828 80.36885927699866
68.8477 80.61024768781515
71.7773 81.17181841745881
74.707 81.63197568033623
77.6367 81.94011970387366
79.1016 82.0792791321867
82.0312 82.45913646906523
84.9609 82.73232742289247
87.8906 82.974692059776
90.8203 83.29250671214676
95.2148 83.63995484373915
98.1445 83.81179414381725
101.074 83.97196815032989
105.469 84.19855913167875
108.398 84.34771862515207
112.793 84.59418413582432
117.188 84.69435205892192
120.117 84.77483954749046
124.512 84.95469082081812
128.906 84.97996535110246
133.301 85.06338578063624
139.16 85.10496791453683
143.555 85.11743339052259
147.949 85.14729203608321
153.809 85.05855596960542
159.668 85.12323476532748
165.527 85.1854121255017
171.387 85.10759289145186
177.246 84.98547470290049
183.105 84.88652782722076
188.965 84.77088970644242
196.289 84.75236879934604
203.613 84.60317274868723
210.938 84.46925859136977
218.262 84.28621775920116
225.586 84.17428713976605
232.91 84.14414453132727
241.699 84.04048637543748
250.488 84.00437097053731
259.277 83.78391624296331
268.066 83.37805456221218
276.855 83.17592646182392
287.109 82.87732193167143
297.363 83.47150972373149
307.617 83.66080575344172
319.336 83.22065747068358
329.59 82.91462500223439
341.309 83.01461345396349
353.027 82.94209716415727
366.211 82.97264702413378
379.395 83.25229296114217
392.578 82.70368014181577
405.762 82.69937567969389
420.41 82.8337560404362
435.059 82.59824227587686
451.172 82.85139876561776
465.82 82.75718147254774
483.398 82.76565087461744
499.512 82.74331258757863
517.09 82.6332861392161
536.133 82.20607309535333
555.176 82.71278926739826
574.219 82.46876102171099
594.727 82.16786116168755
615.234 82.0632418102098
637.207 81.85397751030344
659.18 81.90657904435989
682.617 82.95235620675365
707.52 82.84372362510184
732.422 82.49788402886146
757.324 82.77149716590594
785.156 82.30089301110193
811.523 82.49160535446744
840.82 82.83802237787796
870.117 83.34716233313397
900.879 84.3895989014084
933.105 84.4807479317452
965.332 84.26772392490926
1000.49 83.90213078413673
1035.64 83.55526535897816
1072.27 83.01431276732279
1108.89 82.8423064108848
1148.44 82.60020366260487
1189.45 82.18047130900909
1230.47 82.43793165148219
1274.41 82.30233635195351
1319.82 82.29941866116305
1366.7 82.04576047740417
1413.57 81.63684798107077
1463.38 80.74551581139879
1516.11 80.19729351979491
1568.85 80.16379734331234
1624.51 80.22532126124462
1681.64 80.60107342476064
1741.7 81.02881667241657
1803.22 80.63587289072301
1866.21 80.151731542695
1932.13 79.56833385378333
1999.51 79.73806373524535
2069.82 79.98264854978785
2143.07 79.9043095266283
2219.24 79.05478981525637
2296.88 78.50807073466322
2378.91 79.0368077237542
2462.4 80.03020387872606
2548.83 79.60884024377414
2639.65 78.50890811133439
2731.93 78.01477005765733
2828.61 78.61536559996641
2928.22 79.167238054219
3030.76 79.36585284549305
3137.7 79.34786767452262
3249.02 79.03595537931777
3363.28 79.02586081040137
3481.93 79.62361527097356
3604.98 80.32693211345678
3732.42 81.0159115757731
3864.26 80.71642051545874
4000.49 80.8158243698454
4141.11 81.16968834174993
4287.6 81.01745588677319
4438.48 81.28229394802011
4595.21 81.3499532470839
4756.35 82.01207344145998
4924.8 82.3327878905185
5097.66 82.28413169737847
5277.83 82.472504066974
5463.87 82.62929188186821
5657.23 82.85013245168633
5856.45 82.65712136003275
6062.99 82.56918765349205
6276.86 81.76251303249397
6498.05 81.88984707698988
6726.56 82.14076735727507
6963.87 82.08614790919874
7209.96 82.20957541002244
7464.84 82.11619643641471
7727.05 82.34967966342911
7999.51 81.4376872903992
8282.23 80.64558001615508
8573.73 80.3606067018834
8876.95 80.84157707530787
9188.96 80.71615225481999
9514.16 81.77524010508137
9849.61 82.31162413452444
10196.8 82.66382169151812
10555.7 82.67414628690388
10927.7 82.707288115237
11313.0 82.5814059230086
11712.9 82.32162124546387
12126.0 82.21179900228967
12553.7 82.06618003141593
12996.1 81.99574432349877
13454.6 81.6678337943848
13929.2 81.42482805103583
14419.9 81.3607112916091
14928.2 81.41613643981553
15455.6 81.58160468921285
16000.5 81.4483203814251
16564.5 80.94906892904741
17148.9 80.01818604978268
17752.4 78.79453309138923
18379.4 77.49604717759188
19026.9 76.65059473790403
19697.8 75.90726729260352
19999.5 75.54163146753177
