Freq,On Axis,Listening Window,Sound Power,Early Reflections,Early Reflections DI,Sound Power DI,DI offset
22.4,59.84177215189871,59.66978355442765,60.22804970556683,59.8606639561346,39.80911959829305,39.44173384886082,40
23.0,60.241772151898715,60.069783554427644,60.590728759470124,60.232572141891026,39.83721141253662,39.47905479495752,40
23.6,60.64177215189872,60.461105951928005,60.96810930082046,60.61964056801983,39.84146538390817,39.492996651107546,40
24.0,61.04177215189871,60.86110595192801,61.348688353109424,61.00466678287866,39.85643916904935,39.51241759881859,40
25.0,61.44177215189872,61.27202758316224,61.736405770222746,61.406725747870425,39.86530183529182,39.535621812939496,40
25.8,61.84177215189871,61.67202758316223,62.08885443744104,61.77007016450759,39.901957418654646,39.58317314572119,40
26.5,62.241772151898715,62.02851461187436,62.42634665385407,62.12838925751011,39.90012535436425,39.60216795802029,40
27.2,62.54177215189871,62.37043069439474,62.73571283999894,62.439895169549885,39.930535524844856,39.6347178543958,40
28.0,62.94177215189872,62.72851461187436,63.04504898440345,62.76269892308062,39.96581568879374,39.68346562747091,40
29.0,63.241772151898715,63.03951840793191,63.345607479884336,63.08578147019192,39.95373693773999,39.69391092804757,40
30.0,63.54177215189871,63.36195207593502,63.63461955042192,63.384927836102364,39.97702423983266,39.727332525513106,40
30.7,64.04177215189871,63.78210731766133,64.00696652929477,63.77691106842212,40.005196249239205,39.775140788366556,40
31.5,64.44177215189873,64.18210731766133,64.35876597209467,64.15224878992731,40.02985852773402,39.82334134556666,40
32.5,64.84177215189871,64.55872259221543,64.69399334198584,64.50043962770984,40.058282964505594,39.86472925022959,40
33.5,65.14177215189872,64.94698284093701,65.00250596790139,64.83267657458435,40.114306266352656,39.944476873035626,40
34.5,65.44177215189872,65.246982840937,65.2860064239878,65.14204894205375,40.104933898883246,39.960976416949194,40
35.5,65.84177215189871,65.55872259221542,65.5707536458101,65.43469425998582,40.1240283322296,39.98796894640532,40
36.5,66.24177215189872,66.02394576488616,65.95852097869692,65.86150263809104,40.162443126795125,40.06542478618924,40
37.5,66.74177215189872,66.46740495343519,66.33940291987201,66.26820165001729,40.1992033034179,40.12800203356318,40
38.7,67.14177215189872,66.91011217337405,66.71115141136838,66.67029886122253,40.23981331215151,40.19896076200567,40
40.0,67.54177215189871,67.25338979207825,67.04122969232515,67.01596879233006,40.237420999748196,40.212160099753106,40
41.2,67.84177215189871,67.6416355969022,67.34935865983722,67.35675774063633,40.28487785626588,40.29227693706498,40
42.5,68.34177215189871,68.06458534179438,67.72041683995027,67.75158581807563,40.31299952371876,40.34416850184411,40
43.7,68.74177215189872,68.5507625183795,68.13019350514509,68.2075836692586,40.3431788491209,40.42056901323441,40
45.0,69.24177215189872,68.97366421065746,68.48110192046705,68.58417175249781,40.38949245815965,40.492562290190406,40
46.2,69.64177215189872,69.34940386815026,68.83219940444825,68.95969995770415,40.389703910446116,40.517204463702015,40
47.5,70.04177215189871,69.74940386815027,69.17171117350445,69.3196593867113,40.42974448143897,40.57769269464582,40
48.7,70.44177215189872,70.23763886547316,69.58768889593539,69.77869703714501,40.45894182832815,40.64994996953777,40
50.0,70.9417721518987,70.74720424170518,70.02292139409519,70.24317385883873,40.504030382866446,40.724282847609985,40
51.5,71.44177215189872,71.17012465611873,70.38815355358773,70.64137292843557,40.52875172768316,40.781971102531,40
53.0,71.84177215189871,71.60258298461464,70.76679105070048,71.04942713320142,40.55315585141322,40.835791933914166,40
54.5,72.34177215189871,72.10258298461464,71.19060463088502,71.51456279615141,40.58802018846323,40.91197835372962,40
56.0,72.84177215189871,72.56797718195867,71.59983154318556,71.94916113411358,40.61881604784509,40.96814563877311,40
58.0,73.24177215189872,73.01245015322532,71.96925165285015,72.3546480430946,40.65780211013072,41.04319850037517,40
60.0,73.64177215189872,73.42252400356631,72.35414628789137,72.77231396625979,40.65021003730652,41.06837771567494,40
61.5,74.24177215189872,74.00090666054562,72.83265776739223,73.29086307726307,40.710043583282555,41.16824889315339,40
63.0,74.74177215189872,74.50090666054564,73.28414618292936,73.7695002397454,40.73140642080024,41.216760477616276,40
65.0,75.24177215189872,75.00090666054564,73.7122284431484,74.22676933259773,40.77413732794791,41.28867821739723,40
67.0,75.74177215189872,75.51124228569478,74.14989439369646,74.71081998294204,40.800422302752736,41.36134789199832,40
69.0,76.24177215189872,76.01124228569478,74.60162364265258,75.19264990148643,40.818592384208344,41.409618643042194,40
71.0,76.74177215189872,76.48906243658085,75.02635307063377,75.65463989567556,40.834422540905294,41.46270936594708,40
73.0,77.24177215189872,77.02179325636807,75.51935039109462,76.17645191481154,40.845341341556534,41.50244286527345,40
75.0,77.84177215189871,77.62179325636808,76.02949285163662,76.7231561528882,40.898637103479885,41.59230040473146,40
77.5,78.34177215189871,78.13256352038937,76.51995636182721,77.24054890083191,40.89201461955746,41.612607158562156,40
80.0,78.94177215189872,78.68930975187433,76.99422735109623,77.74607160282397,40.94323814905036,41.695082400778105,40
82.5,79.44177215189873,79.21148834118007,77.45515839746525,78.24073355661015,40.97075478456992,41.75632994371482,40
85.0,80.04177215189871,79.78930975187433,77.99120905735009,78.80170183957395,40.987607912300376,41.79810069452424,40
87.5,80.64177215189872,80.3664966954941,78.51980345108758,79.36495285609364,41.00154383940047,41.846693244406524,40
90.0,81.14177215189872,80.92253530674718,79.03416528789893,79.91261883986606,41.00991646688112,41.88837001884825,40
92.5,81.74177215189872,81.50041320423902,79.53273059625228,80.44975531953322,41.0506578847058,41.967682607986745,40
95.0,82.24177215189872,82.00041320423901,79.99538614026457,80.9318856749473,41.068527529291714,42.00502706397444,40
97.5,82.64177215189872,82.40041320423902,80.36288224772497,81.32847601582385,41.07193718841516,42.03753095651405,40
100.0,83.04177215189873,82.81174597796243,80.71912570382814,81.71040357416896,41.10134240379347,42.09262027413429,40
103.0,83.4417721518987,83.16824859768093,81.04189640500552,82.04882613600847,41.11942246167246,42.12635219267541,40
106.0,83.74177215189872,83.5117459779624,81.32997974646506,82.370750150632,41.1409958273304,42.18176623149735,40
109.0,83.84177215189871,83.64531825381394,81.4403401570481,82.4941989267937,41.15111932702024,42.20497809676584,40
112.0,83.94177215189872,83.71174597796242,81.45118376290272,82.53930466499357,41.17244131296886,42.26056221505971,40
115.0,83.94177215189872,83.71174597796242,81.43631738407166,82.53670599316985,41.175039984792576,42.275428593890766,40
118.0,83.84177215189871,83.66824253631772,81.37921365060024,82.49396556776935,41.17427696854837,42.289028885717485,40
122.0,83.84177215189871,83.6026738615075,81.27483016034202,82.41386872551722,41.18880513599028,42.32784370116548,40
125.0,83.64177215189872,83.47992503633232,81.1323391937078,82.27360481194637,41.20632022438595,42.347585842624525,40
128.0,83.4417721518987,83.27992503633233,80.9262627674234,82.0797042028923,41.20022083344003,42.353662268908934,40
132.0,83.24177215189872,83.02331219301402,80.65060590433676,81.81149768836474,41.21181450464928,42.372706288677264,40
136.0,82.94177215189872,82.71226720591777,80.32804940333976,81.49385191905228,41.21841528686549,42.38421780257801,40
140.0,82.54177215189871,82.32410104754457,79.92295195583137,81.08566123839704,41.238439809147536,42.40114909171321,40
145.0,82.14177215189872,81.94610312162354,79.59361710240516,80.7554738385543,41.19062928306924,42.352486019218375,40
150.0,81.74177215189872,81.56701139405644,79.21086222860069,80.35713084127698,41.20988055277945,42.35614916545575,40
155.0,81.24177215189872,81.08982175402399,78.72412895509846,79.86092429477382,41.22889745925016,42.36569279892552,40
160.0,80.54177215189873,80.40067149885127,78.06953515075156,79.1821140603193,41.218557438531974,42.331136348099704,40
165.0,79.84177215189871,79.67791820300599,77.32893119876542,78.4233826502907,41.25453555271528,42.34898700424057,40
170.0,79.14177215189872,78.94531825381395,76.59371850926563,77.69100411622215,41.254314137591805,42.351599744548324,40
175.0,78.54177215189871,78.34505664592423,75.93434178912767,77.05116701293866,41.29388963298557,42.41071485679656,40
180.0,78.14177215189872,77.92410104754458,75.34375319902013,76.53603200150208,41.3880690460425,42.580347848524454,40
185.0,77.94177215189872,77.70663757482873,74.90981004859069,76.23382286081832,41.47281471401041,42.79682752623805,40
190.0,78.14177215189872,77.91491281807184,74.7977681591302,76.31058469958177,41.60432811849007,43.11714465894164,40
195.0,78.84177215189871,78.55346903248972,75.19332552419316,76.86718915709338,41.68627987539634,43.36014350829656,40
200.0,79.74177215189872,79.43389836861763,75.90459967183628,77.68861811465342,41.74528025396421,43.52929869678135,40
206.0,80.9417721518987,80.55594393108206,76.97136698925634,78.81864622288013,41.73729770820192,43.584576941825716,40
212.0,81.94177215189873,81.6088167106905,78.04974110274397,79.90853731923785,41.70027939145265,43.55907560794654,40
218.0,82.54177215189871,82.15269088544001,78.6578513105261,80.47097408600985,41.68171679943016,43.49483957491391,40
224.0,82.74177215189872,82.43794296145326,79.00537942128997,80.78854135287631,41.64940160857695,43.43256354016329,40
230.0,82.74177215189872,82.44867329881342,79.1378198475021,80.855500492073,41.59317280674041,43.31085345131132,40
236.0,82.54177215189871,82.26626776579276,79.0851062279543,80.7279725197626,41.53829524603016,43.18116153783846,40
240.0,82.24177215189872,82.00783564021933,78.91379473196574,80.48472924938355,41.52310639083578,43.09404090825359,40
250.0,81.84177215189871,81.59539672427366,78.59253463865318,80.09474634056707,41.500650383706585,43.00286208562048,40
258.0,81.24177215189872,81.07153277081102,78.09783525487921,79.54860475465281,41.522928016158204,42.9736975159318,40
265.0,80.64177215189872,80.47153277081102,77.4480348214288,78.88702297118705,41.58450979962397,43.02349794938222,40
272.0,80.14177215189872,79.9376207596718,76.7169156864768,78.2407490160739,41.696871743597896,43.220705073195006,40
280.0,79.94177215189872,79.67448586279313,76.02628938316283,77.75106772811976,41.92341813467337,43.6481964796303,40
290.0,80.14177215189872,79.73385842693641,75.50980701220232,77.56586668351522,42.16799174342118,44.22405141473409,40
300.0,80.54177215189873,80.05061190689896,75.2850994637236,77.70849582089181,42.34211608600715,44.76551244317537,40
307.0,81.04177215189871,80.50463527362285,75.40749813772926,78.07267325629171,42.431962017331145,45.09713713589359,40
315.0,81.64177215189872,81.05383311051949,75.85595861651194,78.61196346160563,42.441869648913865,45.19787449400755,40
325.0,82.0417721518987,81.43598949488049,76.33343414063441,79.04862283091202,42.387366663968464,45.10255535424608,40
335.0,82.24177215189872,81.66698243240725,76.72767028921362,79.35529121123345,42.3116912211738,44.93931214319363,40
345.0,82.34177215189871,81.82334278568383,77.01261344266548,79.5301786254674,42.293164160216435,44.81072934301835,40
355.0,82.34177215189871,81.91593193556766,77.159949509444,79.62886279621804,42.28706913934961,44.75598242612365,40
365.0,82.64177215189872,82.20322659770801,77.35151557801963,79.84216228865388,42.36106430905413,44.85171101968838,40
375.0,83.04177215189873,82.60239658177898,77.55256850713836,80.10368487924515,42.498711702533825,45.049828074640615,40
387.0,83.4417721518987,82.94868618279169,77.68109724890863,80.31249758434478,42.63618859844691,45.26758893388306,40
400.0,83.74177215189872,83.19162845197957,77.66576280346163,80.39361118769175,42.79801726428782,45.525865648517936,40
412.0,83.84177215189871,83.25411535023514,77.47500281327689,80.3309673672787,42.923147982956436,45.77911253695825,40
425.0,83.84177215189871,83.2387830629902,77.21740608889675,80.24232388237105,42.99645918061914,46.02137697409344,40
437.0,83.94177215189872,83.28007464744539,77.03976691375446,80.24776543877127,43.03230920867412,46.240307733690926,40
450.0,84.04177215189871,83.42413903501397,76.99156733258656,80.3799560956528,43.044182939361164,46.43257170242741,40
462.0,84.04177215189871,83.45298290147441,76.92459778693265,80.4050653696355,43.04791753183892,46.52838511454176,40
475.0,83.84177215189871,83.19903563731447,76.65248370307083,80.09335626822428,43.10567936909018,46.54655193424364,40
487.0,83.24177215189872,82.52784790692012,76.06403381724586,79.32523686657056,43.20261104034955,46.46381408967426,40
500.0,82.64177215189872,81.84935393924681,75.50820528979258,78.53460362119999,43.31475031804682,46.341148649454226,40
515.0,82.24177215189872,81.50653442719035,75.1675998670776,78.20186627545962,43.30466815173072,46.33893456011275,40
530.0,82.14177215189872,81.43707751658654,74.90264366029965,78.18268958480641,43.25438793178013,46.534433856286896,40
545.0,82.64177215189872,82.05506068042298,75.35974723639711,78.88844517691388,43.16661550350911,46.69531344402587,40
560.0,83.4417721518987,82.86831658018934,76.03755232677815,79.77773897313878,43.09057760705056,46.83076425341119,40
580.0,84.04177215189871,83.52307230089968,76.51373675283803,80.38433474867833,43.13873755222136,47.00933554806166,40
600.0,84.44177215189873,83.89201119716533,76.61990612105969,80.53927933367956,43.35273186348577,47.272105076105646,40
615.0,84.5417721518987,83.8613121866184,76.24233588633219,80.21048930775783,43.65082287886058,47.61897630028622,40
630.0,84.44177215189873,83.68980406219626,75.59068303176292,79.62180982629644,44.06799423589982,48.09912103043334,40
650.0,84.34177215189871,83.41544062539698,74.88433709903327,78.93769456746546,44.477746057931526,48.53110352636371,40
670.0,84.04177215189871,83.07177449614436,74.31131070629871,78.28707957168933,44.784694924455025,48.760463789845645,40
690.0,83.64177215189872,82.62636684710387,73.78037101024216,77.61434964501487,45.012017202089,48.845995836861704,40
710.0,83.04177215189873,81.995565447293,73.14501755290115,76.82859657026536,45.16696887702764,48.85054789439185,40
730.0,82.24177215189872,81.12241316214528,72.35760085840678,75.85789694868001,45.26451621346527,48.764812303738495,40
750.0,81.04177215189871,79.94177713724235,71.36248254630797,74.66043638758865,45.28134074965371,48.57929459093438,40
775.0,79.94177215189872,78.80627803266196,70.43015874280735,73.58174600561233,45.224532027049634,48.376119289854614,40
800.0,79.14177215189872,78.15540006441935,69.93321392218506,73.00541187198287,45.14998819243648,48.22218614223429,40
825.0,78.74177215189872,77.8316018533371,69.76485353861307,72.80842245241183,45.02317940092527,48.06674831472404,40
850.0,78.4417721518987,77.53834329139148,69.62419829958768,72.64460957097302,44.89373372041847,47.91414499180381,40
875.0,78.14177215189872,77.17625669831295,69.4511171030295,72.42734385926306,44.74891283904989,47.72513959528345,40
900.0,77.84177215189871,76.85095423097971,69.28894130541318,72.21754960611068,44.63340462486903,47.562012925566535,40
925.0,77.64177215189872,76.65561640068549,69.33828900377019,72.2161893190935,44.43942708159199,47.3173273969153,40
950.0,77.14177215189872,76.17277900952016,69.36026699091168,72.1433454002734,44.02943360924675,46.81251201860847,40
975.0,76.24177215189872,75.38889385710021,69.43641263409349,72.10846051804484,43.28043333905538,45.95248122300673,40
1000.0,75.44177215189872,74.8600385371353,69.37027935380131,72.06887374409088,42.791164793044416,45.48975918333399,40
1030.0,75.34177215189871,74.85143989424321,69.0771484744092,72.12180359814937,42.729636296093844,45.774291419834015,40
1060.0,75.64177215189872,75.13536080636301,68.92815838720318,72.27607804290241,42.8592827634606,46.20720241915983,40
1090.0,75.54177215189873,75.23250981960545,69.11335701145921,72.48937227120186,42.743137548403595,46.11915280814624,40
1120.0,75.44177215189872,75.24592626855323,69.19533318303456,72.72536120811894,42.52056506043429,46.05059308551867,40
1150.0,75.9417721518987,75.6824429160985,69.2384614590463,73.09901708418772,42.58342583191077,46.44398145705219,40
1180.0,76.74177215189872,76.41090007158874,69.24362185588039,73.38165088984981,43.02924918173893,47.16727821570835,40
1220.0,77.0417721518987,76.66811755900511,68.86587021241233,73.10526959638167,43.56284796262344,47.80224734659278,40
1250.0,76.64177215189872,76.2022547558266,68.14831455046313,72.35378856446818,43.848466191358426,48.053940205363475,40
1280.0,76.84177215189871,76.41474544273437,68.22983190339573,72.43589464847031,43.97885079426406,48.18491353933864,40
1320.0,77.54177215189871,77.04843354197038,68.87149902854861,73.0642664567941,43.98416708517628,48.17693451342177,40
1360.0,78.14177215189872,77.49230781235158,69.1136819297639,73.39239256466736,44.09991524768422,48.378625882587684,40
1400.0,78.74177215189872,77.99500681297832,69.24881458075738,73.68739489823705,44.30761191474127,48.746192232220935,40
1450.0,79.44177215189873,78.66255355829475,69.80996043507972,74.22399800931152,44.43855554898323,48.85259312321503,40
1500.0,79.94177215189872,79.16568311895813,70.39363773365045,74.72027505861065,44.445408060347475,48.77204538530768,40
1550.0,79.94177215189872,79.15067567032091,70.40074932935337,74.68342671598867,44.467248954332234,48.749926340967534,40
1600.0,79.84177215189871,79.18286618382962,70.30270868388396,74.64135592438673,44.54151025944289,48.88015749994565,40
1650.0,80.24177215189872,79.43152389732647,70.13703569375679,74.61887711141355,44.81264678591292,49.294488203569685,40
1700.0,79.94177215189872,79.19906823930845,69.85047986413286,74.20070278581018,44.998365453498266,49.34858837517558,40
1750.0,79.44177215189873,78.684801140991,69.34989113529181,73.59885787012068,45.08594327087032,49.334910005699186,40
1800.0,79.5417721518987,78.29906944121626,68.62185479796392,72.94606036671183,45.35300907450443,49.67721464325234,40
1850.0,79.94177215189872,78.35096325982995,68.5707295937454,72.84326571285612,45.50769754697383,49.780233666084555,40
1900.0,80.24177215189872,78.31231898996958,68.43534058272648,72.82110746821249,45.491211521757094,49.8769784072431,40
1950.0,80.64177215189872,78.51566609218013,68.22354044834812,73.01937809332745,45.49628799885268,50.29212564383201,40
2000.0,80.84177215189871,78.52384059802054,68.06748389478766,72.9531691972421,45.57067140077844,50.456356703232885,40
2060.0,80.74177215189872,78.44297942046066,68.07773144483043,72.80393069141178,45.63904872904888,50.365247975630226,40
2120.0,81.04177215189871,78.78272686250011,68.45185805805946,73.1240344891704,45.658692373329714,50.330868804440655,40
2180.0,81.14177215189872,79.25620255925344,68.90502106695688,73.55712492256606,45.69907763668738,50.35118149229656,40
2240.0,80.84177215189871,79.09654142483288,68.85191368554143,73.43702574575035,45.65951567908253,50.244627739291445,40
2300.0,80.44177215189872,78.63207553410757,68.64044407470922,73.12723531878467,45.5048402153229,49.99163145939835,40
2360.0,80.44177215189872,78.57144409999896,68.5621172378003,73.18492869662143,45.38651540337753,50.00932686219866,40
2400.0,80.34177215189871,78.56316236236795,68.37759302681553,73.13702107931618,45.42614128305176,50.185569335552415,40
2500.0,80.64177215189872,78.91760388119877,68.80413799605802,73.4898539398322,45.42774994136657,50.113465885140755,40
2580.0,80.54177215189873,79.34895348324329,69.88064075684156,74.32896104800514,45.01999243523815,49.468312726401734,40
2650.0,79.34177215189871,78.49179840759122,69.84666702996284,74.02879035653996,44.46300805105126,48.645131377628374,40
2720.0,79.14177215189872,77.9626279634175,69.68923218516709,73.71462154866703,44.24800641475048,48.27339577825042,40
2800.0,80.14177215189872,77.41716969190577,69.28293244089537,73.255129471481,44.16204022042477,48.134237251010404,40
2900.0,80.64177215189872,77.4150494727701,69.09018976305151,73.15034751931609,44.26470195345401,48.32485970971858,40
