Freq "Listening Window"
22.4 58.42801140252894
23.0 58.828011402528944
23.6 59.219333800029275
24.0 59.61933380002928
25.0 60.03025543126353
25.8 60.43025543126353
26.5 60.78674245997564
27.2 61.12865854249603
28.0 61.48674245997563
29.0 61.79774625603321
30.0 62.12017992403632
30.7 62.54033516576263
31.5 62.94033516576263
32.5 63.31695044031672
33.5 63.705210689038296
34.5 64.0052106890383
35.5 64.31695044031672
36.5 64.78217361298744
37.5 65.22563280153648
38.7 65.66834002147533
40.0 66.01161764017952
41.2 66.3998634450035
42.5 66.82281318989568
43.7 67.30899036648077
45.0 67.73189205875873
46.2 68.10763171625155
47.5 68.50763171625154
48.7 68.99586671357446
50.0 69.50543208980648
51.5 69.92835250422
53.0 70.36081083271593
54.5 70.86081083271591
56.0 71.32620503005995
58.0 71.77067800132659
60.0 72.1807518516676
61.5 72.75913450864692
63.0 73.25913450864692
65.0 73.75913450864692
67.0 74.26947013379606
69.0 74.76947013379606
71.0 75.24729028468215
73.0 75.78002110446937
75.0 76.38002110446936
77.5 76.89079136849065
80.0 77.44753759997562
82.5 77.96971618928136
85.0 78.54753759997561
87.5 79.12472454359539
90.0 79.68076315484846
92.5 80.2586410523403
95.0 80.7586410523403
97.5 81.1586410523403
100.0 81.5699738260637
103.0 81.92647644578223
106.0 82.2699738260637
109.0 82.40354610191523
112.0 82.4699738260637
115.0 82.4699738260637
118.0 82.42647038441899
122.0 82.36090170960878
125.0 82.23815288443362
128.0 82.03815288443361
132.0 81.7815400411153
136.0 81.47049505401905
140.0 81.08232889564586
145.0 80.70433096972481
150.0 80.32523924215774
155.0 79.84804960212526
160.0 79.15889934695255
165.0 78.43614605110727
170.0 77.70354610191524
175.0 77.10328449402553
180.0 76.68232889564585
185.0 76.46486542293
190.0 76.67314066617311
195.0 77.31169688059099
200.0 78.19212621671892
206.0 79.31417177918335
212.0 80.3670445587918
218.0 80.91091873354131
224.0 81.19617080955453
230.0 81.2069011469147
236.0 81.02449561389406
240.0 80.7660634883206
250.0 80.35362457237493
258.0 79.8297606189123
265.0 79.2297606189123
272.0 78.6958486077731
280.0 78.43271371089443
290.0 78.49208627503768
300.0 78.80883975500026
307.0 79.26286312172415
315.0 79.81206095862078
325.0 80.19421734298177
335.0 80.42521028050852
345.0 80.58157063378512
355.0 80.67415978366896
365.0 80.96145444580928
375.0 81.36062442988026
387.0 81.70691403089299
400.0 81.94985630008084
412.0 82.01234319833641
425.0 81.99701091109148
437.0 82.03830249554666
450.0 82.18236688311524
462.0 82.21121074957571
475.0 81.95726348541575
487.0 81.28607575502139
500.0 80.60758178734808
515.0 80.26476227529162
530.0 80.19530536468784
545.0 80.81328852852428
560.0 81.62654442829063
580.0 82.28130014900097
600.0 82.65023904526663
615.0 82.6195400347197
630.0 82.44803191029753
650.0 82.17366847349828
670.0 81.83000234424563
690.0 81.38459469520514
710.0 80.7537932953943
730.0 79.88064101024656
750.0 78.70000498534364
775.0 77.56450588076326
800.0 76.91362791252064
825.0 76.58982970143839
850.0 76.29657113949276
875.0 75.93448454641425
900.0 75.609182079081
925.0 75.41384424878679
950.0 74.93100685762145
975.0 74.1471217052015
1000.0 73.6182663852366
1030.0 73.6096677423445
1060.0 73.89358865446431
1090.0 73.99073766770672
1120.0 74.0041541166545
1150.0 74.44067076419977
1180.0 75.16912791969001
1220.0 75.4263454071064
1250.0 74.9604826039279
1280.0 75.17297329083567
1320.0 75.80666139007167
1360.0 76.25053566045287
1400.0 76.7532346610796
1450.0 77.42078140639602
1500.0 77.92391096705941
1550.0 77.90890351842219
1600.0 77.94109403193092
1650.0 78.18975174542774
1700.0 77.95729608740973
1750.0 77.44302898909228
1800.0 77.05729728931755
1850.0 77.10919110793124
1900.0 77.07054683807088
1950.0 77.2738939402814
2000.0 77.28206844612181
2060.0 77.20120726856194
2120.0 77.5409547106014
2180.0 78.01443040735472
2240.0 77.85476927293418
2300.0 77.39030338220886
2360.0 77.32967194810024
2400.0 77.32139021046922
2500.0 77.67583172930006
2580.0 78.10718133134459
2650.0 77.25002625569252
2720.0 76.72085581151879
2800.0 76.17539754000705
2900.0 76.17327732087139
3000.0 76.7179698611165
3070.0 77.12556203110063
3150.0 77.63410902003304
3250.0 77.78714918768955
3350.0 79.80773679577621
3450.0 80.7635653855291
3550.0 80.33221544059738
3650.0 80.45959487465431
3750.0 80.1801889637887
3870.0 79.84975294955896
4000.0 78.08211897947416
4120.0 77.58188673434398
4250.0 76.59767179773624
4370.0 75.91794468485642
4500.0 76.11228573222074
4620.0 77.01246228889212
4750.0 77.2917407223273
4870.0 79.14546241609237
5000.0 79.79262189393515
5150.0 80.67446177026193
5300.0 79.6665843406118
5450.0 77.64094633176316
5600.0 77.94435162411995
5800.0 82.24572876200612
6000.0 80.0193776783635
6150.0 80.03149980821742
6300.0 80.96185313346403
6500.0 80.08116811482469
6700.0 79.65627559735871
6900.0 80.66413241730261
7100.0 80.30834468601884
7300.0 80.72938693382706
7500.0 80.68375714247661
7750.0 80.37747653092703
8000.0 81.95607202980841
8250.0 80.43599205335784
8500.0 81.39209969693195
8750.0 80.14756835915136
9000.0 79.43783224322077
9250.0 78.62775778303478
9500.0 79.453840066546
9750.0 79.49241143269717
10000.0 82.15613423574575
10300.0 83.29241501127493
10600.0 85.76260115049195
10900.0 83.43686277740935
11200.0 85.59675874794785
11500.0 83.606161718728
11800.0 82.87165093923805
12200.0 82.45267718736915
12500.0 80.93805983926958
12800.0 79.16124018742767
13200.0 75.33413509426903
13600.0 73.34333327770699
14000.0 75.19432775612523
14500.0 76.97359894670015
15000.0 78.7388048092936
15500.0 79.54105155352931
16000.0 76.04276417730809
16500.0 75.08796028476526
17000.0 73.41306931446755
17500.0 68.5582992603326
18000.0 66.098778197727
18500.0 63.651750139288126
19000.0 65.52407986262743
19500.0 63.054700717379674
