Freq "Sound Power"
22.4 60.22804970556683
23.0 60.590728759470124
23.6 60.96810930082046
24.0 61.348688353109424
25.0 61.736405770222746
25.8 62.08885443744104
26.5 62.42634665385407
27.2 62.73571283999894
28.0 63.04504898440345
29.0 63.345607479884336
30.0 63.63461955042192
30.7 64.00696652929477
31.5 64.35876597209467
32.5 64.69399334198584
33.5 65.00250596790139
34.5 65.2860064239878
35.5 65.5707536458101
36.5 65.95852097869692
37.5 66.33940291987201
38.7 66.71115141136838
40.0 67.04122969232515
41.2 67.34935865983722
42.5 67.72041683995027
43.7 68.13019350514509
45.0 68.48110192046705
46.2 68.83219940444825
47.5 69.17171117350445
48.7 69.58768889593539
50.0 70.02292139409519
51.5 70.38815355358773
53.0 70.76679105070048
54.5 71.19060463088502
56.0 71.59983154318556
58.0 71.96925165285015
60.0 72.35414628789137
61.5 72.83265776739223
63.0 73.28414618292936
65.0 73.7122284431484
67.0 74.14989439369646
69.0 74.60162364265258
71.0 75.02635307063377
73.0 75.51935039109462
75.0 76.02949285163662
77.5 76.51995636182721
80.0 76.99422735109623
82.5 77.45515839746525
85.0 77.99120905735009
87.5 78.51980345108758
90.0 79.03416528789893
92.5 79.53273059625228
95.0 79.99538614026457
97.5 80.36288224772497
100.0 80.71912570382814
103.0 81.04189640500552
106.0 81.32997974646506
109.0 81.4403401570481
112.0 81.45118376290272
115.0 81.43631738407166
118.0 81.37921365060024
122.0 81.27483016034202
125.0 81.1323391937078
128.0 80.9262627674234
132.0 80.65060590433676
136.0 80.32804940333976
140.0 79.92295195583137
145.0 79.59361710240516
150.0 79.21086222860069
155.0 78.72412895509846
160.0 78.06953515075156
165.0 77.32893119876542
170.0 76.59371850926563
175.0 75.93434178912767
180.0 75.34375319902013
185.0 74.90981004859069
190.0 74.7977681591302
195.0 75.19332552419316
200.0 75.90459967183628
206.0 76.97136698925634
212.0 78.04974110274397
218.0 78.6578513105261
224.0 79.00537942128997
230.0 79.1378198475021
236.0 79.0851062279543
240.0 78.91379473196574
250.0 78.59253463865318
258.0 78.09783525487921
265.0 77.4480348214288
272.0 76.7169156864768
280.0 76.02628938316283
290.0 75.50980701220232
300.0 75.2850994637236
307.0 75.40749813772926
315.0 75.85595861651194
325.0 76.33343414063441
335.0 76.72767028921362
345.0 77.01261344266548
355.0 77.159949509444
365.0 77.35151557801963
375.0 77.55256850713836
387.0 77.68109724890863
400.0 77.66576280346163
412.0 77.47500281327689
425.0 77.21740608889675
437.0 77.03976691375446
450.0 76.99156733258656
462.0 76.92459778693265
475.0 76.65248370307083
487.0 76.06403381724586
500.0 75.50820528979258
515.0 75.1675998670776
530.0 74.90264366029965
545.0 75.35974723639711
560.0 76.03755232677815
580.0 76.51373675283803
600.0 76.61990612105969
615.0 76.24233588633219
630.0 75.59068303176292
650.0 74.88433709903327
670.0 74.31131070629871
690.0 73.78037101024216
710.0 73.14501755290115
730.0 72.35760085840678
750.0 71.36248254630797
775.0 70.43015874280735
800.0 69.93321392218506
825.0 69.76485353861307
850.0 69.62419829958768
875.0 69.4511171030295
900.0 69.28894130541318
925.0 69.33828900377019
950.0 69.36026699091168
975.0 69.43641263409349
1000.0 69.37027935380131
1030.0 69.0771484744092
1060.0 68.92815838720318
1090.0 69.11335701145921
1120.0 69.19533318303456
1150.0 69.2384614590463
1180.0 69.24362185588039
1220.0 68.86587021241233
1250.0 68.14831455046313
1280.0 68.22983190339573
1320.0 68.87149902854861
1360.0 69.1136819297639
1400.0 69.24881458075738
1450.0 69.80996043507972
1500.0 70.39363773365045
1550.0 70.40074932935337
1600.0 70.30270868388396
1650.0 70.13703569375679
1700.0 69.85047986413286
1750.0 69.34989113529181
1800.0 68.62185479796392
1850.0 68.5707295937454
1900.0 68.43534058272648
1950.0 68.22354044834812
2000.0 68.06748389478766
2060.0 68.07773144483043
2120.0 68.45185805805946
2180.0 68.90502106695688
2240.0 68.85191368554143
2300.0 68.64044407470922
2360.0 68.5621172378003
2400.0 68.37759302681553
2500.0 68.80413799605802
2580.0 69.88064075684156
2650.0 69.84666702996284
2720.0 69.68923218516709
2800.0 69.28293244089537
2900.0 69.09018976305151
3000.0 69.28484177510467
3070.0 69.36104380890524
3150.0 69.95872103596413
3250.0 70.12730941670901
3350.0 71.2450629583152
3450.0 72.86380781929788
3550.0 72.78705813300984
3650.0 72.70486353859016
3750.0 71.87213143065004
3870.0 71.6152733965094
4000.0 70.48975672391842
4120.0 70.17025249326073
4250.0 69.20231473735438
4370.0 68.50906793802065
4500.0 68.74827611443305
4620.0 69.14379924400332
4750.0 68.85327073812554
4870.0 70.60913134041407
5000.0 71.19145556238036
5150.0 71.82910173306583
5300.0 71.18763162625424
5450.0 69.4110489588042
5600.0 69.99406596568716
5800.0 74.13052922602041
6000.0 71.53463083439995
6150.0 71.41713942978016
6300.0 72.20572122643193
6500.0 70.98366068501008
6700.0 70.85673159819456
6900.0 72.06475936014282
7100.0 71.60630972786588
7300.0 71.89027111488237
7500.0 71.75174289743426
7750.0 71.49355967635779
8000.0 73.30077692336617
8250.0 71.71161824406536
8500.0 73.04365563560212
8750.0 71.66743308606354
9000.0 71.33883211188274
9250.0 70.68281481543835
9500.0 70.81713958939531
9750.0 70.39540726459367
10000.0 73.1789508258578
10300.0 74.07521699171144
10600.0 76.22039161504713
10900.0 73.30523771628518
11200.0 75.39341842070732
11500.0 73.23806657468403
11800.0 72.98787622482277
12200.0 72.64706066498931
12500.0 70.55299073195192
12800.0 68.81435959431874
13200.0 64.50502030741998
13600.0 64.28802277415046
14000.0 67.44622082596058
14500.0 69.59037559159424
15000.0 70.99412302635037
15500.0 72.36925475396643
16000.0 69.00961588675148
16500.0 67.27927532153198
17000.0 63.477761241189
17500.0 61.06714104326946
18000.0 59.50113472052949
18500.0 57.11409170286723
19000.0 59.126934413077535
19500.0 56.425187320142015
