Freq "Ceiling Bounce"
20.0 15.847372259626312
20.2909 18.14633079793417
20.586 20.21354088878546
20.8855 21.75275596640283
21.1893 22.62605163990706
21.4975 22.938035540925526
21.8102 22.71402626869623
22.1274 22.0170238287197
22.4492 21.114347240654396
22.7758 20.58267769111133
23.1071 21.14737671609889
23.4432 22.650165760646885
23.7841 24.11551799481417
24.1301 25.094238355988878
24.4811 25.5705954927448
24.8372 25.70687485721068
25.1984 25.829481734596996
25.5649 26.299641797654502
25.9368 27.18126528529747
26.3141 28.208123166955247
26.6968 29.086537138630277
27.0851 29.70364122204957
27.4791 30.13729936880027
27.8788 30.598194078023923
28.2843 31.236647415459473
28.6957 32.00834078715381
29.1131 32.748815416270205
29.5365 33.32930042510539
29.9661 33.74079582143959
30.402 34.09653355907635
30.8442 34.57605031420364
31.2929 35.21057748078401
31.748 35.90334873787181
32.2098 36.5364530287588
32.6783 37.06324757346381
33.1536 37.58037539934209
33.6359 38.18419326891835
34.1251 38.89202277143424
34.6215 39.603948636336426
35.125 40.235360891867984
35.6359 40.77822552170527
36.1543 41.32766325112435
36.6802 41.95331221858645
37.2137 42.63721197323632
37.755 43.304446054418136
38.3041 43.91969205555934
38.8613 44.52543425605343
39.4265 45.160462560364394
40.0 45.81917850753233
40.5818 46.471716065400855
41.1721 47.11469892118295
41.771 47.76034039617515
42.3785 48.40667051471375
42.9949 49.03811888069548
43.6203 49.65504286910563
44.2548 50.279837335575635
44.8985 50.9122145585287
45.5515 51.54327968331954
46.2141 52.170107227294
46.8863 52.80326967161702
47.5683 53.4441185521912
48.2602 54.08087822172352
48.9621 54.70674913324072
49.6743 55.33030599200747
50.3968 55.96127003851049
51.1299 56.59675069089249
51.8736 57.23341028658727
52.6281 57.8646591350885
53.3936 58.49075808975874
54.1702 59.11502731460391
54.9581 59.7417257253623
55.7575 60.36785138919731
56.5685 60.97956826478081
57.3914 61.58729470199275
58.2261 62.19277233711175
59.073 62.785517358993744
59.9323 63.368012527806
60.804 63.956930172095724
61.6884 64.54744175781111
62.5857 65.133048346606
63.496 65.713576248806
64.4196 66.2768507818556
65.3566 66.80880625720606
66.3073 67.3101795981575
67.2717 67.79314920911037
68.2502 68.26745298718184
69.2429 68.72458202032004
70.2501 69.17398109228635
71.2719 69.62571347287567
72.3086 70.0568596302512
73.3603 70.46033839708805
74.4274 70.83008909224155
75.5099 71.17592467751264
76.6083 71.50301506109629
77.7226 71.79659416246942
78.8531 72.07677335384969
80.0 72.34568952564626
81.1636 72.59261032157359
82.3442 72.82120795542666
83.5419 73.0161379208526
84.757 73.18247467505797
85.9899 73.3331431650248
87.2406 73.47748750610197
88.5096 73.60670569144845
89.797 73.71578697278528
91.1031 73.79314302696072
92.4282 73.82390257568221
93.7726 73.81026577360161
95.1366 73.79296110449457
96.5204 73.83045743776043
97.9243 73.90615974728978
99.3486 73.9779351756177
100.794 74.0434396834679
102.26 74.09727524658739
103.747 74.14338782811446
105.256 74.17817475222674
106.787 74.20768957343437
108.34 74.2202068135628
109.916 74.21245081547166
111.515 74.18997261026887
113.137 74.1954968250511
114.783 74.20607602676351
116.452 74.21260483363947
118.146 74.22552996995226
119.865 74.24206329856658
121.608 74.25932153625025
123.377 74.28258167166213
125.171 74.30423646258363
126.992 74.31677830349531
128.839 74.31904407673439
130.713 74.31470365049508
132.615 74.26064350655928
134.543 74.2236354652628
136.5 74.23757874221796
138.486 74.23885336172769
140.5 74.20885002692349
142.544 74.15751850172325
144.617 74.12746862299022
146.721 74.12514004089643
148.855 74.15042326986317
151.02 74.13209765654341
153.217 74.09510319596556
155.445 74.03778033669927
157.706 73.92984740710754
160.0 73.81313871300038
162.327 73.82281994887015
164.688 73.80883251061705
167.084 73.84751650134076
169.514 73.85758919479407
171.98 73.55688857956626
174.481 73.40857666736409
177.019 73.38759625163142
179.594 73.40967344487508
182.206 73.40797930464656
184.856 73.47500313217543
187.545 73.53536782294742
190.273 73.61339442984517
193.041 73.66809212858486
195.849 73.65412158884475
198.697 73.64949162658701
201.587 73.62580907459675
204.52 73.57784297254409
207.494 73.59754776827062
210.512 73.65125393136371
213.574 73.51457815053588
216.681 73.30761794919086
219.833 73.25361501382037
223.03 73.29894464002369
226.274 73.27998914422646
229.565 73.1563223283928
232.905 73.12165741268633
236.292 73.1839943971114
239.729 73.26471432675737
243.216 73.26634302833504
246.754 73.26368566305871
250.343 73.34865005703773
253.984 73.39399678512179
257.678 73.40296591219136
261.426 73.44998543931693
265.229 73.43233811124917
269.087 73.25231408536872
273.001 73.26396115040299
276.972 73.32094212533202
281.0 73.35992563936135
285.088 73.4349116922422
289.234 73.50356857621438
293.441 73.50185134359623
297.709 73.26651341574113
302.04 73.3585097373963
306.433 73.21417670681404
310.89 73.49109576624582
315.412 73.64072549392252
320.0 73.62306869715736
324.655 73.24199824330536
329.377 73.26701113831565
334.168 73.49732101996548
339.028 73.54563402616022
343.959 73.62095015692687
348.962 73.69697400815068
354.038 73.67529606977774
359.188 73.68062125590714
364.412 73.52632068729925
369.713 73.61235514757935
375.09 73.69105947861065
380.546 73.77413644593874
386.081 73.85488062961299
391.697 73.83666369606003
397.394 73.81344813450839
403.175 73.79130518908062
409.039 73.68653199596791
414.989 73.62446097792873
421.025 73.5920919144241
427.149 73.61612824231663
433.362 73.49993776816565
439.665 73.46781962131722
446.06 73.29977519085082
452.548 73.1511766882324
459.131 72.96836037104629
465.809 72.72574220648468
472.584 72.56529306471887
479.458 72.38664966693857
486.432 72.20023943358184
493.507 72.00603591595485
500.686 71.78014288159928
507.968 71.62840635488787
515.357 71.43854859007672
522.853 71.27892520036075
530.458 71.13544098516049
538.174 71.03072427507696
546.002 70.93393354045715
553.943 70.86411489445081
562.001 70.81953584342631
570.175 70.7957189976173
578.469 70.78865916918521
586.883 70.7955252058227
595.419 70.81383758144588
604.08 70.84111525798885
612.866 70.87554734241876
621.78 70.91518418848825
630.824 70.95849787876087
640.0 71.00246922009804
649.309 71.04637773527193
658.753 71.0905567043213
668.335 71.137011410441
678.056 71.18430627537283
687.919 71.23540002398356
697.925 71.29243026970644
708.077 71.35606209135317
718.376 71.43037862363876
728.825 71.51763963224214
739.426 71.6190280323394
750.181 71.7355210844306
761.093 71.86658493051404
772.163 72.00855604688634
783.394 72.16049057785808
794.789 72.32069980533417
806.349 72.48013787910249
818.078 72.63505825411737
829.977 72.77917117101384
842.05 72.90750332392489
854.298 73.01345545064764
866.724 73.09154156761396
879.33 73.13841803436121
892.12 73.14975051191577
905.097 73.1222134643816
918.262 73.05354997456895
931.618 72.94357224799523
945.169 72.79428401013523
958.917 72.60669982074997
972.864 72.38761150105766
987.015 72.14473347763509
1001.37 71.8796468916926
1015.94 71.6152567003275
1030.71 71.36768195789928
1045.71 71.14375778267647
1060.92 70.95496571343513
1076.35 70.80934339044295
1092.0 70.70357452741203
1107.89 70.62610517963995
1124.0 70.56328079602348
1140.35 70.49623811529331
1156.94 70.40646458610493
1173.77 70.28021456376548
1190.84 70.10817226371931
1208.16 69.88933105851332
1225.73 69.63234419731698
1243.56 69.3594413822279
1261.65 69.11578811978764
1280.0 68.95508563383395
1298.62 68.93167786534916
1317.51 69.08300188990803
1336.67 69.41186576338582
1356.11 69.8779970333034
1375.84 70.42495152389863
1395.85 70.99221170167114
1416.15 71.52396549713019
1436.75 71.9865930998039
1457.65 72.36367160219054
1478.85 72.64383771626153
1500.36 72.82044860007848
1522.19 72.89612752321187
1544.33 72.87522969131025
1566.79 72.76278382293475
1589.58 72.56525422879679
1612.7 72.29352151826565
1636.16 71.95018343227737
1659.95 71.54069655527525
1684.1 71.06665754170143
1708.6 70.5298182032657
1733.45 69.9379743395485
1758.66 69.29336244528221
1784.24 68.6258360433332
1810.19 67.98692658231784
1836.52 67.42943137111062
1863.24 67.01808492254754
1890.34 66.7781601933057
1917.83 66.6747712331591
1945.73 66.62994068881494
1974.03 66.55400887896145
2002.74 66.3821492022406
2031.87 66.09036696624293
2061.43 65.70431503448651
2091.41 65.30023242157621
2121.83 64.98914787329657
2152.69 64.85259727051384
2184.01 64.87493856061015
2215.77 64.94399592043969
2248.0 64.91377175413714
2280.7 64.66632596018631
2313.87 64.13198764303029
2347.53 63.31465097003347
2381.68 62.342026853573444
2416.32 61.51682091180491
2451.46 61.23795400723719
2487.12 61.61086829046087
2523.3 62.31318529039241
2560.0 62.96093957737405
2597.24 63.35752093526098
2635.01 63.481031063973475
2673.34 63.42695777573002
2712.23 63.36735073276951
2751.68 63.466806973356185
2791.7 63.75342073728949
2832.31 64.09190717230608
2873.5 64.30986327071578
2915.3 64.3224079226229
2957.7 64.18536226210253
3000.72 64.08702340224342
3044.37 64.2323591213438
3088.65 64.67652384731704
3133.58 65.2994441359188
3179.16 65.96269636207478
3225.4 66.60322830158537
3272.31 67.21000654696147
3319.91 67.78047175970148
3368.2 68.29916422225989
3417.19 68.76210838257055
3466.89 69.18588730372674
3517.32 69.5811547571303
3568.48 69.9309992396074
3620.39 70.21222010753714
3673.05 70.42353119122738
3726.47 70.5876620153715
3780.67 70.72802650840323
3835.67 70.84884624061867
3891.46 70.947843121038
3948.06 71.03228308681419
4005.49 71.11352779354213
4063.75 71.17484511744624
4122.86 71.17414695098296
4182.82 71.08978467199599
4243.66 70.94454557950189
4305.39 70.77622262518572
4368.01 70.597306810763
4431.55 70.40142518296976
4496.01 70.19455661956397
4561.4 69.9697882695147
4627.75 69.6955448303981
4695.06 69.37520069164354
4763.35 69.11207571705094
4832.64 69.02733654846327
4902.93 69.12741386689822
4974.24 69.34344194723612
5046.6 69.63246892451625
5120.0 69.9626371070719
5194.47 70.2781420534234
5270.03 70.50567849649993
5346.68 70.60573359253938
5424.45 70.63229199041898
5503.35 70.65973582445382
5583.4 70.6408286582871
5664.61 70.5230868176503
5747.01 70.43470550972533
5830.6 70.50494385004949
5915.41 70.65000671511562
6001.45 70.76694648680937
6088.74 70.86645705786636
6177.3 70.92625497420761
6267.15 70.89501814960038
6358.31 70.83561193044662
6450.8 70.83514427559253
6544.62 70.87068161316174
6639.82 70.947754559693
6736.4 71.11861251919471
6834.38 71.36007210679996
6933.79 71.5915719306793
7034.64 71.73045622940522
7136.96 71.71397517160132
7240.77 71.5688111012989
7346.09 71.32412950195548
7452.94 71.01286039127955
7561.35 70.81860514710397
7671.33 70.81120150823628
7782.91 70.93812879676167
7896.12 71.2098402434803
8010.97 71.59097694917376
8127.49 72.16742138936125
8245.71 72.60576799876436
8365.65 72.10187677796564
8487.33 71.19305682502463
8610.78 70.68872143392248
8736.03 70.40074901950743
8863.09 70.22208563172923
8992.01 70.08251192167587
9122.8 69.87350644641776
9255.5 69.80347457886384
9390.12 69.91418211987256
9526.7 69.92477642236383
9665.27 69.82533080247812
9805.86 69.75991469969115
9948.49 69.78105990918156
10093.2 69.83173489839332
10240.0 69.90767129727722
10388.9 69.98373170129683
10540.1 69.97003550210205
10693.4 69.75498335649053
10848.9 69.47510871701611
11006.7 69.340926230249
11166.8 69.37968931869996
11329.2 69.65190566549087
11494.0 70.07363586713626
11661.2 70.04568813324245
11830.8 70.14767958724455
12002.9 70.28747388790555
12177.5 70.29646943308452
12354.6 70.25313858852348
12534.3 70.18138795338557
12716.6 70.0225910108527
12901.6 69.81337474608628
13089.2 69.72633931177899
13279.6 69.59507259241815
13472.8 69.39979285848355
13668.8 69.25876547375232
13867.6 69.1456071885178
14069.3 68.98359539978222
14273.9 68.81782379122865
14481.5 68.85307049950444
14692.2 68.9546633426228
14905.9 68.73658003482247
15122.7 68.16471164734156
15342.7 67.8656141609322
15565.8 68.45134379920462
15792.2 68.52074094161829
16021.9 67.53398751730568
16255.0 66.96063035111386
16491.4 67.81598919012167
16731.3 68.20331893014104
16974.7 67.46504640829933
17221.6 66.7319412834463
17472.1 66.76049166777669
17726.2 67.24793640742526
17984.0 67.03266706768481
18245.6 66.9174140411069
18511.0 67.23195653658846
18780.2 67.37704462686885
19053.4 67.24212630168614
19330.5 67.14351849227582
19611.7 66.91551155460009
19897.0 66.32658663177725
