Freq "Front Wall Bounce"
20.0 21.330774488304783
20.2909 23.6150587970982
20.586 25.66705879709822
20.8855 27.19147600542111
21.1893 28.04820445659267
21.4975 28.34462168446295
21.8102 28.104051701422335
22.1274 27.390767392164364
22.4492 26.471468977515755
22.7758 25.922197428247884
23.1071 26.469197428247853
23.4432 27.954343183740733
23.7841 29.401614723895463
24.1301 30.362044808654915
24.4811 30.81919060283586
24.8372 30.93619060283585
25.1984 31.039336425695083
25.5649 31.490336425695105
25.9368 32.351336425695095
26.3141 33.35775380869576
26.6968 34.21532987065355
27.0851 34.81232987065353
27.4791 35.22374732146149
27.8788 35.66403163203334
28.2843 36.28017756099801
28.6957 37.03017756099801
29.1131 37.74774103728991
29.5365 38.30502534827313
29.9661 38.69346950503298
30.402 39.025615520112595
30.8442 39.482317369770485
31.2929 40.092463423590786
31.748 40.76116533145496
32.2098 41.37016533145497
32.6783 41.87131142402298
33.1536 42.36388801531878
33.6359 42.942159521411455
34.1251 43.62430568146745
34.6215 44.311034184512366
35.125 44.91588240813935
35.6359 45.43288240813938
36.1543 45.9557443340821
36.6802 46.554446398468244
37.2137 47.21159268353925
37.755 47.85202330848536
38.3041 48.43973899736859
38.8613 49.018441129985334
39.4265 49.625587482615046
40.0 50.256733864014066
40.5818 50.881436064859784
41.1721 51.49531100542161
41.771 52.11401324584109
42.3785 52.73186201263516
42.9949 53.334008519655
43.6203 53.923155055469365
44.2548 54.5188574222975
44.8985 55.12300399695563
45.5515 55.72429723269312
46.2141 56.32215060041928
46.8863 56.926297232693116
47.5683 57.53914634892729
48.2602 58.1472930488858
48.9621 58.744142301040426
49.6743 59.33828906870798
50.3968 59.94028906870798
51.1299 60.54658269055851
51.8736 61.15401385648643
52.6281 61.75716072991452
53.3936 62.35430763219672
54.1702 62.95001028348534
54.9581 63.547859934140476
55.7575 64.14485993414048
56.5685 64.72800691426754
57.3914 65.30715392326609
58.2261 65.88500374888012
59.073 66.45015082570045
59.9323 67.00372939636632
60.804 67.5647293963663
61.6884 68.12787655022801
62.5857 68.68644230806886
63.496 69.23887386034495
64.4196 69.77502111099217
65.3566 70.27916839055482
66.3073 70.75431569903759
67.2717 71.21101869302797
68.2502 71.65816604051186
69.2429 72.0890164791439
70.2501 72.51316389457342
71.2719 72.93831133894517
72.3086 73.34474314172286
73.3603 73.72244630168088
74.4274 74.06703815590522
75.5099 74.38774133602745
76.6083 74.69032084332713
77.7226 74.95973973456611
78.8531 75.21546845221093
80.0 75.46061609006831
81.1636 75.68446705494354
82.3442 75.88919581801807
83.5419 76.06076249575116
84.757 76.20476249575117
85.9899 76.33261363600252
87.2406 76.45434240823185
88.5096 76.56249022044837
89.797 76.64934148773679
91.1031 76.70478593190583
92.4282 76.71521819498639
93.7726 76.67936611357199
95.1366 76.64251406118144
96.5204 76.65921754706362
97.9243 76.71479794093047
99.3486 76.76679794093046
100.794 76.81266159439672
102.26 76.84767489390741
103.747 76.87382296731398
105.256 76.89067465511548
106.787 76.90167465511547
108.34 76.89482279673506
109.916 76.86997096741462
111.515 76.82869994924322
113.137 76.81655180344093
114.783 76.80999639629948
116.452 76.79942907894433
118.146 76.79513276378904
119.865 76.79457736545253
121.608 76.79601012398908
123.377 76.80215845895349
125.171 76.80730682300921
126.992 76.80330682300922
128.839 76.79003595057046
130.713 76.77018435297771
132.615 76.70133278448719
134.543 76.6486172531653
136.5 76.64649492259804
138.486 76.63449492259804
140.5 76.58919868015785
142.544 76.52164341185848
144.617 76.47707643434101
146.721 76.46095428162069
148.855 76.47166976951232
151.02 76.4381028577719
153.217 76.38653600256605
155.445 76.31498083654054
157.706 76.19326539378393
160.0 76.06171025547546
162.327 76.0568589084154
164.688 76.0292921459886
167.084 76.0542921459886
169.514 76.04972544010097
171.98 75.73372544010095
174.481 75.57145496771251
177.019 75.53760369786652
179.594 75.5453332801709
182.206 75.52803709491347
184.856 75.58003709491346
187.545 75.62648204874294
190.273 75.6899154921844
193.041 75.72934899217134
195.849 75.7016451561591
198.697 75.6810786831297
201.587 75.64207868312968
204.52 75.57851226664835
207.494 75.58324203000258
210.512 75.62024203000259
213.574 75.46767569705345
216.681 75.24537960333673
219.833 75.17510942065667
223.03 75.20310942065666
226.274 75.16710942065667
229.565 75.02654320081393
232.905 74.97454320081394
236.292 75.01953209939721
239.729 75.08168103252292
243.216 75.06496600282634
246.754 75.04396600282634
250.343 75.10939996281499
253.984 75.13539996281499
257.678 75.12410405478161
261.426 75.1498232118488
265.229 75.1118232118488
269.087 74.9105274007764
273.001 74.90081257807948
276.972 74.93651683439042
281.0 74.95195107052174
285.088 75.00365540435365
289.234 75.0479407046029
293.441 75.02207949479633
297.709 74.76207949479634
302.04 74.82963494099027
306.433 74.65935486688767
310.89 74.90920848462584
315.412 75.0311986543579
320.0 74.98618895782583
324.655 74.57762368972767
329.377 74.57432847749577
334.168 74.775023951752
339.028 74.79316384651119
343.959 74.83844970512207
348.962 74.88430390484011
354.038 74.83302494385083
359.188 74.80816530848819
364.412 74.6223058366793
369.713 74.6781765986359
375.09 74.72731746266355
380.546 74.78063251299916
386.081 74.83377366502089
391.697 74.78835883139469
397.394 74.73911033041524
403.175 74.6946958586256
409.039 74.5701615827236
414.989 74.49135827324451
421.025 74.44726900266444
427.149 74.46491114936376
433.362 74.34782311086447
439.665 74.32235600443123
446.06 74.16889052541114
452.548 74.04372133621922
459.131 73.89516864657213
465.809 73.6983417071419
472.584 73.595251576121
479.458 73.48372890863547
486.432 73.3781253930606
493.507 73.27624361926124
500.686 73.15310398795108
507.968 73.11156778526885
515.357 73.0337442152722
522.853 72.9905270233077
530.458 72.96291194802093
538.174 72.96711920872913
546.002 72.96865766839882
553.943 72.98692339572982
562.001 73.0159222485919
570.175 73.04893251108571
578.469 73.07984864268516
586.883 73.10495692575539
595.419 73.12151874048335
604.08 73.12973612180487
612.866 73.12833184896792
621.78 73.11703612860781
630.824 73.09718477494421
640.0 73.07187497981378
649.309 73.04403514429511
658.753 73.01840815484259
668.335 73.00069674866246
678.056 72.9987322010846
687.919 73.01963685293397
697.925 73.07071503820352
708.077 73.156872822016
718.376 73.28266571072537
728.825 73.44973661347578
739.426 73.65565468667798
750.181 73.89593441120597
761.093 74.16222205398188
772.163 74.44090061931753
783.394 74.72548668680851
794.789 75.01012522135622
806.349 75.27626144220127
818.078 75.51943704188535
829.977 75.73296144494361
842.05 75.90996306686114
854.298 76.04621213093166
866.724 76.13665718919384
879.33 76.18127033109528
892.12 76.17883091678145
905.097 76.12989114705853
918.262 76.03689078405114
931.618 75.90489351036058
945.169 75.74134564951784
958.917 75.55645133019883
972.864 75.36182368358179
987.015 75.17097631811251
1001.37 74.99103982546144
1015.94 74.84240471309299
1030.71 74.73231959333422
1045.71 74.65901172025362
1060.92 74.61729330391668
1076.35 74.59620527446161
1092.0 74.57968960271795
1107.89 74.55203376578706
1124.0 74.4993347891047
1140.35 74.41064537892733
1156.94 74.28063396734639
1173.77 74.11372361803862
1190.84 73.92173688368776
1208.16 73.72564734209223
1225.73 73.55244234718629
1243.56 73.43438090307873
1261.65 73.40268571364906
1280.0 73.47048990962362
1298.62 73.6332315240428
1317.51 73.86981886305706
1336.67 74.14840894441873
1356.11 74.43206350866231
1375.84 74.69398973176943
1395.85 74.91260347689894
1416.15 75.07481023543535
1436.75 75.17693742560733
1457.65 75.22122033756315
1478.85 75.21311915502197
1500.36 75.16145275259207
1522.19 75.0737412231629
1544.33 74.95900773970081
1566.79 74.8253819412282
1589.58 74.68142181673534
1612.7 74.54008095607175
1636.16 74.41187457651415
1659.95 74.30993444435512
1684.1 74.243263285943
1708.6 74.21182317184874
1733.45 74.20329841172942
1758.66 74.1912685672783
1784.24 74.14132388519388
1810.19 74.01824573523369
1836.52 73.79107156659175
1863.24 73.44420676270319
1890.34 72.98451253723839
1917.83 72.45177308705725
1945.73 71.92789699095619
1974.03 71.5265260304753
2002.74 71.36298494091868
2031.87 71.47541520622588
2061.43 71.8047561118809
2091.41 72.2397351179069
2121.83 72.67683802078999
2152.69 73.04402800508922
2184.01 73.3189242858727
2215.77 73.50911712708889
2248.0 73.64860089186996
2280.7 73.79382865191124
2313.87 73.99935720094366
2347.53 74.28660945306038
2381.68 74.6229798122066
2416.32 74.93539472066931
2451.46 75.14314660406126
2487.12 75.19416097830175
2523.3 75.09185748145272
2560.0 74.90790847279332
2597.24 74.76372614562669
2635.01 74.7609572022141
2673.34 74.90132390601188
2712.23 75.0902914051709
2751.68 75.22151917585336
2791.7 75.25574144222081
2832.31 75.23488466974659
2873.5 75.23289161395637
2915.3 75.28489093161062
2957.7 75.35988677369883
3000.72 75.41162557036105
3044.37 75.43560330566889
3088.65 75.47352635518429
3133.58 75.54485541529094
3179.16 75.60405475830224
3225.4 75.57999014612658
3272.31 75.45308434929062
3319.91 75.2852699481937
3368.2 75.16536811836045
3417.19 75.12513072053741
3466.89 75.13599185913115
3517.32 75.1732024266599
3568.48 75.22270299776987
3620.39 75.23887636588017
3673.05 75.15897167108184
3726.47 75.00346515308162
3780.67 74.90725481818967
3835.67 74.96930438464632
3891.46 75.10953002093144
3948.06 75.18791934998671
4005.49 75.19398350481023
4063.75 75.20796165180214
4122.86 75.23894680357931
4182.82 75.22937693012521
4243.66 75.18460454546496
4305.39 75.15386680884339
4368.01 75.13277671100131
4431.55 75.09125570857388
4496.01 75.0414698054068
4561.4 74.95713223913646
4627.75 74.77508288751946
4695.06 74.52743883506406
4763.35 74.31693437050544
4832.64 74.15345818138137
4902.93 74.03347407344667
4974.24 74.01530698165664
5046.6 74.04645098418963
5120.0 74.03048485194117
5194.47 74.02101790817163
5270.03 74.06482000372249
5346.68 74.10849705928638
5424.45 74.13167086145741
5503.35 74.12983625660233
5583.4 74.15291742779414
5664.61 74.2525350351875
5747.01 74.30966685665004
5830.6 74.2754563624642
5915.41 74.26155158939767
6001.45 74.2666212693746
6088.74 74.27503722968531
6177.3 74.32091640455926
6267.15 74.38252667607135
6358.31 74.42440100291883
6450.8 74.45314391469364
6544.62 74.524140059936
6639.82 74.56236243767403
6736.4 74.5439563653669
6834.38 74.53539792941548
6933.79 74.51800287525029
7034.64 74.52437103468681
7136.96 74.55253045449598
7240.77 74.58455799331405
7346.09 74.57260236880077
7452.94 74.5184006858182
7561.35 74.53309601637221
7671.33 74.61563121812438
7782.91 74.69189076035103
7896.12 74.6912228817116
8010.97 74.46850080531202
8127.49 73.77760433734638
8245.71 72.74047101571068
8365.65 72.99389973394004
8487.33 73.71096546614343
8610.78 73.91284502853254
8736.03 73.82857327554898
8863.09 73.66485239372923
8992.01 73.71175506245312
9122.8 73.78589376895567
9255.5 73.69133906631137
9390.12 73.5565677169959
9526.7 73.40128137420767
9665.27 73.37454664598309
9805.86 73.51418888702608
9948.49 73.7660082585212
10093.2 73.92627060445339
10240.0 74.0656681836356
10388.9 74.26925159713572
10540.1 74.45386314293752
10693.4 74.60326649284467
10848.9 74.75499051876372
11006.7 74.99643276629944
11166.8 75.26849335595152
11329.2 75.45946608051979
11494.0 75.60059761018967
11661.2 75.93351209568446
11830.8 76.03770039833982
12002.9 76.12853962790625
12177.5 76.27565621681192
12354.6 76.40384007357521
12534.3 76.55157722063213
12716.6 76.65926766892564
12901.6 76.70935728995012
13089.2 76.71807186768174
13279.6 76.67556516488177
13472.8 76.64197303901601
13668.8 76.60333435724637
13867.6 76.50572787485393
14069.3 76.29162360026304
14273.9 76.02856172170418
14481.5 75.85263310002608
14692.2 75.80303975393379
14905.9 75.76747777493593
15122.7 75.63650701789376
15342.7 75.32360401488883
15565.8 74.79376822352926
15792.2 74.10010426357233
16021.9 73.41920480094521
16255.0 72.87996251522449
16491.4 72.37111476609466
16731.3 71.81595799966225
16974.7 71.1329040360663
17221.6 70.38683811673648
17472.1 69.73741392705817
17726.2 68.89238278329223
17984.0 67.87517311454447
18245.6 66.77399541601321
18511.0 65.73395823250594
18780.2 64.76621825221495
19053.4 63.679407790252796
19330.5 62.60890079854474
19611.7 62.7993423105512
19897.0 66.96367611065473
