Freq "Front Wall Bounce"
20.0 21.33077448830477
20.2909 23.615058797098214
20.586 25.667058797098207
20.8855 27.191476005421094
21.1893 28.048204456592657
21.4975 28.344621684462965
21.8102 28.10405170142235
22.1274 27.390767392164378
22.4492 26.47146897751577
22.7758 25.92219742824787
23.1071 26.469197428247867
23.4432 27.954343183740747
23.7841 29.401614723895477
24.1301 30.36204480865493
24.4811 30.819190602835846
24.8372 30.936190602835836
25.1984 31.039336425695097
25.5649 31.49033642569509
25.9368 32.35133642569511
26.3141 33.35775380869575
26.6968 34.215329870653534
27.0851 34.81232987065354
27.4791 35.2237473214615
27.8788 35.66403163203336
28.2843 36.280177560998
28.6957 37.03017756099803
29.1131 37.74774103728993
29.5365 38.30502534827312
29.9661 38.693469505032965
30.402 39.02561552011261
30.8442 39.4823173697705
31.2929 40.09246342359083
31.748 40.761165331454976
32.2098 41.370165331454984
32.6783 41.87131142402299
33.1536 42.36388801531879
33.6359 42.94215952141144
34.1251 43.62430568146746
34.6215 44.31103418451235
35.125 44.91588240813937
35.6359 45.43288240813936
36.1543 45.95574433408211
36.6802 46.55444639846826
37.2137 47.21159268353924
37.755 47.85202330848534
38.3041 48.43973899736861
38.8613 49.01844112998535
39.4265 49.62558748261506
40.0 50.25673386401408
40.5818 50.88143606485977
41.1721 51.4953110054216
41.771 52.11401324584108
42.3785 52.73186201263516
42.9949 53.334008519655015
43.6203 53.92315505546935
44.2548 54.518857422297486
44.8985 55.12300399695563
45.5515 55.72429723269313
46.2141 56.32215060041929
46.8863 56.926297232693116
47.5683 57.53914634892732
48.2602 58.14729304888583
48.9621 58.74414230104041
49.6743 59.33828906870798
50.3968 59.94028906870798
51.1299 60.54658269055852
51.8736 61.15401385648643
52.6281 61.75716072991452
53.3936 62.35430763219671
54.1702 62.95001028348533
54.9581 63.54785993414046
55.7575 64.14485993414047
56.5685 64.72800691426755
57.3914 65.30715392326609
58.2261 65.88500374888014
59.073 66.45015082570045
59.9323 67.00372939636632
60.804 67.56472939636632
61.6884 68.12787655022802
62.5857 68.68644230806888
63.496 69.23887386034495
64.4196 69.77502111099217
65.3566 70.27916839055482
66.3073 70.75431569903759
67.2717 71.21101869302797
68.2502 71.65816604051187
69.2429 72.0890164791439
70.2501 72.51316389457344
71.2719 72.93831133894516
72.3086 73.34474314172286
73.3603 73.72244630168088
74.4274 74.06703815590522
75.5099 74.38774133602743
76.6083 74.69032084332713
77.7226 74.95973973456611
78.8531 75.21546845221091
80.0 75.4606160900683
81.1636 75.68446705494354
82.3442 75.88919581801807
83.5419 76.06076249575116
84.757 76.20476249575117
85.9899 76.33261363600252
87.2406 76.45434240823184
88.5096 76.56249022044837
89.797 76.64934148773678
91.1031 76.70478593190583
92.4282 76.71521819498638
93.7726 76.679366113572
95.1366 76.64251406118144
96.5204 76.65921754706362
97.9243 76.71479794093045
99.3486 76.76679794093047
100.794 76.81266159439673
102.26 76.84767489390741
103.747 76.873822967314
105.256 76.89067465511548
106.787 76.90167465511547
108.34 76.89482279673504
109.916 76.86997096741462
111.515 76.82869994924322
113.137 76.81655180344094
114.783 76.80999639629948
116.452 76.79942907894433
118.146 76.79513276378904
119.865 76.79457736545254
121.608 76.79601012398906
123.377 76.80215845895349
125.171 76.80730682300921
126.992 76.80330682300922
128.839 76.79003595057046
130.713 76.77018435297771
132.615 76.70133278448719
134.543 76.64861725316528
136.5 76.64649492259804
138.486 76.63449492259804
140.5 76.58919868015786
142.544 76.52164341185848
144.617 76.47707643434103
146.721 76.46095428162067
148.855 76.47166976951232
151.02 76.4381028577719
153.217 76.38653600256605
155.445 76.31498083654054
157.706 76.19326539378393
160.0 76.06171025547548
162.327 76.05685890841542
164.688 76.02929214598859
167.084 76.0542921459886
169.514 76.04972544010097
171.98 75.73372544010095
174.481 75.57145496771251
177.019 75.53760369786653
179.594 75.54533328017088
182.206 75.52803709491346
184.856 75.58003709491346
187.545 75.62648204874294
190.273 75.6899154921844
193.041 75.72934899217134
195.849 75.7016451561591
198.697 75.68107868312968
201.587 75.64207868312968
204.52 75.57851226664835
207.494 75.58324203000258
210.512 75.62024203000259
213.574 75.46767569705344
216.681 75.24537960333674
219.833 75.17510942065667
223.03 75.20310942065666
226.274 75.16710942065667
229.565 75.02654320081393
232.905 74.97454320081394
236.292 75.0195320993972
239.729 75.08168103252292
243.216 75.06496600282634
246.754 75.04396600282634
250.343 75.10939996281499
253.984 75.13539996281499
257.678 75.12410405478161
261.426 75.1498232118488
265.229 75.1118232118488
269.087 74.9105274007764
273.001 74.90081257807948
276.972 74.93651683439042
281.0 74.95195107052173
285.088 75.00365540435364
289.234 75.0479407046029
293.441 75.02207949479632
297.709 74.76207949479634
302.04 74.82963494099027
306.433 74.65935486688767
310.89 74.90920848462582
315.412 75.03119865435788
320.0 74.98618895782582
324.655 74.57762368972766
329.377 74.57432847749577
334.168 74.77502395175202
339.028 74.79316384651119
343.959 74.83844970512209
348.962 74.88430390484012
354.038 74.83302494385082
359.188 74.80816530848819
364.412 74.62230583667932
369.713 74.6781765986359
375.09 74.72731746266356
380.546 74.78063251299916
386.081 74.83377366502089
391.697 74.78835883139469
397.394 74.73911033041526
403.175 74.6946958586256
409.039 74.57016158272361
414.989 74.49135827324451
421.025 74.44726900266446
427.149 74.46491114936376
433.362 74.34782311086447
439.665 74.32235600443123
446.06 74.16889052541114
452.548 74.04372133621922
459.131 73.89516864657213
465.809 73.6983417071419
472.584 73.595251576121
479.458 73.48372890863547
486.432 73.3781253930606
493.507 73.27624361926124
500.686 73.15310398795107
507.968 73.11156778526885
515.357 73.0337442152722
522.853 72.9905270233077
530.458 72.96291194802095
538.174 72.96711920872913
546.002 72.96865766839882
553.943 72.98692339572982
562.001 73.01592224859192
570.175 73.04893251108571
578.469 73.07984864268516
586.883 73.10495692575539
595.419 73.12151874048335
604.08 73.12973612180487
612.866 73.12833184896792
621.78 73.11703612860782
630.824 73.09718477494422
640.0 73.07187497981378
649.309 73.04403514429511
658.753 73.01840815484259
668.335 73.00069674866246
678.056 72.99873220108461
687.919 73.01963685293397
697.925 73.07071503820353
708.077 73.156872822016
718.376 73.28266571072537
728.825 73.44973661347578
739.426 73.65565468667798
750.181 73.89593441120597
761.093 74.16222205398188
772.163 74.44090061931755
783.394 74.72548668680852
794.789 75.01012522135622
806.349 75.27626144220127
818.078 75.51943704188535
829.977 75.7329614449436
842.05 75.90996306686114
854.298 76.04621213093165
866.724 76.13665718919384
879.33 76.18127033109528
892.12 76.17883091678146
905.097 76.12989114705854
918.262 76.03689078405112
931.618 75.90489351036058
945.169 75.74134564951785
958.917 75.55645133019883
972.864 75.36182368358179
987.015 75.17097631811251
1001.37 74.99103982546143
1015.94 74.842404713093
1030.71 74.73231959333422
1045.71 74.65901172025363
1060.92 74.61729330391668
1076.35 74.59620527446162
1092.0 74.57968960271795
1107.89 74.55203376578706
1124.0 74.49933478910468
1140.35 74.41064537892733
1156.94 74.28063396734639
1173.77 74.11372361803862
1190.84 73.92173688368776
1208.16 73.72564734209223
1225.73 73.55244234718627
1243.56 73.43438090307872
1261.65 73.40268571364906
1280.0 73.47048990962361
1298.62 73.6332315240428
1317.51 73.86981886305705
1336.67 74.14840894441875
1356.11 74.43206350866231
1375.84 74.69398973176945
1395.85 74.91260347689894
1416.15 75.07481023543534
1436.75 75.17693742560733
1457.65 75.22122033756315
1478.85 75.21311915502196
1500.36 75.16145275259207
1522.19 75.0737412231629
1544.33 74.95900773970081
1566.79 74.8253819412282
1589.58 74.68142181673534
1612.7 74.54008095607173
1636.16 74.41187457651415
1659.95 74.30993444435511
1684.1 74.243263285943
1708.6 74.21182317184874
1733.45 74.20329841172943
1758.66 74.1912685672783
1784.24 74.14132388519387
1810.19 74.0182457352337
1836.52 73.79107156659175
1863.24 73.44420676270319
1890.34 72.9845125372384
1917.83 72.45177308705723
1945.73 71.92789699095619
1974.03 71.5265260304753
2002.74 71.3629849409187
2031.87 71.47541520622588
2061.43 71.8047561118809
2091.41 72.23973511790692
2121.83 72.67683802079
2152.69 73.04402800508922
2184.01 73.3189242858727
2215.77 73.50911712708889
2248.0 73.64860089186995
2280.7 73.79382865191124
2313.87 73.99935720094365
2347.53 74.28660945306038
2381.68 74.6229798122066
2416.32 74.93539472066931
2451.46 75.14314660406126
2487.12 75.19416097830174
2523.3 75.0918574814527
2560.0 74.90790847279332
2597.24 74.76372614562668
2635.01 74.7609572022141
2673.34 74.9013239060119
2712.23 75.0902914051709
2751.68 75.22151917585335
2791.7 75.25574144222081
2832.31 75.23488466974658
2873.5 75.23289161395638
2915.3 75.28489093161062
2957.7 75.35988677369883
3000.72 75.41162557036104
3044.37 75.43560330566888
3088.65 75.4735263551843
3133.58 75.54485541529094
3179.16 75.60405475830223
3225.4 75.57999014612658
3272.31 75.4530843492906
3319.91 75.2852699481937
3368.2 75.16536811836045
3417.19 75.12513072053741
3466.89 75.13599185913117
3517.32 75.1732024266599
3568.48 75.22270299776987
3620.39 75.23887636588017
3673.05 75.15897167108184
3726.47 75.00346515308162
3780.67 74.90725481818967
3835.67 74.96930438464632
3891.46 75.10953002093143
3948.06 75.18791934998671
4005.49 75.19398350481023
4063.75 75.20796165180215
4122.86 75.2389468035793
4182.82 75.22937693012523
4243.66 75.18460454546496
4305.39 75.15386680884339
4368.01 75.1327767110013
4431.55 75.09125570857387
4496.01 75.04146980540682
4561.4 74.95713223913646
4627.75 74.77508288751946
4695.06 74.52743883506406
4763.35 74.31693437050544
4832.64 74.15345818138137
4902.93 74.03347407344668
4974.24 74.01530698165664
5046.6 74.04645098418962
5120.0 74.03048485194117
5194.47 74.02101790817161
5270.03 74.0648200037225
5346.68 74.10849705928636
5424.45 74.13167086145742
5503.35 74.12983625660233
5583.4 74.15291742779414
5664.61 74.2525350351875
5747.01 74.30966685665004
5830.6 74.27545636246421
5915.41 74.26155158939767
6001.45 74.2666212693746
6088.74 74.27503722968532
6177.3 74.32091640455926
6267.15 74.38252667607135
6358.31 74.42440100291881
6450.8 74.45314391469364
6544.62 74.524140059936
6639.82 74.56236243767403
6736.4 74.54395636536688
6834.38 74.5353979294155
6933.79 74.51800287525029
7034.64 74.5243710346868
7136.96 74.55253045449597
7240.77 74.58455799331405
7346.09 74.57260236880076
7452.94 74.5184006858182
7561.35 74.5330960163722
7671.33 74.61563121812438
7782.91 74.69189076035103
7896.12 74.6912228817116
8010.97 74.468500805312
8127.49 73.77760433734638
8245.71 72.74047101571067
8365.65 72.99389973394003
8487.33 73.71096546614342
8610.78 73.91284502853253
8736.03 73.82857327554898
8863.09 73.66485239372923
8992.01 73.71175506245312
9122.8 73.78589376895566
9255.5 73.69133906631137
9390.12 73.5565677169959
9526.7 73.40128137420766
9665.27 73.37454664598309
9805.86 73.51418888702608
9948.49 73.7660082585212
10093.2 73.92627060445339
10240.0 74.06566818363558
10388.9 74.2692515971357
10540.1 74.45386314293751
10693.4 74.60326649284468
10848.9 74.75499051876372
11006.7 74.99643276629944
11166.8 75.26849335595153
11329.2 75.45946608051979
11494.0 75.60059761018965
11661.2 75.93351209568448
11830.8 76.03770039833984
12002.9 76.12853962790625
12177.5 76.27565621681194
12354.6 76.40384007357521
12534.3 76.55157722063213
12716.6 76.65926766892564
12901.6 76.70935728995013
13089.2 76.71807186768173
13279.6 76.67556516488177
13472.8 76.64197303901602
13668.8 76.60333435724635
13867.6 76.50572787485393
14069.3 76.29162360026304
14273.9 76.0285617217042
14481.5 75.85263310002607
14692.2 75.80303975393379
14905.9 75.76747777493594
15122.7 75.63650701789376
15342.7 75.32360401488883
15565.8 74.79376822352927
15792.2 74.10010426357233
16021.9 73.4192048009452
16255.0 72.87996251522449
16491.4 72.37111476609466
16731.3 71.81595799966226
16974.7 71.1329040360663
17221.6 70.3868381167365
17472.1 69.7374139270582
17726.2 68.89238278329225
17984.0 67.87517311454447
18245.6 66.77399541601321
18511.0 65.73395823250594
18780.2 64.76621825221495
19053.4 63.679407790252796
19330.5 62.60890079854474
19611.7 62.7993423105512
19897.0 66.96367611065472
