Freq "Side Wall Bounce"
20.0 20.86371821882784
20.2909 23.14843881596363
20.586 25.200208730194845
20.8855 26.724522106092934
21.1893 27.581292077710344
21.4975 27.877856204390042
21.8102 27.63755578806615
22.1274 26.924276814469607
22.4492 26.004841092917133
22.7758 25.45554088975939
23.1071 26.002697803219945
23.4432 27.48785216903758
23.7841 28.935346365795283
24.1301 29.89568116712789
24.4811 30.35299530356224
24.8372 30.470103061847
25.1984 30.573487448063872
25.5649 31.024389642587607
25.9368 31.88531735281893
26.3141 32.89158276880974
26.6968 33.749740078687154
27.0851 34.34623303379914
27.4791 34.75795548970109
27.8788 35.19788367417664
28.2843 35.81460633319901
28.6957 36.56430556096058
29.1131 37.28180114493114
29.5365 37.83952414944102
29.9661 38.2277909698297
30.402 38.560333775926466
30.8442 39.01644310851913
31.2929 39.62709562285758
31.748 40.295819294983374
32.2098 40.904748512896475
32.6783 41.4061744295426
33.1536 41.898669911000184
33.6359 42.4770086166439
34.1251 43.15950440948811
34.6215 43.84600043796192
35.125 44.45088335320443
35.6359 44.96797178558268
36.1543 45.490649111542865
36.6802 46.08973792524057
37.2137 46.74662170146996
37.755 47.38689160614487
38.3041 47.9750252633761
38.8613 48.55365947391499
39.4265 49.160952325095565
40.0 49.79204230384451
40.5818 50.416540726718665
41.1721 51.03076592367344
41.771 51.64926487006983
42.3785 52.26712823396417
42.9949 52.86962768304893
43.6203 53.4585139900918
44.2548 54.05435421974144
44.8985 54.6586268931602
45.5515 55.26028686263115
46.2141 55.85737903408601
46.8863 56.46167512440273
47.5683 57.074517093294816
48.2602 57.682609910132896
48.9621 58.27945257324539
49.6743 58.87395454138874
50.3968 59.475776885505184
51.1299 60.08205181777792
51.8736 60.689714812516414
52.6281 61.2923781843258
53.3936 61.88972114831083
54.1702 62.48538510182601
54.9581 63.08304943249961
55.7575 63.680121371601274
56.5685 64.26299080876689
57.3914 64.84245177393045
58.2261 65.41995669208885
59.073 65.98496504285822
59.9323 66.53863157883715
60.804 67.0995671212545
61.6884 67.66241562968413
62.5857 68.2210831077011
63.496 68.77316028061963
64.4196 69.30925780226143
65.3566 69.81337927133924
66.3073 70.28822961749736
67.2717 70.74432779097013
68.2502 71.19177245608317
69.2429 71.62207665144494
70.2501 72.0457469227432
71.2719 72.47125565644671
72.3086 72.87713049775186
73.3603 73.25443585713023
74.4274 73.59910746659854
75.5099 73.91918538672377
76.6083 74.22169540740484
77.7226 74.49102394027213
78.8531 74.74653441146356
80.0 74.99104511814275
81.1636 75.21451492341572
82.3442 75.41902618072336
83.5419 75.59035588037717
84.757 75.73363931925424
85.9899 75.86115123685607
87.2406 75.98227805093505
88.5096 76.08979044302666
89.797 76.17636354806153
91.1031 76.2316944147437
92.4282 76.24100397758725
93.7726 76.20494376195975
95.1366 76.16725377638852
96.5204 76.18319918674781
97.9243 76.23832783645383
99.3486 76.28990159278422
100.794 76.33463869799778
102.26 76.36897109554852
103.747 76.39455093832322
105.256 76.41028843401439
106.787 76.42045791333662
108.34 76.41319562802602
109.916 76.38759420373555
111.515 76.34533215124696
113.137 76.33213554267533
114.783 76.32430564566452
116.452 76.31304389831044
118.146 76.30766568164447
119.865 76.30601807805296
121.608 76.30664011377391
123.377 76.31121499248627
125.171 76.31518295084447
126.992 76.31064157920481
128.839 76.29603472160278
130.713 76.27483926438747
132.615 76.20446203473848
134.543 76.1500849648782
136.5 76.14686292819034
138.486 76.13311959614167
140.5 76.08612734402448
142.544 76.01697268542483
144.617 75.97084413044169
146.721 75.95307407663512
148.855 75.96192793108312
151.02 75.92681249519217
153.217 75.87361835540587
155.445 75.8000788422991
157.706 75.67599166472138
160.0 75.54245253629655
162.327 75.53591357122366
164.688 75.50621112827378
167.084 75.528490887287
169.514 75.52158658717505
171.98 75.20350100391113
174.481 75.03861795272444
177.019 75.00214783844311
179.594 75.00766858171094
182.206 74.98718112944948
184.856 75.0369338643644
187.545 75.08088912646468
190.273 75.14103763114494
193.041 75.17738875641535
195.849 75.14675854865717
198.697 75.12298829189294
201.587 75.08058100012408
204.52 75.01338852365218
207.494 75.01476075604066
210.512 75.04840714474444
213.574 74.89145007561807
216.681 74.66548118443772
219.833 74.59113056768749
223.03 74.61543809213987
226.274 74.57450401423213
229.565 74.42922872646893
232.905 74.37354041418655
236.292 74.41326827641946
239.729 74.47081752034781
243.216 74.44854876485674
246.754 74.42277908583222
250.343 74.48240837243286
253.984 74.50244218766207
257.678 74.48551427759854
261.426 74.5049912719674
265.229 74.46009029716623
269.087 74.25223402668345
273.001 74.23541740111924
276.972 74.26436751540213
281.0 74.27260140176372
285.088 74.316300928536
289.234 74.35240390010773
293.441 74.31795659229795
297.709 74.04957701655098
302.04 74.10778131726205
306.433 73.92801859588366
310.89 74.16745073583971
315.412 74.27903121567658
320.0 74.22308686256869
324.655 73.80317750056417
329.377 73.78834366162033
334.168 73.97648123277438
339.028 73.98165795689324
343.959 74.01369768320384
348.962 74.04557988514911
354.038 73.98072739239201
359.188 73.94041517434644
364.412 73.73884691498868
369.713 73.77852936527741
375.09 73.81153890005537
380.546 73.8480279374289
386.081 73.8835744743452
391.697 73.8206831244538
397.394 73.75267676170503
403.175 73.69097536615438
409.039 73.5488677827722
414.989 73.4528327409735
421.025 73.39171384056101
427.149 73.39374236123149
433.362 73.26267687784514
439.665 73.22400368133
446.06 73.0598224904862
452.548 72.92672370083378
459.131 72.7729325081744
465.809 72.57404178841323
472.584 72.47245243375376
479.458 72.366609750397
486.432 72.26961501688635
493.507 72.17975215142812
500.686 72.07223376562101
507.968 72.04833799293029
515.357 71.98905754586974
522.853 71.96461295816704
530.458 71.95541982678799
538.174 71.97505344189145
546.002 71.98879164603773
553.943 72.01508278376006
562.001 72.0461920434396
570.175 72.0748219954083
578.469 72.09354240612109
586.883 72.09747952652923
595.419 72.08417727647509
604.08 72.05075273501616
612.866 71.99604055508686
621.78 71.9169999639152
630.824 71.81458102047587
640.0 71.69069040046969
649.309 71.54978601575306
658.753 71.39346020367485
668.335 71.22446559383302
678.056 71.05834270373384
687.919 70.90429245993552
697.925 70.7751741450623
708.077 70.68842747455965
718.376 70.65460476794188
728.825 70.68508570588168
739.426 70.78486040528179
750.181 70.95267481872017
761.093 71.18015159108775
772.163 71.44857333280616
783.394 71.7447030152693
794.789 72.05667808394325
806.349 72.35880177711475
818.078 72.6404133747815
829.977 72.89136432416372
842.05 73.10181622891558
854.298 73.26512812151569
866.724 73.37589856322867
879.33 73.43498671598009
892.12 73.44043866149367
905.097 73.39379873443211
918.262 73.30072454342232
931.618 73.16814160800317
945.169 73.00674143174408
958.917 72.8287971521814
972.864 72.65057694011612
987.015 72.48780468149101
1001.37 72.34779714655589
1015.94 72.24710471956088
1030.71 72.18730771418033
1045.71 72.16007606103332
1060.92 72.15056233039338
1076.35 72.14108544043339
1092.0 72.11163623246753
1107.89 72.04257879548958
1124.0 71.9209198272711
1140.35 71.73769720727208
1156.94 71.490745509565
1173.77 71.19168848334272
1190.84 70.86318599570396
1208.16 70.53975606374141
1225.73 70.26232465708135
1243.56 70.07800310523649
1261.65 70.01930730141571
1280.0 70.08565744007916
1298.62 70.24795217686734
1317.51 70.46143322831836
1336.67 70.67676461819062
1356.11 70.8536087124836
1375.84 70.96973717042175
1395.85 71.01917617243184
1416.15 71.01053488494846
1436.75 70.96635292730153
1457.65 70.91515085092561
1478.85 70.88314463559777
1500.36 70.88506554653137
1522.19 70.91695709892377
1544.33 70.95678618577239
1566.79 70.97391557511074
1589.58 70.93796114167716
1612.7 70.83307928349778
1636.16 70.66182438528358
1659.95 70.45136275402628
1684.1 70.2506020687284
1708.6 70.11247243784007
1733.45 70.07004176373923
1758.66 70.11099047141721
1784.24 70.17926078245344
1810.19 70.19488081553638
1836.52 70.08250900019264
1863.24 69.78731347974795
1890.34 69.2845703643413
1917.83 68.59422150884899
1945.73 67.7986799994805
1974.03 67.06267965700188
2002.74 66.62011974042012
2031.87 66.62416385864373
2061.43 67.02294839191418
2091.41 67.62822932834652
2121.83 68.25690105665507
2152.69 68.79070269538198
2184.01 69.18579549962506
2215.77 69.43081480024134
2248.0 69.54716240666035
2280.7 69.60630925605818
2313.87 69.71749179239144
2347.53 69.9852935437466
2381.68 70.42678184468217
2416.32 70.94626136905484
2451.46 71.39015463389475
2487.12 71.63428186278662
2523.3 71.6316353357864
2560.0 71.43129686177063
2597.24 71.17495718404759
2635.01 71.03212632277472
2673.34 71.07719577930881
2712.23 71.22091713957582
2751.68 71.31456813191093
2791.7 71.28609664129448
2832.31 71.19558294781011
2873.5 71.17055784674454
2915.3 71.27430608081455
2957.7 71.44053494556877
3000.72 71.55852501995896
3044.37 71.59672462520814
3088.65 71.62226977352282
3133.58 71.70479234825947
3179.16 71.82518031114631
3225.4 71.89885878772427
3272.31 71.88625833917177
3319.91 71.83320044453563
3368.2 71.80465845439304
3417.19 71.80450520465814
3466.89 71.79878300632714
3517.32 71.80433560719467
3568.48 71.87112258085766
3620.39 71.9766495371997
3673.05 72.02307826069125
3726.47 71.9712085186627
3780.67 71.9094558296444
3835.67 71.92098998644298
3891.46 71.94162978157846
3948.06 71.8683293676032
4005.49 71.74600620881654
4063.75 71.70567327081812
4122.86 71.73542979873855
4182.82 71.68975696207795
4243.66 71.52946078748217
4305.39 71.36540947671591
4368.01 71.263013167051
4431.55 71.17557565298772
4496.01 71.07563927814371
4561.4 70.9732571714448
4627.75 70.84375027184402
4695.06 70.68617894527162
4763.35 70.54632334724778
4832.64 70.40590030944014
4902.93 70.21997331696298
4974.24 70.04005380486217
5046.6 69.89971674776564
5120.0 69.78186482584358
5194.47 69.74333340111926
5270.03 69.72923489758092
5346.68 69.58826364774524
5424.45 69.4808525647109
5503.35 69.54903475272354
5583.4 69.54912872287943
5664.61 69.4375628424326
5747.01 69.35268888771506
5830.6 69.24714808699154
5915.41 69.19796447193444
6001.45 69.21668732890859
6088.74 69.12945392173094
6177.3 68.9145459715451
6267.15 68.81886843176414
6358.31 69.03623445151676
6450.8 69.15633995930624
6544.62 69.13972288457894
6639.82 69.24676419915232
6736.4 69.30351711439538
6834.38 69.27375521951802
6933.79 69.20988741531778
7034.64 69.1684460568401
7136.96 69.09559360330388
7240.77 69.19078281089683
7346.09 69.43982981174288
7452.94 69.76407483183355
7561.35 69.932443279946
7671.33 70.08429289858014
7782.91 70.2895250248805
7896.12 70.58876375430917
8010.97 71.00166073261921
8127.49 71.50171133197586
8245.71 71.22194345061463
8365.65 70.05550123171983
8487.33 69.35282748958979
8610.78 69.08469527896992
8736.03 68.83990018408065
8863.09 68.44842959377617
8992.01 67.83015891997493
9122.8 67.5476545722572
9255.5 67.43113914281517
9390.12 67.32847590997854
9526.7 67.2432077287652
9665.27 67.15837294928104
9805.86 67.0357002871181
9948.49 67.20431269385253
10093.2 67.63676714375666
10240.0 67.69895073849054
10388.9 67.57490399468726
10540.1 67.536852162668
10693.4 67.51651719396995
10848.9 67.62939699132673
11006.7 67.55190229066272
11166.8 67.58075040269195
11329.2 67.82857232800407
11494.0 68.24737183406171
11661.2 68.40538381305922
11830.8 68.57046283772425
12002.9 68.71097020359585
12177.5 68.64620002687369
12354.6 68.60865154947601
12534.3 68.58901076142824
12716.6 68.3682101322926
12901.6 68.33946136646918
13089.2 68.23181266977817
13279.6 68.15771030911603
13472.8 68.06722275307456
13668.8 67.95687104518412
13867.6 67.66898817789243
14069.3 67.26718059609959
14273.9 66.80767766596534
14481.5 66.4730477099761
14692.2 66.20140095487787
14905.9 65.8777736963528
15122.7 65.51408215896657
15342.7 65.10010791486367
15565.8 64.6009826742325
15792.2 63.7544611063135
16021.9 62.97327168660473
16255.0 61.99115899571562
16491.4 60.69172484854552
16731.3 59.40616781411967
16974.7 58.413928568043914
17221.6 57.819607672756945
17472.1 57.212966363347576
17726.2 54.8958477618813
17984.0 53.965797319353214
18245.6 55.165771383450334
18511.0 56.65391050460127
18780.2 57.74909644992749
19053.4 58.55034246391037
19330.5 59.21235201444152
19611.7 59.00836815122594
19897.0 60.51949769061068
