Freq "Ceiling Bounce"
22.4 20.206641549265782
23.0 20.83452415393478
23.6 26.323123512270342
24.0 30.808444396506815
25.0 32.570896000072906
25.8 34.22637355670787
26.5 35.182306499568455
27.2 36.55956183448649
28.0 37.41916705502754
29.0 38.28982856673471
30.0 39.734524153934785
30.7 42.795064580358286
31.5 45.54314683892159
32.5 47.86820626411148
33.5 49.94511556931755
34.5 51.71430637862281
35.5 53.374493510304376
36.5 55.10531806766471
37.5 56.86769521305294
38.7 58.60228461396021
40.0 60.036635756671856
41.2 61.53821129888743
42.5 62.93513059177984
43.7 64.50076749445562
45.0 66.20076749445562
46.2 67.83358982687997
47.5 69.06692185116049
48.7 70.2669218511605
50.0 71.70000000000002
51.5 73.1
53.0 74.29999999999998
54.5 75.6
56.0 77.0
58.0 78.3
60.0 79.23358982687998
61.5 79.9
63.0 80.3669218511605
65.0 80.96845083805434
67.0 81.43663575667186
69.0 81.76845083805433
71.0 82.16845083805433
73.0 82.30306957104251
75.0 82.40306957104252
77.5 82.43663575667186
80.0 82.60306957104252
82.5 82.77150800786937
85.0 82.90306957104252
87.5 83.03663575667187
90.0 83.17150800786938
92.5 83.43663575667185
95.0 83.76845083805432
97.5 83.93663575667186
100.0 83.97150800786937
103.0 83.9760917544922
106.0 84.01227178315618
109.0 84.14576719438469
112.0 84.44576719438469
115.0 84.7404416794549
118.0 85.00306957104252
122.0 84.97609175449222
125.0 84.61916705502753
128.0 84.4234968506598
132.0 84.36096514237182
136.0 84.33257218046558
140.0 84.33257218046558
145.0 84.26096514237182
150.0 84.28982856673473
155.0 84.35260953202219
160.0 84.38219967332304
165.0 84.15260953202217
170.0 83.83257218046558
175.0 83.34314826109436
180.0 83.18219812790053
185.0 83.37082970284297
190.0 83.47082970284299
195.0 83.31592538879983
200.0 83.0687803399679
206.0 82.94293979360191
212.0 83.0429397936019
218.0 83.25521969308379
224.0 83.55521969308379
230.0 83.88219812790055
236.0 83.91592538879982
240.0 83.76878033996792
250.0 83.70261155895365
258.0 83.60261155895364
265.0 83.7429397936019
272.0 83.81753803239934
280.0 83.75866027600836
290.0 83.63392832814569
300.0 83.67584607527147
307.0 83.73392832814568
315.0 84.13392832814569
325.0 84.1944886893229
335.0 84.37106744273919
345.0 84.37106744273919
355.0 84.72812100489948
365.0 85.25177437534741
375.0 85.50034112939828
387.0 85.60034112939827
400.0 85.45866027600835
412.0 85.02526453928849
425.0 84.26136837622765
437.0 83.90497668676807
450.0 83.6809849055068
462.0 83.25098823501219
475.0 82.99317487506892
487.0 82.59083949114904
500.0 82.0034858149106
515.0 81.83702458145022
530.0 81.70780688674016
545.0 80.97940843630548
560.0 80.87940843630548
580.0 80.85113618833881
600.0 80.3511361883388
615.0 79.45113618833881
630.0 78.50609330848388
650.0 78.73451276341987
670.0 78.98165166118675
690.0 78.98120401425271
710.0 79.43285923084076
730.0 80.49503865849019
750.0 79.82057197226932
775.0 78.61456862909401
800.0 78.10920033289935
825.0 79.2972089706332
850.0 79.95149200527814
875.0 79.92285902893767
900.0 80.4234968506598
925.0 80.73663575667186
950.0 80.50231994589775
975.0 80.40464502318537
1000.0 80.44314683892156
1030.0 80.14640695475521
1060.0 79.55198202953548
1090.0 79.32747332942243
1120.0 79.34933017157829
1150.0 78.85776478047093
1180.0 78.5104701256328
1220.0 78.75265246320235
1250.0 78.3908368832335
1280.0 78.32762086332255
1320.0 79.08261309733876
1360.0 79.79795477727407
1400.0 80.7003831544583
1450.0 80.33586412827711
1500.0 79.64247521624435
1550.0 79.36756938529855
1600.0 78.70128135632407
1650.0 79.46756938529856
1700.0 79.03749266009872
1750.0 79.15514586287162
1800.0 78.34668083709292
1850.0 77.02892176579772
1900.0 77.76787416923136
1950.0 79.39540175394475
2000.0 79.75541179428038
2060.0 79.55837336870943
2120.0 79.3146642936296
2180.0 79.53115519823288
2240.0 79.40424701850414
2300.0 79.47936999017632
2360.0 80.05431306279463
2400.0 80.45989281065982
2500.0 80.37455543841901
2580.0 79.70332627098969
2650.0 79.36491071900289
2720.0 79.20932852913361
2800.0 79.60480505590478
2900.0 79.79512526325058
3000.0 79.62312489912068
3070.0 79.51987670385896
3150.0 79.57423383499108
3250.0 79.8337185598144
3350.0 80.40386349929798
3450.0 80.66475982265037
3550.0 80.81290627507903
3650.0 80.08214278682027
3750.0 79.78519555329945
3870.0 79.00620197395408
4000.0 78.3322847683958
4120.0 78.14328591903643
4250.0 76.83315940024852
4370.0 76.56597401860917
4500.0 77.22389526938808
4620.0 79.0126632172949
4750.0 79.93787328554853
4870.0 79.5451399992661
5000.0 79.09510831390551
5150.0 78.42456870547149
5300.0 79.34789345233574
5450.0 81.15128371432856
5600.0 81.24938524417942
5800.0 80.79431224999028
6000.0 79.95415430696326
6150.0 78.88917592295984
6300.0 80.37010987615201
6500.0 81.05655157316073
6700.0 80.27244993229336
6900.0 81.25003022646094
7100.0 80.70964455450414
7300.0 79.54915680671037
7500.0 78.82045201940026
7750.0 77.74915680671037
8000.0 76.15327412490555
8250.0 75.62236216959829
8500.0 75.43961604907639
8750.0 75.7592190751063
9000.0 75.35602434558216
9250.0 75.71605583399611
9500.0 76.73966113069748
9750.0 75.36746466663844
10000.0 73.32934077441655
10300.0 72.55714739194283
10600.0 72.80919780954386
10900.0 77.47744600819624
11200.0 78.05934271306731
11500.0 79.33351794576524
11800.0 78.0313316852212
12200.0 75.24483958339866
12500.0 73.48656646311247
12800.0 72.60028818383799
13200.0 78.93006701261305
13600.0 79.45854357349764
14000.0 76.17977745790569
14500.0 77.0159832517726
15000.0 80.76597401860917
15500.0 77.61410926051761
16000.0 79.41055086010083
16500.0 76.81815617499518
17000.0 76.39175232267121
17500.0 72.79875056379595
18000.0 72.63955252761748
18500.0 66.06252628547514
19000.0 68.06448776904014
19500.0 64.70971445448504
