Freq "Floor Bounce"
22.4 19.79178332596311
23.0 23.953268169571686
23.6 28.434550638681657
24.0 28.99491427226488
25.0 30.59430869811561
25.8 32.10261155895367
26.5 33.09749950966173
27.2 34.64066256291326
28.0 36.01832613468224
29.0 37.27295409049299
30.0 38.96526111339767
30.7 41.90464502318534
31.5 44.47977745790567
32.5 46.77071732495409
33.5 48.80076749445561
34.5 50.600767494455624
35.5 52.26845083805432
36.5 54.134351408685035
37.5 56.06845083805433
38.7 58.00231994589775
40.0 59.53513059177983
41.2 61.2022846139602
42.5 62.56845083805433
43.7 63.90076749445561
45.0 65.56845083805432
46.2 67.20306957104252
47.5 68.30306957104251
48.7 69.46845083805432
50.0 70.93435140868503
51.5 72.36845083805434
53.0 73.63513059177981
54.5 75.0007674944556
56.0 76.40076749445561
58.0 77.70076749445562
60.0 78.63358982687998
61.5 79.2007674944556
63.0 79.50306957104252
65.0 79.97150800786937
67.0 80.3069050103546
69.0 80.67387961222818
71.0 80.97609175449222
73.0 81.07609175449221
75.0 81.11227178315617
77.5 81.11227178315617
80.0 81.31227178315618
82.5 81.41227178315619
85.0 81.61227178315617
87.5 81.7122717831562
90.0 81.88219967332304
92.5 82.21227178315618
95.0 82.57609175449221
97.5 82.64283030471974
100.0 82.41916705502754
103.0 82.16588846059688
106.0 82.03752777300028
109.0 82.17662798253903
112.0 82.59897445130926
115.0 83.12758719283593
118.0 83.51916705502754
122.0 83.32758719283592
125.0 82.44898359150842
128.0 81.97641629732152
132.0 81.9094224842602
136.0 81.692378988098
140.0 81.62526453928848
145.0 81.592378988098
150.0 81.75062128010364
155.0 82.07641629732153
160.0 82.13546263134683
165.0 81.87641629732153
170.0 81.16726558859611
175.0 80.26136837622764
180.0 80.10497668676807
185.0 80.5672655885961
190.0 80.66726558859611
195.0 80.1816120853342
200.0 79.45098823501218
206.0 79.12990957385144
212.0 79.32990957385144
218.0 79.7809849055068
224.0 80.1809849055068
230.0 80.57100612011483
236.0 80.60330383828929
240.0 80.24852015458806
250.0 80.07245249207645
258.0 79.97245249207646
265.0 80.00473949550548
272.0 79.89780984381856
280.0 79.67695775614916
290.0 79.40432912249857
300.0 79.35274994214359
307.0 79.40432912249857
315.0 79.73308937677078
325.0 79.51323574403133
335.0 79.59472217650472
345.0 79.56382205324667
355.0 80.01323574403132
365.0 80.83308937677077
375.0 81.39780984381858
387.0 81.57245249207645
400.0 81.57245249207645
412.0 81.46136837622764
425.0 80.34915203998831
437.0 79.90497668676807
450.0 79.55295536787777
462.0 78.93469773360897
475.0 78.58573915648971
487.0 78.41627783177746
500.0 77.91627940083643
515.0 77.4862351245524
530.0 77.54898514879551
545.0 76.90306957104252
560.0 76.54898514879551
580.0 76.14898359150843
600.0 75.35062128010364
615.0 74.3944886893229
630.0 73.29179815677408
650.0 73.60464912211597
670.0 74.01595200332335
690.0 74.21832676913883
710.0 74.7573014965793
730.0 75.8859518710496
750.0 74.63522024477352
775.0 72.12883004806295
800.0 71.63867151058345
825.0 73.1733591306002
850.0 74.06366210064954
875.0 74.05678234791826
900.0 74.60772868220965
925.0 74.782175311342
950.0 74.11068400967258
975.0 72.75758093786129
1000.0 72.27976419010335
1030.0 72.142837910353
1060.0 71.50991281515715
1090.0 70.7535309583895
1120.0 70.878257457041
1150.0 70.77524319942698
1180.0 70.16602649447893
1220.0 70.65083172259908
1250.0 71.18796868418943
1280.0 71.5886810705924
1320.0 72.65052612831406
1360.0 73.09559621526712
1400.0 70.90683305532932
1450.0 68.71975966984412
1500.0 67.22053466065242
1550.0 67.8181436471121
1600.0 66.53925752533571
1650.0 68.46387716353225
1700.0 67.56953804567725
1750.0 70.03897036989244
1800.0 70.53838516867941
1850.0 68.78127869327915
1900.0 70.41639261782151
1950.0 72.75147047691814
2000.0 72.91112494659284
2060.0 72.63749164860505
2120.0 72.45578947403317
2180.0 72.62149518272
2240.0 71.67088706377078
2300.0 71.3465775726698
2360.0 72.23962839397953
2400.0 73.19317649189784
2500.0 73.02499949351883
2580.0 71.61191602473721
2650.0 69.99032892057089
2720.0 69.24346216154969
2800.0 70.09404604153379
2900.0 68.79352660433497
3000.0 68.65984676327713
3070.0 68.20483671851247
3150.0 68.58146241502492
3250.0 68.66764836244454
3350.0 68.39408963790565
3450.0 67.90010099674694
3550.0 69.21767976686996
3650.0 68.9361210203619
3750.0 68.9033892664022
3870.0 70.0468172841693
4000.0 71.29898871827574
4120.0 72.96072651529059
4250.0 69.1993129159884
4370.0 64.8506543694836
4500.0 67.02432154763821
4620.0 69.48656646311247
4750.0 71.56351528209201
4870.0 71.72898714879285
5000.0 70.32734526853493
5150.0 67.37221756484973
5300.0 70.08608372933472
5450.0 73.89297992422925
5600.0 73.75557010865026
5800.0 70.66111575043925
6000.0 68.72319663076657
6150.0 71.7707606079523
6300.0 70.9171947443536
6500.0 70.87082970284297
6700.0 70.04831694379051
6900.0 68.43204493459818
7100.0 67.35676201263392
7300.0 64.79985323749443
7500.0 70.05647994661607
7750.0 69.97769284155933
8000.0 70.99489456285472
8250.0 69.23949660256842
8500.0 69.71210408739812
8750.0 66.57362826397426
9000.0 69.3993330673563
9250.0 67.78915939292243
9500.0 64.64302478785059
9750.0 66.32162132222713
10000.0 64.32720521710814
10300.0 64.65421632114953
10600.0 66.58529497271812
10900.0 70.85313714616954
11200.0 71.93861980433492
11500.0 66.81554761008255
11800.0 69.57211025799336
12200.0 71.33968415753387
12500.0 64.55865853259174
12800.0 64.14694733396453
13200.0 68.04607112759162
13600.0 68.95882546852005
14000.0 69.02077513126419
14500.0 70.7731678008262
15000.0 71.23186428231526
15500.0 63.942830304719735
16000.0 62.96942862157195
16500.0 70.65454675010628
17000.0 64.39925599736502
17500.0 60.255239113439146
18000.0 66.97170745869275
18500.0 65.30130625083817
19000.0 56.51101854008465
19500.0 50.042519350200024
