Freq "Estimated In-Room Response"
22.4 50.48499954048876
23.0 51.590408054571554
23.6 52.723941816302585
24.0 53.865641675580974
25.0 55.067811498791144
25.8 56.36428957020726
26.5 57.96218947434244
27.2 60.06004907294975
28.0 61.27008405424877
29.0 62.58473160210983
30.0 63.4029848557542
30.7 60.22628818460302
31.5 59.84510330225194
32.5 60.11084835827411
33.5 60.939927996097424
34.5 61.81576265216407
35.5 62.756406716547346
36.5 63.9261129059835
37.5 65.04362360456437
38.7 66.21862441551343
40.0 67.56802413138783
41.2 68.86468412902983
42.5 70.12212679038832
43.7 71.23435040122132
45.0 70.74243190055493
46.2 70.09752214840087
47.5 68.3584303117735
48.7 67.39894522662192
50.0 67.0003711611663
51.5 67.1793972543312
53.0 67.73917229059236
54.5 68.33971924689574
56.0 68.98397069270271
58.0 69.60046199375913
60.0 70.16157894649596
61.5 70.69197226047243
63.0 71.19607595112163
65.0 71.6752164611137
67.0 72.09712608262772
69.0 72.50890929307754
71.0 72.9088518695128
73.0 73.29114760768981
75.0 73.63981279081418
77.5 73.94687289534224
80.0 74.21081178361804
82.5 74.45006426881841
85.0 74.61083172210644
87.5 74.69392012600952
90.0 74.66667172571088
92.5 74.53432298877581
95.0 74.3075127121994
97.5 74.02500723741205
100.0 73.73987231796644
103.0 73.6508284797842
106.0 73.80190111637113
109.0 74.1711155616334
112.0 74.69947004959099
115.0 75.24903698375975
118.0 75.72498666612427
122.0 76.10504003780841
125.0 76.28317617685322
128.0 76.33972514178683
132.0 76.14849230331504
136.0 75.78094647711143
140.0 75.42008499948496
145.0 75.34031370133323
150.0 75.67501321246662
155.0 76.2395031714263
160.0 76.84337422927285
165.0 77.28568413178067
170.0 77.65648965730378
175.0 77.89037485577381
180.0 78.02197824053289
185.0 77.98164103692858
190.0 77.7894114118035
195.0 77.49495028722214
200.0 77.21284576941052
206.0 77.01604468454553
212.0 76.88688815441077
218.0 76.81127622083928
224.0 76.850387100776
230.0 76.8806814512199
236.0 76.88033872729775
240.0 76.88818903128474
250.0 76.97254242353142
258.0 77.05342672493389
265.0 77.18049052311208
272.0 77.22956447880719
280.0 77.26277863696836
290.0 77.25407255887714
300.0 77.18067797210269
307.0 77.11204329195652
315.0 76.98083654741758
325.0 76.7521548553618
335.0 76.37637005257506
345.0 75.91817326748196
355.0 76.007072991738
365.0 76.5849888946195
375.0 77.03762785228963
387.0 77.24597616226589
400.0 77.4980469178856
412.0 77.57759846114098
425.0 77.61568556585988
437.0 77.61577360278173
450.0 77.36796225114149
462.0 77.02650267943754
475.0 76.64044625151016
487.0 76.24876853982961
500.0 75.92783042070539
515.0 75.75842083112799
530.0 75.65461960446879
545.0 75.43712135393321
560.0 75.20802614752775
580.0 75.00126589724715
600.0 74.74249844950005
615.0 74.32468999186761
630.0 73.92891665563386
650.0 73.68092384829285
670.0 73.27513830118032
690.0 72.87378705612068
710.0 72.51280025559973
730.0 72.51900372200781
750.0 72.91817314190112
775.0 73.19002870916464
800.0 74.0604486003936
825.0 74.43476869914647
850.0 74.12576796175155
875.0 73.5079141965109
900.0 72.45650900579045
925.0 70.9531890817028
950.0 69.96785994940379
975.0 69.90914707086267
1000.0 69.48791435655087
1030.0 69.6722776023311
1060.0 70.323683227299
1090.0 71.99066474539902
1120.0 73.13204163038938
1150.0 73.12970797012457
1180.0 72.51823683030959
1220.0 72.73111349305843
1250.0 72.38788767195071
1280.0 73.21678346529136
1320.0 73.64754511012583
1360.0 74.08094618778935
1400.0 74.61167646904957
1450.0 74.43194522342242
1500.0 73.98462905438191
1550.0 73.46966059205515
1600.0 72.95994595383209
1650.0 73.206583923919
1700.0 73.46283363812998
1750.0 74.19032059665278
1800.0 74.36504955038923
1850.0 74.42144739101079
1900.0 74.45938463882031
1950.0 74.49262255925672
2000.0 73.51904384569401
2060.0 72.72874233202563
2120.0 71.7912250902581
2180.0 70.56189174370903
2240.0 70.11035095459228
2300.0 70.54579416716624
2360.0 70.36765325088716
2400.0 70.6648981965825
2500.0 71.15348461964322
2580.0 71.22381718675456
2650.0 71.30603785264415
2720.0 71.08411322004096
2800.0 71.28145018898647
2900.0 71.45122216055732
3000.0 72.04076355723844
3070.0 72.47773693605706
3150.0 72.99576476661586
3250.0 73.65242786993743
3350.0 73.70238322053464
3450.0 73.26632708833141
3550.0 73.15459970549918
3650.0 73.28222552384636
3750.0 73.16778056947456
3870.0 73.11520850448645
4000.0 72.56541668507094
4120.0 71.95526993615631
4250.0 71.73538834335116
4370.0 72.19697104115201
4500.0 72.43010732512921
4620.0 72.4683665600055
4750.0 72.55564605425884
4870.0 72.12908092075405
5000.0 71.85374874103024
5150.0 71.4674379054955
5300.0 71.28962455145252
5450.0 71.13548620697695
5600.0 70.29196836586034
5800.0 70.69568778326848
6000.0 71.55769805651693
6150.0 71.675403060079
6300.0 71.49396479161759
6500.0 71.36493449908662
6700.0 71.51761410904608
6900.0 71.19823090813736
7100.0 70.6797157270882
7300.0 70.92438942594501
7500.0 71.24336332814765
7750.0 70.38686955142214
8000.0 70.78117395946325
8250.0 70.70914197065369
8500.0 70.76780504600002
8750.0 70.67328107050017
9000.0 71.02963800472213
9250.0 71.15511332017377
9500.0 71.12212477645491
9750.0 70.73832161618934
10000.0 69.9818260983753
10300.0 70.25935990159512
10600.0 68.92584096977217
10900.0 68.65837570617057
11200.0 67.47011039340626
11500.0 68.78533903660689
11800.0 70.6314722231509
12200.0 69.70332988768071
12500.0 70.456844957968
12800.0 70.68224647784805
13200.0 71.64206579989036
13600.0 68.26416641535555
14000.0 65.99916172554242
14500.0 67.61306342151238
15000.0 68.33015267552716
15500.0 69.19790906798468
16000.0 69.04391365490477
16500.0 66.5131619500116
17000.0 64.62675028347061
17500.0 57.569953246327884
18000.0 60.37331557328862
18500.0 55.64687395658592
19000.0 55.27334721730037
19500.0 52.14900967225552
