Freq "Estimated In-Room Response"
20.5078 52.87416701634834
21.9727 51.05279879899331
23.4375 53.30843599205278
24.9023 54.619466903937365
26.3672 56.39087656283124
27.832 58.02006209778699
29.2969 58.80417607277684
30.7617 60.90474347615006
32.2266 62.087735970739374
33.6914 63.31554742690153
35.1562 65.06950135164803
36.6211 66.15825506205906
38.0859 67.46221034643565
39.5508 68.80007083152391
41.0156 70.05952371621414
42.4805 71.36526436999685
43.9453 72.59851778564122
45.4102 73.65572009939196
46.875 74.76268812236765
48.3398 75.72678489089469
51.2695 77.7418367407671
52.7344 78.5113939017541
54.1992 79.21547434068628
55.6641 79.83473221046278
58.5938 80.86959627395582
60.0586 81.31254036400037
62.9883 82.02171306834698
64.4531 82.24603300500328
67.3828 82.57861172541429
68.8477 82.67590544854755
71.7773 82.95396645285446
74.707 83.20285081097073
77.6367 83.31802934314238
79.1016 83.37725031464225
82.0312 83.56870090272405
84.9609 83.64499966383623
87.8906 83.51928719302482
90.8203 83.735381090771
95.2148 83.89590562405512
98.1445 83.94835945682749
101.074 83.93227480709795
105.469 84.12263828136443
108.398 84.14899321531828
112.793 84.31141139271881
117.188 84.36577584426392
120.117 84.39513650748366
124.512 84.4319117021711
128.906 84.32216722483984
133.301 84.34158118035488
139.16 84.38091297455315
143.555 84.41549698753532
147.949 84.3406059182097
153.809 84.09956544108456
159.668 84.25338426169806
165.527 84.24711855343597
171.387 84.12663032403105
177.246 84.09347620029854
183.105 83.97201075496345
188.965 83.793424194589
196.289 83.81402378430641
203.613 83.71224479206435
210.938 83.53470299030451
218.262 83.33064817017107
225.586 83.31642015784408
232.91 83.213059838028
241.699 82.92646470634574
250.488 82.91847698168519
259.277 82.85232655874589
268.066 82.59942973250233
276.855 82.55730228052346
287.109 82.33935452290301
297.363 82.30725910346548
307.617 82.22704935802297
319.336 81.82179875338895
329.59 81.58184286719843
341.309 81.46652746284107
353.027 81.2179351056692
366.211 81.23881037915797
379.395 81.19537891417114
392.578 80.85907382455301
405.762 80.51639758829363
420.41 80.53320747834786
435.059 80.26001023858768
451.172 80.28774568821373
465.82 80.40663359996832
483.398 80.52369901401524
499.512 80.9733541385749
517.09 80.55079188244311
536.133 80.37118526910116
555.176 80.56115595411083
574.219 80.47607543875178
594.727 80.96508955542755
615.234 80.99836014948974
637.207 80.52169609331705
659.18 80.01367319083761
682.617 80.22386189456938
707.52 80.84375040655279
732.422 80.55534984063398
757.324 80.72186016286793
785.156 80.64115136489723
811.523 80.58041033556867
840.82 80.87192879136995
870.117 80.7460963881273
900.879 80.99632610770303
933.105 80.65587657529615
965.332 80.46555526914214
1000.49 80.04669904608524
1035.64 79.52422104348396
1072.27 79.44997711156392
1108.89 79.52181626446682
1148.44 79.56588467010377
1189.45 79.48173927900238
1230.47 79.87439478890954
1274.41 80.24679305154604
1319.82 80.4921724550801
1366.7 80.22050758912275
1413.57 79.87290434314421
1463.38 79.58069366392279
1516.11 78.59812483142373
1568.85 77.78733066950952
1624.51 77.63201189381584
1681.64 77.63162476366335
1741.7 77.89800437448675
1803.22 77.75601125659121
1866.21 77.13282164480948
1932.13 77.39622494058122
1999.51 78.55902482766471
2069.82 79.2450167454316
2143.07 79.30375106153122
2219.24 78.71868227552862
2296.88 78.55140669758518
2378.91 79.28821049993614
2462.4 80.52616984006802
2548.83 80.59336867261646
2639.65 79.90457240383488
2731.93 79.71798858362027
2828.61 80.37281995551058
2928.22 80.8706853658513
3030.76 80.86524463248051
3137.7 80.77995118775941
3249.02 80.70915896712995
3363.28 80.78173869219177
3481.93 81.1049973689623
3604.98 81.18972108044402
3732.42 81.48965568870646
3864.26 81.00442316383302
4000.49 80.98371683980506
4141.11 81.39787428313977
4287.6 81.44671637573138
4438.48 81.46079980781036
4595.21 80.91215110156418
4756.35 81.17241337491942
4924.8 81.23108357269987
5097.66 81.24025649777627
5277.83 81.49796543777494
5463.87 81.420870911667
5657.23 81.10437697191094
5856.45 80.725877540261
6062.99 80.99377016642119
6276.86 80.70461133043393
6498.05 80.81594511958951
6726.56 80.63474143213004
6963.87 80.64669915740153
7209.96 80.80947452924723
7464.84 80.45519444648359
7727.05 80.76060823902507
7999.51 80.36964641187875
8282.23 80.13542322793441
8573.73 79.66283663881195
8876.95 79.58333158818161
9188.96 79.27516483095289
9514.16 79.0327213121905
9849.61 78.7467661159296
10196.8 78.47243826492705
10555.7 78.27264299227348
10927.7 78.12481290128156
11313.0 77.96135083720188
11712.9 78.06799856334048
12126.0 78.32691454960633
12553.7 78.4091615246626
12996.1 78.20657983974439
13454.6 77.85542703316361
13929.2 77.76188225634985
14419.9 77.48792478410256
14928.2 77.08916791528324
15455.6 76.78558907918716
16000.5 76.51821487330142
16564.5 76.07315349754526
17148.9 75.42223090285579
17752.4 74.6274383287531
18379.4 73.67785725349074
19026.9 72.55091591984481
19697.8 71.18440107866058
19999.5 70.5415801737136
