Freq "Ceiling Bounce"
20.507813 48.04426216547999
21.972656 50.38593197727978
23.4375 52.44208177723458
24.902344 52.923665340838156
26.367188 57.029527699358525
27.832031 58.794184096092536
29.296875 60.77483457767302
30.761719 62.599180881512055
32.226563 64.29396722309556
33.691406 65.84161823881287
35.15625 67.28799042557695
36.621094 68.53196519548334
38.085938 69.76761154111261
39.550781 70.8040255035473
41.015625 71.78569256080303
42.480469 72.59710702192463
43.945313 73.33681786358349
45.410156 73.9577912396073
46.875 74.52230083814014
48.339844 75.03094119133841
51.269531 75.96633060050311
52.734375 76.42290658581642
54.199219 76.84409285146664
55.664063 77.1605681502047
58.59375 77.85311588093758
60.058594 78.1857082323621
62.988281 78.84012122304948
64.453125 79.16711563760863
67.382813 79.80737453982346
68.847656 80.12555734355581
71.777344 80.82247405184138
74.707031 81.44517022478352
77.636719 81.93510173607302
79.101563 82.22774914676212
82.03125 82.8761893114303
84.960938 83.39882761516706
87.890625 83.83444480255189
90.820313 84.39648358495407
95.214844 85.0477216599906
98.144531 85.39892970476434
101.07422 85.81040128870222
105.46875 86.2736131748008
108.39844 86.5214473024928
112.79297 86.92301033198703
117.1875 87.13373803608049
120.11719 87.22005228624526
124.51172 87.30665622463779
128.90625 87.33762167072953
133.30078 87.36058356194462
139.16016 87.32359360166186
143.55469 87.17622738350771
147.94922 87.03313134001071
153.80859 86.86908386434084
159.66797 86.74773077876367
165.52734 86.59858840566106
171.38672 86.53337354332923
177.24609 86.26286989940171
183.10547 85.97352443113861
188.96484 85.84767205139538
196.28906 85.89875802787583
203.61328 85.69931489580357
210.9375 85.40759373104363
218.26172 85.16889180753292
225.58594 85.07393399173286
232.91016 85.29136579204122
241.69922 84.95756714393792
250.48828 84.87995533278915
259.27734 84.85519178032962
268.06641 84.7902449658241
276.85547 84.37065741291912
287.10938 84.39606047791786
297.36328 84.67349237146631
307.61719 84.49506381345371
319.33594 84.48415905415658
329.58984 84.33743227873843
341.30859 84.79931867571936
353.02734 84.51357914481898
366.21094 84.48634787291016
379.39453 84.5779625857024
392.57813 84.79622155680407
405.76172 84.7808099068718
420.41016 84.36510165979692
435.05859 84.90968160626524
451.17188 84.49802597903764
465.82031 84.79409367848929
483.39844 84.65887146346081
499.51172 84.82014403150103
517.08984 85.101829296621
536.13281 85.3057355576578
555.17578 85.3655473546764
574.21875 85.41881257925903
594.72656 85.33730210588264
615.23438 85.27597449406251
637.20703 84.79391148514559
659.17969 84.85502010571042
682.61719 84.73134593660619
707.51953 84.63148945910221
732.42188 84.14922332764174
757.32422 84.2077363378198
785.15625 83.8921524548883
811.52344 83.11686112315863
840.82031 83.1535999086438
870.11719 82.27235692316889
900.87891 82.29625096774983
933.10547 83.36252046345966
965.33203 84.07659183401344
1000.4883 84.49141604281643
1035.6445 83.85419237395486
1072.2656 83.5586253337844
1108.8867 82.58825451359768
1148.4375 82.90807641403082
1189.4531 84.1210362157112
1230.4688 84.82796200738402
1274.4141 85.20262687983137
1319.8242 84.93317856883128
1366.6992 83.93474563007028
1413.5742 83.63128423479365
1463.3789 83.14594840284455
1516.1133 83.03413162875636
1568.8477 82.94828194735526
1624.5117 83.08413791743861
1681.6406 83.45967806621539
1741.6992 83.75070434153147
1803.2227 83.20516243437031
1866.2109 82.00332949889365
1932.1289 81.77208955940877
1999.5117 82.40128709934747
2069.8242 82.51063156337422
2143.0664 81.69731466488305
2219.2383 80.78382919933715
2296.875 81.39948987030884
2378.9063 81.38444550514565
2462.4023 80.91682445650945
2548.8281 80.83263412647072
2639.6484 80.91631010007508
2731.9336 81.04009512480913
2828.6133 82.010076917586
2928.2227 81.97835304417035
3030.7617 81.17714196903633
3137.6953 81.84791658280822
3249.0234 82.03011878372409
3363.2813 81.4237860590115
3481.9336 81.6602987474619
3604.9805 81.9452304502568
3732.4219 82.05887049696211
3864.2578 81.7364921055299
4000.4883 82.82656015588636
4141.1133 82.41833425124172
4287.5977 83.02110722955582
4438.4766 82.73514452176305
4595.2148 82.87601407553628
4756.3477 81.98928281311503
4924.8047 82.17307804548606
5097.6563 81.34958508332035
5277.832 81.05942912514976
5463.8672 81.07544751299277
5657.2266 80.58380795529453
5856.4453 79.72684438390466
6062.9883 80.48926201880188
6276.8555 80.54582775331306
6498.0469 81.04386608316857
6726.5625 80.93654555616992
6963.8672 79.87584876623912
7209.9609 80.14119618209135
7464.8438 79.29493033594633
7727.0508 78.99052472930354
7999.5117 79.46491251638899
8282.2266 79.93500741598116
8573.7305 79.97325925512162
8876.9531 79.7429411471915
9188.9648 79.02007642137731
9514.1602 78.51726630008389
9849.6094 78.6234750329135
10196.777 78.71440135110832
10555.664 78.7596358713927
10927.734 78.49368375877262
11312.988 77.69938097825123
11712.891 76.89934190574095
12125.977 76.4507208001189
12553.711 76.62174997479596
12996.094 76.54624390483487
13454.59 76.78218370220507
13929.199 76.56038164455646
14419.922 76.23565672812187
14928.223 76.3215681330668
15455.566 76.17667667099046
16000.488 75.64879004158745
16564.453 75.29852388882973
17148.926 75.010712799622
17752.441 75.18021669267004
18379.395 75.18494131783514
19026.855 75.17208807142576
19697.754 74.89367982388372
19999.512 74.93426689753102
