Freq "Listening Window"
22.4 44.698237140035346
23.0 45.59823714003538
23.6 46.498237140035386
24.0 47.375590491462205
25.0 48.242172943517616
25.8 49.04217294351763
26.5 49.764222727855
27.2 50.50850223719898
28.0 51.208502237199
29.0 51.886928577337144
30.0 52.50850223719901
30.7 53.1647408986308
31.5 53.84191844425281
32.5 54.41949901981265
33.5 54.797477538901276
34.5 55.208502237199
35.5 55.619499019812665
36.5 56.01949901981264
37.5 56.37534382580405
38.7 56.69747753890128
40.0 57.00875870216923
41.2 57.308758702169214
42.5 57.56371629234938
43.7 57.863716292349366
45.0 58.18616699553213
46.2 58.44191844425278
47.5 58.686166995532105
48.7 58.986166995532116
50.0 59.31949901981265
51.5 59.68616699553213
53.0 60.11949901981265
54.5 60.58616699553214
56.0 61.1082457570828
58.0 61.586166995532125
60.0 61.94140940097735
61.5 62.28616699553211
63.0 62.61949901981265
65.0 62.94140940097736
67.0 63.29696325958595
69.0 63.74140940097736
71.0 64.3302128416306
73.0 64.9302128416306
75.0 65.6302128416306
77.5 66.4302128416306
80.0 67.3302128416306
82.5 68.28590919293266
85.0 69.03021284163059
87.5 69.59722040685607
90.0 70.10824575708277
92.5 70.64191844425282
95.0 71.27584890730259
97.5 72.02051055127397
100.0 72.75460802585788
103.0 73.6225334436874
106.0 74.52253344368741
109.0 75.3005273828875
112.0 75.83374979326125
115.0 76.177364067142
118.0 76.35460802585787
122.0 76.4431851347813
125.0 76.64191844425281
128.0 77.0419184442528
132.0 77.68667081994354
136.0 78.38667081994355
140.0 78.96448182097096
145.0 79.52051055127397
150.0 79.83374979326126
155.0 80.02607217103926
160.0 80.3596253068023
165.0 80.81781218316614
170.0 81.41781218316615
175.0 81.97100509488186
180.0 82.39121593521166
185.0 82.61430568474753
190.0 82.7596253068023
195.0 82.7596253068023
200.0 82.71781218316615
206.0 82.68634090321625
212.0 82.5744661297917
218.0 82.53624221612891
224.0 82.49043738133315
230.0 82.34519749560475
236.0 82.07100509488187
240.0 81.75719361772634
250.0 81.49105368522646
258.0 81.3097250094789
265.0 81.19420226088594
272.0 80.84794949872143
280.0 80.19818329634852
290.0 79.43818605272617
300.0 78.6318358800139
307.0 77.9959236027144
315.0 77.67891512333532
325.0 77.56702000061775
335.0 77.53818605272618
345.0 77.63818605272617
355.0 78.11953043404576
365.0 78.8318358800139
375.0 79.7135790762767
387.0 80.44988450857495
400.0 81.01981363008551
412.0 81.44467354537471
425.0 81.80581135061364
437.0 82.30050895393244
450.0 82.76253866153569
462.0 82.9878251664019
475.0 82.99993888485149
487.0 82.92519917294597
500.0 82.63316464168146
515.0 82.38070132176203
530.0 82.28548845222483
545.0 82.50881623264728
560.0 82.78070132176204
580.0 83.12706468335573
600.0 83.39330679631831
615.0 83.54367738855805
630.0 83.54770571644805
650.0 83.40965790942298
670.0 83.3222781856669
690.0 83.23402312076236
710.0 82.95996637642729
730.0 82.68488091534788
750.0 82.27833338285936
775.0 81.91349341177614
800.0 81.62868442358348
825.0 81.70483552720545
850.0 81.84254815515756
875.0 81.86394773720056
900.0 82.11698525277176
925.0 82.35074793553902
950.0 82.5268124056129
975.0 82.89831848866426
1000.0 83.66311366076481
1030.0 84.46321173465005
1060.0 84.7694992847889
1090.0 84.47032835576472
1120.0 83.94172878056683
1150.0 83.30589970807272
1180.0 82.63248752101374
1220.0 81.71166955592683
1250.0 80.88097671181754
1280.0 80.67992715825415
1320.0 80.95142938516311
1360.0 81.38821926440838
1400.0 82.06547886587612
1450.0 82.75414660247519
1500.0 83.15619802024833
1550.0 83.9734887845547
1600.0 84.44643187623643
1650.0 84.99789267818683
1700.0 85.01864877987548
1750.0 85.11249460303638
1800.0 85.79682068730426
1850.0 85.65634387526914
1900.0 85.32464498879958
1950.0 85.49883408840337
2000.0 86.17928662370201
2060.0 86.81250133451535
2120.0 87.04075663643742
2180.0 85.76680380666676
2240.0 83.9588709767489
2300.0 83.05008983207364
2360.0 83.47051490160044
2400.0 84.72756861605885
2500.0 85.32969028674916
2580.0 83.24545155070173
2650.0 81.99525169407396
2720.0 82.14783471174012
2800.0 82.99608318951061
2900.0 83.08392585361095
3000.0 82.80536660570878
3070.0 81.78040529742482
3150.0 82.35751300477061
3250.0 82.37265469459888
3350.0 82.30235683973521
3450.0 81.8396977156011
3550.0 81.65533233518197
3650.0 81.11732526410636
3750.0 80.66061560711947
3870.0 80.7648630994581
4000.0 81.47547231267312
4120.0 81.33783866434169
4250.0 80.59246136832269
4370.0 79.41550374959708
4500.0 78.99827770544937
4620.0 80.59964162791888
4750.0 81.38782356200467
4870.0 81.12500879459354
5000.0 80.13816760534579
5150.0 80.57777331881083
5300.0 80.92376394280787
5450.0 80.667060051941
5600.0 81.38527323039544
5800.0 81.63766997605973
6000.0 82.16411928548658
6150.0 80.36176801846467
6300.0 79.2472570181364
6500.0 81.64713982198809
6700.0 79.8347418754832
6900.0 81.10357628843464
7100.0 83.24153150689997
7300.0 82.15210823641846
7500.0 84.08844099546822
7750.0 85.33277628114725
8000.0 84.38939066125421
8250.0 82.58742551743141
8500.0 82.3202560338111
8750.0 81.60499531702106
9000.0 80.62896406300486
9250.0 79.36809797081808
9500.0 78.6306697562995
9750.0 79.76804876864801
10000.0 80.21357749613979
10300.0 80.3350729527053
10600.0 79.92516404746314
10900.0 80.48688031055538
11200.0 81.25644547782137
11500.0 77.51173872645604
11800.0 78.24984498981182
12200.0 80.50354969806351
12500.0 83.12181171505975
12800.0 81.09514467900416
13200.0 82.26444304562304
13600.0 79.63341503680161
14000.0 75.17090404345464
14500.0 79.72587743933813
15000.0 77.80438451672678
15500.0 80.0222998358246
16000.0 78.67139579544695
16500.0 75.39551072219432
17000.0 73.49053918003675
17500.0 79.69815653119431
18000.0 80.73976709477576
18500.0 74.53630739948719
19000.0 71.75556344708302
19500.0 67.41788917572818
