Freq "Sound Power"
22.4 45.559396137183214
23.0 46.481746005160986
23.6 47.39937117223043
24.0 48.26775554860926
25.0 49.105264671574545
25.8 49.90522213498393
26.5 50.67914891588275
27.2 51.406646979635966
28.0 52.107515300958184
29.0 52.782048105995116
30.0 53.42292964471558
30.7 54.05772883022307
31.5 54.75885644722494
32.5 55.34688055684576
33.5 55.696502838778954
34.5 56.12912729640827
35.5 56.541551962383025
36.5 56.939253061475924
37.5 57.30503790538155
38.7 57.646384923832855
40.0 57.96169791058078
41.2 58.25763820587456
42.5 58.54862895392465
43.7 58.85452118153496
45.0 59.19514419676777
46.2 59.48386051478006
47.5 59.74505540437367
48.7 60.05453175243092
50.0 60.427186699474305
51.5 60.83240324223735
53.0 61.28204651688901
54.5 61.75940162159496
56.0 62.31372246948651
58.0 62.796175804602555
60.0 63.17709008227986
61.5 63.51869964595507
63.0 63.84923032917969
65.0 64.16522772844333
67.0 64.48983672257494
69.0 64.92965491026001
71.0 65.44552213986263
73.0 66.00164948151674
75.0 66.6545347479525
77.5 67.42827180556492
80.0 68.27156591528039
82.5 69.1663730454752
85.0 69.87729197708158
87.5 70.39413904708083
90.0 70.83920449572399
92.5 71.28764612041884
95.0 71.88848228162969
97.5 72.51376409759229
100.0 73.15021750687552
103.0 73.88098072873133
106.0 74.64201429111176
109.0 75.29715743736423
112.0 75.72769603885284
115.0 76.00324886265115
118.0 76.17131354710529
122.0 76.31111333458266
125.0 76.58301788634076
128.0 77.0610163502037
132.0 77.82982529750778
136.0 78.60291351580118
140.0 79.22787592333138
145.0 79.72817234434639
150.0 79.89380063641623
155.0 79.81816720313168
160.0 79.72340581505004
165.0 79.72423548026926
170.0 79.94464207992108
175.0 80.30810259121624
180.0 80.63856791004186
185.0 80.86316997483279
190.0 80.97679333080713
195.0 80.99341228991541
200.0 80.89545372977857
206.0 80.71112809889938
212.0 80.44787629082398
218.0 80.25655784943687
224.0 80.20787197638246
230.0 80.14708175778894
236.0 79.91180801586357
240.0 79.4810960154803
250.0 78.94534901003911
258.0 78.58046512968889
265.0 78.4425072976956
272.0 78.09461932395239
280.0 77.21004960510618
290.0 76.01176107550539
300.0 74.86947912890672
307.0 74.12430616125
315.0 73.96886216223348
325.0 73.94077843376637
335.0 73.75285989321785
345.0 73.80851535845842
355.0 74.32959048239105
365.0 74.9208739045505
375.0 75.4291621760584
387.0 75.9571131542928
400.0 76.4744337577662
412.0 76.75339225065512
425.0 76.74605694967386
437.0 76.78782887074591
450.0 77.1004530801845
462.0 77.63843590198336
475.0 78.04097574466061
487.0 78.13850102923767
500.0 77.69224376052668
515.0 76.9782687959123
530.0 76.78108548875852
545.0 77.13594023562122
560.0 77.24630070667939
580.0 77.31606943026011
600.0 77.61060851794801
615.0 77.64796079598345
630.0 77.66417320508164
650.0 77.50924129275273
670.0 77.45215043100292
690.0 77.48761914887285
710.0 77.3306128983797
730.0 77.04120494592608
750.0 76.78264154661368
775.0 76.53243057472845
800.0 76.27417288489202
825.0 76.6608850015953
850.0 76.76833005146325
875.0 76.69204035595376
900.0 76.77214792901073
925.0 76.66792192730665
950.0 76.58723834298901
975.0 76.868948463318
1000.0 77.80666409495535
1030.0 78.59230251814242
1060.0 79.0462594417703
1090.0 79.0552262089808
1120.0 78.34284231811021
1150.0 77.53271774731598
1180.0 76.91622333724023
1220.0 76.07670269184038
1250.0 74.97574688132386
1280.0 74.78452123889038
1320.0 74.82413135997966
1360.0 75.10979198729048
1400.0 75.5705599193595
1450.0 75.91920975919197
1500.0 75.9107643456354
1550.0 76.76809817880778
1600.0 77.03111830820221
1650.0 77.5729752161595
1700.0 77.46154100976365
1750.0 78.38580488631301
1800.0 79.65773230159232
1850.0 80.1130047680842
1900.0 80.43413524860046
1950.0 80.26691731784771
2000.0 80.58806612888452
2060.0 81.33975188673226
2120.0 81.79774586322215
2180.0 81.32565317568871
2240.0 80.71878501961368
2300.0 80.4774063319535
2360.0 79.98006819848193
2400.0 80.41843602682226
2500.0 80.60275348658784
2580.0 78.67344092922649
2650.0 77.77291883005286
2720.0 77.90411660983641
2800.0 78.36490584017763
2900.0 78.3643525901556
3000.0 78.40210163436761
3070.0 76.87589526652768
3150.0 76.38941126257328
3250.0 75.62405507270338
3350.0 75.41722440147389
3450.0 74.93336612624192
3550.0 74.7633305574842
3650.0 74.00032939216881
3750.0 73.11877455546157
3870.0 73.30493110689822
4000.0 74.12940213199076
4120.0 73.91720342646585
4250.0 72.61977081180294
4370.0 71.1339142018733
4500.0 71.41172204096239
4620.0 73.84531350079175
4750.0 75.01621990359119
4870.0 75.2966917485631
5000.0 73.94166856476903
5150.0 73.54134959510849
5300.0 73.31462721666786
5450.0 73.10722616819889
5600.0 73.1072657585391
5800.0 73.2168710481058
6000.0 74.04966762712375
6150.0 73.3296937138751
6300.0 72.15373077130705
6500.0 73.38542402245936
6700.0 71.99999551408597
6900.0 73.52228245856614
7100.0 75.63821010740655
7300.0 74.85701413392916
7500.0 77.23105640687675
7750.0 76.9485957130383
8000.0 75.57282828579632
8250.0 74.32983408696451
8500.0 74.31774670146355
8750.0 72.00053896190882
9000.0 71.47277416011461
9250.0 71.80147994913379
9500.0 71.14403452361206
9750.0 72.02741489945612
10000.0 72.39118610790196
10300.0 72.4136622188259
10600.0 71.17919541764594
10900.0 71.73543967014132
11200.0 72.51896857997185
11500.0 69.6218182244699
11800.0 73.48170793862354
12200.0 72.92729796469015
12500.0 73.88348559976035
12800.0 72.17088689322833
13200.0 71.430261184564
13600.0 69.07456444505713
14000.0 65.90240094768018
14500.0 71.28597072728977
15000.0 69.82413799742045
15500.0 72.02421896522443
16000.0 72.03836757185876
16500.0 67.96944085536227
17000.0 63.46262715738004
17500.0 69.49037632245098
18000.0 70.09291383038983
18500.0 64.27902124177938
19000.0 60.76450374076734
19500.0 61.87312487629906
