Freq "Listening Window"
22.4 -7.187767441099524
23.0 -4.2956916918411565
23.6 -0.8497464791666545
24.0 0.47558709476750494
25.0 1.3438299637142137
25.8 2.2879462080950788
26.5 3.27952413506803
27.2 4.4678593615729625
28.0 5.601259600792773
29.0 7.167506631368681
30.0 8.172884076243761
30.7 8.070812475343118
31.5 9.970315155131246
32.5 12.762124342339533
33.5 14.336637342046188
34.5 15.934637107929987
35.5 18.488369750270735
36.5 20.460833248664372
37.5 21.477069478848975
38.7 22.476527963352012
40.0 24.55547066619677
41.2 27.18224975137089
42.5 30.423408622699085
43.7 32.175529081944646
45.0 31.72273625178657
46.2 31.73545799428122
47.5 33.15995562732026
48.7 37.35457403672207
50.0 40.069054165259715
51.5 42.376409350066
53.0 44.029128502128046
54.5 45.92179046307963
56.0 48.72583847035945
58.0 49.42233020444063
60.0 51.1559495684039
61.5 53.670045281631715
63.0 55.71829263838235
65.0 57.850348437282776
67.0 59.02960595544019
69.0 60.737282920664654
71.0 62.598183815604585
73.0 64.22060615716639
75.0 65.89529580624882
77.5 67.51324347649869
80.0 69.11376547819589
82.5 70.62445814420117
85.0 72.12293110248063
87.5 73.51173585711585
90.0 74.82319152961712
92.5 75.97875330279
95.0 76.94498217571203
97.5 77.66743157327173
100.0 78.16743157327174
103.0 78.54524128393409
106.0 78.7568734667009
109.0 78.92423322006924
112.0 79.02344601362167
115.0 79.1681873776849
118.0 79.23460537419206
122.0 79.30151169819358
125.0 79.33460537419207
128.0 79.37898114000669
132.0 79.4015116981936
136.0 79.41273329638746
140.0 79.44648419610154
145.0 79.43508988019032
150.0 79.54648419610153
155.0 79.54720358089867
160.0 79.53728287288855
165.0 79.52612460995225
170.0 79.52612460995225
175.0 79.51638275575662
180.0 79.51638275575662
185.0 79.42782619350768
190.0 79.36171858260171
195.0 79.29749712363008
200.0 79.20872908634402
206.0 79.18834599102547
212.0 79.1657468491676
218.0 79.20872908634402
224.0 79.2996016151792
230.0 79.34089740279421
236.0 79.44945409189363
240.0 79.57213795325735
250.0 79.63780199331688
258.0 79.66249888282452
265.0 79.6394990086638
272.0 79.57135938312827
280.0 79.4730433389121
290.0 79.40872908634404
300.0 79.32536645785136
307.0 79.27757489761603
315.0 79.21186017308123
325.0 79.17679131012171
335.0 79.14301680265689
345.0 79.0894015772043
355.0 79.02412080413445
365.0 78.9352842099942
375.0 78.84721425343048
387.0 78.82008529397986
400.0 78.81125251992769
412.0 78.79275073346541
425.0 78.74027688223974
437.0 78.7327413120323
450.0 78.69588978559933
462.0 78.6994496534386
475.0 78.72951721378692
487.0 78.82346137263639
500.0 78.9642426960955
515.0 78.99615876626991
530.0 78.87921779902881
545.0 78.7507105645319
560.0 78.65548712135472
580.0 78.68378545586711
600.0 78.82878745714102
615.0 78.97167965045803
630.0 79.00052754455312
650.0 78.91680661783599
670.0 78.68738313457953
690.0 78.56484477382779
710.0 78.46528103213771
730.0 78.46507139185043
750.0 78.54012358055208
775.0 78.73794036470211
800.0 78.93670588526463
825.0 79.05256379460258
850.0 79.06138303031456
875.0 78.93575991060737
900.0 78.71874733285276
925.0 78.43668014902418
950.0 78.436827519803
975.0 78.67559331075212
1000.0 78.73871540291725
1030.0 78.77159365888771
1060.0 78.86384701534782
1090.0 78.75323099967854
1120.0 78.6434425593948
1150.0 78.49863335731357
1180.0 78.56563242577411
1220.0 78.70746021128691
1250.0 78.74688986490442
1280.0 78.68576775292397
1320.0 78.96141094747396
1360.0 79.23979741207002
1400.0 79.18665216483413
1450.0 79.31046104823196
1500.0 79.16285934447282
1550.0 79.12961579774127
1600.0 79.14062831618331
1650.0 79.04644627619604
1700.0 78.78936539152043
1750.0 78.73648324266478
1800.0 78.846242188272
1850.0 79.08307641264635
1900.0 79.27738923058543
1950.0 79.58838137970174
2000.0 79.57596593660939
2060.0 79.38549305168152
2120.0 79.48056516658933
2180.0 79.54163028571308
2240.0 79.57101542320736
2300.0 79.68443254854822
2360.0 79.65820161857374
2400.0 79.50670099328353
2500.0 79.62020454861543
2580.0 79.41986844812604
2650.0 79.04964424519278
2720.0 78.61775494736594
2800.0 78.08219448473396
2900.0 78.22362693953183
3000.0 78.13805725922371
3070.0 78.555781807098
3150.0 78.82279503854477
3250.0 79.14545340641787
3350.0 79.50472401623823
3450.0 79.62541379313284
3550.0 80.12019672313149
3650.0 80.04730322543081
3750.0 80.2729833092401
3870.0 80.10747880717362
4000.0 80.38064894369718
4120.0 80.55678843931237
4250.0 80.55793438445109
4370.0 80.2505918679067
4500.0 80.01694759296848
4620.0 79.55463104771489
4750.0 79.07559130380328
4870.0 78.63739690023316
5000.0 78.38711620600596
5150.0 78.46854700262558
5300.0 78.84793354511918
5450.0 79.09276025605743
5600.0 79.32666678498997
5800.0 79.23190205033215
6000.0 78.43959186981805
6150.0 78.63131048866846
6300.0 78.32362001112314
6500.0 77.99504583477878
6700.0 77.91624364126402
6900.0 78.86577378140245
7100.0 79.08862559703908
7300.0 79.11745396615602
7500.0 79.14712580540039
7750.0 79.10763490751854
8000.0 79.67683966845637
8250.0 80.07220896079484
8500.0 80.1458389733196
8750.0 79.80171382058826
9000.0 79.38250791134467
9250.0 78.33695656641738
9500.0 78.07808301269192
9750.0 78.08334549103982
10000.0 78.54917850227785
10300.0 79.40625526690783
10600.0 79.6634211733652
10900.0 79.0567670014643
11200.0 77.83784390106003
11500.0 77.46940178863159
11800.0 77.76610540718161
12200.0 77.9586484490353
12500.0 78.12056083262665
12800.0 77.54147078242032
13200.0 76.4892240972604
13600.0 76.5793853024352
14000.0 76.86862521494649
14500.0 78.25973263253111
15000.0 78.97158997491567
15500.0 78.65633531971017
16000.0 77.71942295699033
16500.0 76.98499208407101
17000.0 77.15838027720407
17500.0 77.79757289790253
18000.0 78.77184556636267
18500.0 79.00965297882452
19000.0 77.84596835679345
19500.0 76.17567510475222
