Freq,Floor Bounce,Ceiling Bounce,Front Wall Bounce,Side Wall Bounce,Rear Wall Bounce,Total Early Reflection
20.5078,53.484280658014754,52.3611991797887,53.06272014400035,52.91362041765622,52.48118719307523,52.879729826565224
21.9727,56.29111358050126,55.29993531673627,55.911462250826176,55.80939279082911,55.51219483592742,55.778233930037786
23.4375,57.725972299974856,56.68726387738364,57.33162245054508,57.20964498602247,56.876475224051475,57.181369571736
24.9023,59.12927625275414,58.121666089565466,58.75013164249687,58.62076143433514,58.271066637925585,58.59334058589822
26.3672,60.70149751966032,59.65842613396539,60.30721779448767,60.181235672388325,59.83482367674294,60.15214053403254
27.832,62.08104636072672,61.03351848716723,61.684490534910154,61.56191298945468,61.23130513504425,61.53380340016436
29.2969,63.31709632828385,62.268925651458304,62.92560608339396,62.78923424841953,62.41874955724249,62.76000533093891
30.7617,64.64446414407861,63.5965913882921,64.24992524224515,64.12096355838563,63.776443169325304,64.09329418833437
32.2266,65.72774794729725,64.68720224575486,65.33609902224848,65.20906185855229,64.87973937746862,65.18317958089496
33.6914,66.81119589309402,65.76198280656973,66.41615004821575,66.28844366536109,65.9636916174562,66.26365455191392
35.1562,67.78483327453957,66.73298628490613,67.3887183881016,67.26059407597451,66.93825682298781,67.23647541772492
36.6211,68.719206332658,67.63078715086438,68.31205849092962,68.1764851805712,67.83298281037976,68.1509555708718
38.0859,69.73910580512309,68.65999165864247,69.33713550941255,69.1973191945631,68.84833343236816,69.17292547585585
39.5508,70.55977823233866,69.49097972330298,70.16232696563202,70.01982767402004,69.6713561731999,69.997176711629
41.0156,71.43875744628939,70.38062552555972,71.04560701682554,70.90463432325146,70.56052311589838,70.88201173270099
42.4805,72.21615671911067,71.15559223462118,71.82150916988813,71.67555773782978,71.33268532771415,71.65639269045091
43.9453,72.94435931125538,71.85777595485888,72.54338413303243,72.38607280971785,72.0171510381453,72.36699865844935
45.4102,73.69290771386015,72.5941222854508,73.28455198672187,73.13442772417395,72.78881086472028,73.11608071500197
46.875,74.41300795839773,73.31144891227775,74.0142944914424,73.83527136787619,73.41563391343864,73.81667655869559
48.3398,75.05724890901524,73.96210861138235,74.65947569904019,74.48808626766204,74.09479183864242,74.4703645830411
51.2695,76.2948110409573,75.19140967417798,75.8954656413231,75.71899556299304,75.3061230365554,75.69999070205242
52.7344,76.8268326408484,75.73524804006857,76.42725835230122,76.26296899237241,75.89465691521312,76.24683826429408
54.1992,77.30850938687725,76.22916315502086,76.90966997020995,76.75444893349137,76.43919777518626,76.74446562496036
55.6641,77.84912310894208,76.77563080120227,77.46049468049962,77.28386090255803,76.91126627257951,77.27330695933966
58.5938,78.80724561563056,77.71175102708155,78.4143175857168,78.22390208077486,77.8213584617191,78.2141772258142
60.0586,79.19899034376223,78.0819289461533,78.80828933044457,78.59053780719904,78.10829303612144,78.57853111838969
62.9883,79.85525382593319,78.7696108980525,79.45361315659602,79.30192595941824,79.00038973077652,79.29235522312369
64.4531,80.28258089900376,79.17872648975545,79.87992787591112,79.70683040107257,79.38109671641342,79.70306394766958
67.3828,80.86519384596963,79.73443774148349,80.46426623142447,80.25183644604947,79.83086873873681,80.24933939727556
68.8477,81.10374552070445,79.96279960913559,80.70189139830035,80.47904345644649,80.03601890862427,80.47756547748047
71.7773,81.50627173553033,80.36012204763627,81.10411414899086,80.87921497218461,80.43626139138419,80.87822005333176
74.707,81.95828521159106,80.82758648281398,81.56499355138327,81.33433376101293,80.87630881570571,81.33331252399022
77.6367,82.36620689042685,81.24349324940424,81.97567289878478,81.7462353313932,81.28547142430084,81.74425782448226
79.1016,82.524832235197,81.39992321011594,82.13085111046887,81.9078647665878,81.46498615621171,81.90613331767081
82.0312,82.73608708860512,81.59205455151229,82.32808171695149,82.12084276448327,81.75046097398818,82.12490650938201
84.9609,83.04540663913964,81.92432310874855,82.63143943088872,82.461667309443,82.14104209502224,82.45834902342686
87.8906,83.34490562514374,82.15763616507796,82.89558468480712,82.75894117606491,82.76158781760408,82.80019717782402
90.8203,83.7861001381942,82.61209216209957,83.40592245494899,83.09579310679823,82.51405262900425,83.10926563937798
95.2148,83.98964438805471,82.80123965260833,83.5760794535021,83.32509533201407,82.9340403469976,83.3468421841767
98.1445,84.21557329276445,83.02220937603356,83.79160273772096,83.54282594900481,83.18349798076333,83.57236627193028
101.074,84.31477737868258,83.14249140683718,83.90294956909216,83.66028063008982,83.39823131561168,83.70278221543222
105.469,84.68953601790682,83.45720645431685,84.2727899900688,83.98989976124567,83.65285209695803,84.03483244885963
108.398,84.94666720675036,83.71282835412133,84.53641489699199,84.2265382429219,83.83939307345737,84.27617202490937
112.793,85.1982495804594,83.95749146177432,84.79215154390214,84.46375002091567,84.06101563149484,84.51917721889586
117.188,85.42207792360564,84.13321596166811,85.00860638247124,84.64000950738333,84.15465485772252,84.70039620836336
120.117,85.58732450160542,84.221943331719,85.15396573070053,84.7696102920746,84.21841413465755,84.82316795920619
124.512,85.83355923731041,84.51000884248167,85.40476710916985,85.05025288468929,84.51529666015894,85.09333118133712
128.906,85.89788416619147,84.563260184283,85.46575740375194,85.1016596476767,84.64650258127914,85.16424652804096
133.301,85.99789992159607,84.6467379818931,85.56447822664505,85.18208352795627,84.66114722954252,85.24219308426383
139.16,86.0445974285354,84.61528682169453,85.59199756401078,85.18142996415975,84.74507343415375,85.26846736528425
143.555,86.17935393391383,84.75944568255282,85.74413557195713,85.28243900197998,84.73079447236536,85.37594610049916
147.949,86.2336821199943,84.77471250827278,85.78410769721756,85.30907535138246,84.72473233948448,85.4045885252566
153.809,86.20162989157261,84.70500029815146,85.74424582202212,85.26665310777426,84.63590516316947,85.3526278765611
159.668,86.30456063613575,84.7190268083177,85.81667946167211,85.32978641190793,84.83818749815443,85.44300077988082
165.527,86.39719564642253,84.88095211125648,85.93433436486015,85.44312420389963,84.90715544742301,85.55283208411349
171.387,86.36689677241277,84.69553095094538,85.85956154480597,85.33736452837452,84.90447357341594,85.47670872719762
177.246,86.25827928684764,84.68445708811322,85.82078918446392,85.2450755573779,84.72732716705376,85.39114023895706
183.105,86.14711008775856,84.49120943684414,85.68334774222512,85.06852748773306,84.57411827653745,85.24045896115776
188.965,86.18051580073343,84.47468101122409,85.73356561868516,85.03930597882933,84.34579356737865,85.21329159465175
196.289,86.20804879872297,84.58857913618125,85.7802283988586,85.08372095723189,84.36038928055628,85.26095203850895
203.613,86.06867168529858,84.33114854358338,85.61669180490077,84.86989890784922,84.16077546334454,85.07201555337524
210.938,86.0880575756355,84.22708743227365,85.62565827896739,84.8144457560087,83.9118783506823,85.01143667255012
218.262,85.96349753409237,84.23151972999088,85.51995301631962,84.7519720737027,83.98227829466614,84.9554563636833
225.586,85.77972150252585,83.95683245075928,85.31050932692041,84.48736115682193,83.8596859104438,84.74510489279696
232.91,85.78791053588779,83.84528951759184,85.30984511173843,84.38761844912683,83.46744941735896,84.64782417999459
241.699,85.68672217391173,83.65688371775603,85.17948095963148,84.23664461237682,83.24404138383471,84.49753889427598
250.488,85.75893416145803,83.41272621978291,85.16690488394708,84.15925588321453,83.1385724105714,84.44423581775042
259.277,85.82734302809347,83.71734282727978,85.34015811856402,84.36689706828935,83.4770486753275,84.64181534774364
268.066,85.40264657844905,83.20941476318657,84.87478712204744,83.82261483121049,83.17241417694031,84.19067866376416
276.855,85.19512645046596,82.87887633476991,84.70081575792042,83.62039643863243,82.8096333003748,83.94839876177996
287.109,85.00671466689597,82.40119393664038,84.48051415365371,83.23582697512394,82.96060482889828,83.72730263447538
297.363,85.18983432108959,82.39471854244547,84.77419227196408,83.17137383772875,82.66967919687438,83.78979690939495
307.617,85.57802964767973,82.80274502677551,85.203478622589,83.57226646005223,82.4647348130298,84.1071895728843
319.336,85.34669940732022,82.62193761665019,85.04629366134442,83.32288098985231,82.18878211747388,83.89333303923605
329.59,85.51888865615534,82.87324961407214,85.26002601309257,83.56650393810621,82.07622378835225,84.06372874574366
341.309,85.42889712181356,82.84551176365535,85.16454221327739,83.31947342105856,81.9901990195764,83.9547762210015
353.027,85.59608799968635,82.60699597893439,85.28163094004209,83.273340381452,81.3658936565833,83.91596651339006
366.211,85.85705230582344,82.70038391758295,85.60056247411883,83.61687085725562,81.18720818615671,84.1362945104061
379.395,86.25411910367356,83.24552111093747,86.07975916323723,84.0927731907258,81.50894665570827,84.58447778258622
392.578,85.97374055638572,83.21802636579051,85.85506562412874,83.95898427701003,81.22477658680783,84.38369537097117
405.762,85.66653969419569,82.91640790175175,85.56285779881027,83.61606977492748,81.1426493255065,84.0973863830583
420.41,86.51609247124544,83.43182433482899,86.44707834959554,84.35586606823101,80.84543575256346,84.78315223788952
435.059,86.69723333821915,84.15504092007893,86.79495827140722,84.7724951490316,81.42718831685654,85.17149401416319
451.172,86.97993450613879,84.43886343917683,87.06113358017636,85.12939118110954,81.18222833317863,85.42114547289373
465.82,87.16450712436979,84.58324814830091,87.34380239394298,85.42876309194666,81.31731060863315,85.64614077070739
483.398,86.82224828474361,84.59640752602675,87.0734582988472,85.3093999009184,81.01341831047407,85.42788116152057
499.512,87.10141248181431,84.66436485060997,87.26052683552277,85.37477903330435,81.06832236370602,85.5883526175701
517.09,87.09289484656489,84.66044014555702,87.26604993453245,85.3660809487519,81.13594537811282,85.5900908501378
536.133,86.17910469930388,83.77438269847441,86.51320908988225,84.80841467700613,80.12913243756648,84.79138677701691
555.176,86.22618010728912,83.43551005215664,86.502195967493,84.72268922748704,79.34996938435333,84.68240167870547
574.219,86.64703834972765,83.34177595827249,86.91378094189497,85.2484341822278,79.5389651795069,85.03528385007657
594.727,85.91922999760237,83.29092939408886,86.42770511448829,84.93304723337262,79.62180742236255,84.61342848329092
615.234,85.55140541658255,82.91696697119605,86.04583271764761,84.54985448699192,79.07796227753342,84.22616270570435
637.207,85.93503296489554,82.38881243459709,86.27932796430571,84.83120047070769,79.23201992356816,84.40294165185175
659.18,85.54626640808593,82.1903336678374,86.20854110755427,84.76904544057733,78.72849606576366,84.20405538729555
682.617,84.77580311336206,81.46692971112563,85.57110308569351,84.35125861653138,78.96958740222725,83.6263223165502
707.52,85.0593332031594,80.81529548638306,85.52411576616758,83.83103190571072,78.47605008112659,83.46363206313261
732.422,84.54184201838083,80.70632171635083,85.3788073201333,83.9033425056133,77.94618425667522,83.24387514976242
757.324,83.93886690106872,80.42673689545566,84.718413228096,83.4068975895179,78.15338600603363,82.73633260351666
785.156,83.79987367672415,78.91518616508544,84.95101868300709,82.85653089414751,77.34556702113358,82.44408940909565
811.523,83.55784726085162,78.94166930901002,84.46909778961952,82.24251665382981,76.72305229750847,82.0395757845021
840.82,82.99033565338057,78.03894475855836,84.37278918446235,81.87427848644039,76.7357119753018,81.6883688265203
870.117,82.57702562303852,77.88912154426902,84.56168669362474,81.87867163724027,77.00981214653136,81.65980063881223
900.879,83.07669197246183,76.50618752572592,84.71684519050224,81.37857948688796,76.18618133354408,81.60165057836609
933.105,82.5073401982852,75.1423010996432,84.33309383563336,81.30782588170338,75.19604735200296,81.14103489774483
965.332,82.5647912068222,73.90305307678683,84.64750538954524,80.9794119527554,75.56871086246242,81.19245745813132
1000.49,82.88056517759703,75.52597582969777,85.1781277595605,81.37446734226542,76.1584603636193,81.6896574090433
1035.64,82.50120174460599,76.62280541314857,84.7489456679045,80.85164276791332,75.39762172957717,81.32651363195872
1072.27,81.86579536856583,75.10435398952511,84.56980571885785,80.16558952251334,74.74030358270076,80.8360088745701
1108.89,81.3976389740079,77.28780876582273,84.24827339674317,80.03159617093752,73.7827833020809,80.66032362332787
1148.44,80.69491408698202,76.90271101625795,83.98021482926377,79.5825124088325,73.37341789055752,80.24474436853731
1189.45,79.93605018279165,78.21727571360917,85.05423802702865,80.83113986004376,73.63430429978317,80.99856487818793
1230.47,79.93467101333707,77.45437746953604,85.00026891573307,80.71320980826046,73.59618589025182,80.87168620984606
1274.41,80.0979809675143,78.03228318243454,84.80873352754979,80.64882131197014,73.22622924870663,80.83204528559327
1319.82,80.44894393114254,77.17593892466816,84.34920668860732,80.01604707605453,72.0841540408515,80.42836028159873
1366.7,79.53456780456528,78.52284222091404,84.3694402907466,80.01622478384421,72.2094973931445,80.42578145156754
1413.57,79.94795106084094,77.6048960208308,83.9294372695308,79.35580568954308,71.57638682529958,80.03588513972382
1463.38,80.09914187002542,76.0551300549391,84.54008695060813,79.91327949070546,72.36957955653163,80.35317558474722
1516.11,80.2075968766293,76.94253993445493,84.94545208743517,80.23455027188851,72.47256758298319,80.71776702778355
1568.85,80.15708641921204,77.59174954981164,85.15075052009982,80.40521904555787,72.19627549335394,80.89817972471091
1624.51,81.13964357647666,76.22997942949094,84.49757766525701,79.24215784941147,71.22543001437545,80.42111304103366
1681.64,81.1178957992767,77.90651787497355,83.6995022749028,78.39323819101287,71.09920627534918,80.06432346350783
1741.7,81.24160957882982,76.89423716042633,83.79801352997953,79.04763271508254,69.27890641418954,80.09076998813002
1803.22,80.70545526448916,77.8314490913816,84.14962503676696,79.26672300140812,70.92000463590205,80.29504254180357
1866.21,80.79343725732808,78.27285549710562,83.93488324688803,78.76444005340326,70.46236952239809,80.17905227999586
1932.13,80.98594088060032,78.61680771661791,83.73326910673556,78.12979663375705,69.06894796781009,80.06479780302575
1999.51,80.94518828661036,78.61983678843306,83.73339424886035,78.02858784140638,68.7275706173368,80.03713822049292
2069.82,81.02488814375742,78.69358418236251,84.12613343822873,78.56554950684942,68.89056171319034,80.32494214918877
2143.07,81.35761880926489,78.33107297909946,83.60730272535407,78.105950717654,68.3545788100605,80.04978126529333
2219.24,81.51304027026532,78.26097771851896,82.96672583859291,77.40088574843331,67.68232544896122,79.70825783978663
2296.88,81.32605808652114,78.40023430806598,83.4919693829914,77.90111811833309,67.92458692651954,79.9671284193278
2378.91,81.41995197856454,78.4482683409072,83.8196601135463,78.20007463113707,68.07556650363507,80.18777727171836
2462.4,81.69829314312153,78.49332328305114,82.78221055346621,77.04696479561179,67.32602355571812,79.67895971279977
2548.83,81.46586945827215,78.15286909563441,82.87241220835512,76.83482984354791,66.75895545606683,79.5640252039209
2639.65,81.24260436505647,79.31159983762028,83.87737164546863,77.73888888945672,67.36540840632259,80.23275298935667
2731.93,81.8872388652097,79.30090079214595,83.3250663405697,77.59287807780818,67.20331721433682,80.14767633526432
2828.61,81.93087097047682,79.16978787365555,83.17572525195651,77.33566162973526,66.93318058894015,80.04693314596734
2928.22,81.8195881044898,79.23678013895879,83.74418078510136,78.03990557059984,67.27305105101075,80.34836305620865
3030.76,81.8932322619619,78.40570305992351,83.76342064597215,77.99193139544819,67.06479258840308,80.25184274496793
3137.7,81.93016959065348,78.06668711842725,83.26084110628948,77.50001249266923,65.99162738273175,79.93099463643459
3249.02,81.55568911416516,78.01481628363206,83.55481415350681,77.44214015609009,65.67929934856531,79.93252118605616
3363.28,81.89413923025707,77.88597281612506,83.9211581632565,77.42151708516474,65.20040273770162,80.18152556881152
3481.93,81.95857936910961,77.93392113288013,83.72998767029394,77.02620684776358,64.8884977111691,80.07474019761099
3604.98,81.55231918973051,77.85544350990207,83.40498686999031,76.54772807834455,64.71186404711398,79.74184236175624
3732.42,81.17508344045496,77.76179054857273,83.63009039142156,76.42857408884593,65.0366705275295,79.71839708947859
3864.26,81.10076097795465,77.50153072537927,83.2543022331016,76.246683087628,65.39968790741406,79.46712014235536
4000.49,81.30700364734888,77.54387031386281,83.24163312800884,76.71603227561965,65.2248128393505,79.57260453588758
4141.11,81.37622679253319,77.65339393146297,83.32229023077608,77.13393203347864,65.1940988260997,79.68886487887882
4287.6,81.14647707808265,77.31967023225643,83.13066266038975,76.91499755262565,64.5822659514495,79.46253737671455
4438.48,81.44860584443215,77.59847236175224,83.25808612237226,77.12743383894538,65.16208843908325,79.67315994870283
4595.21,81.49126209764651,77.60310006178078,83.68148219176253,77.55940356185369,64.02504086587747,79.92567117994966
4756.35,81.67134902443921,77.66621664562395,83.45940327745866,77.05799990327911,64.03155931257682,79.8270374596925
4924.8,81.78854439117784,77.64789789022323,83.7318261221555,77.57066792007187,63.6595358687908,80.0411992087586
5097.66,81.7162003993021,77.98703528997429,83.41380521297381,76.76807527816162,62.53607069641383,79.8240652815028
5277.83,81.89111651261584,78.34440841368215,83.66869027294545,77.24642265140963,62.97565650789531,80.09141519967505
5463.87,82.13678733096393,78.1827084359108,83.75242857755542,77.08588698365047,61.935926861811666,80.16464098829681
5657.23,81.79755955902685,77.71961009580829,83.30607815153508,76.71372209909704,62.467502799014554,79.76078534071475
5856.45,81.68285264237092,77.287584445854,83.13631356277047,76.44801834069678,61.77196249308783,79.56559059764652
6062.99,81.54393200111097,77.19470839533044,83.08532490546408,76.36515608925487,61.650498438822595,79.47783447645313
6276.86,81.40756259476025,76.94289768140986,82.7102664411054,75.97733299979818,61.25223543820714,79.19423479118052
6498.05,81.09029343650501,76.69953590699649,82.30039981389162,75.64215996726551,61.15967800770677,78.84357936072219
6726.56,81.55593973586322,76.5742307337904,82.52354851937108,75.71372316704091,60.69514584318286,79.09302268695721
6963.87,81.37046057460589,76.25846604219932,82.37856695428371,75.28385210767922,59.88323991441588,78.88753699062188
7209.96,81.3121134819614,76.08886128960854,82.33036824559632,75.21619554161047,59.945636285432855,78.82122691504115
7464.84,81.39520322851659,76.16067725904607,82.49744366839472,75.40446369706304,60.05234695572527,78.95026755652493
7727.05,81.2316299747229,76.4067064787033,82.48641602888989,75.21414274695701,59.45446368096334,78.89731847741878
7999.51,81.11012953751347,76.4454171727268,82.40544364066949,75.3422958834777,59.49285202128276,78.83479854236164
8282.23,81.17308615338942,76.52198555985728,82.66610580940424,75.59577005790227,59.4596889238381,79.00719787174201
8573.73,81.45961835405039,76.50569917255551,82.95847011439733,75.72647700268965,59.296484396882946,79.24828997994518
8876.95,81.70133065782308,76.60418064105734,82.99402502352129,75.86468729334992,60.01141318265074,79.37069337987884
9188.96,81.8167935284744,76.77079529904029,82.87459845219483,76.05777633743836,59.63124077653883,79.39114291042522
9514.16,81.63008004130339,77.15952251770496,82.68329139924276,75.98997007058918,59.54925441538201,79.28043829391584
