Freq "Floor Bounce"
20.5078 53.217148839832916
21.9727 56.02398176231942
23.4375 57.45884048179302
24.9023 58.8621444345723
26.3672 60.434365701478484
27.832 61.81391454254488
29.2969 63.049964510102015
30.7617 64.37733232589677
32.2266 65.46061612911541
33.6914 66.54406407491219
35.1562 67.51770145635773
36.6211 68.45207451447617
38.0859 69.47197398694125
39.5508 70.29264641415682
41.0156 71.17162562810755
42.4805 71.94902490092883
43.9453 72.67722749307354
45.4102 73.42577589567831
46.875 74.14587614021589
48.3398 74.7901170908334
51.2695 76.02767922277546
52.7344 76.55970082266656
54.1992 77.04137756869541
55.6641 77.58199129076024
58.5938 78.54011379744873
60.0586 78.9318585255804
62.9883 79.58812200775135
64.4531 80.01544908082192
67.3828 80.59806202778779
68.8477 80.83661370252261
71.7773 81.2391399173485
74.707 81.69115339340922
77.6367 82.09907507224501
79.1016 82.25770041701516
82.0312 82.46895527042328
84.9609 82.7782748209578
87.8906 83.0777738069619
90.8203 83.51896832001236
95.2148 83.72251256987288
98.1445 83.94844147458261
101.074 84.04764556050074
105.469 84.42240419972498
108.398 84.67953538856852
112.793 84.93111776227757
117.188 85.1549461054238
120.117 85.32019268342358
124.512 85.56642741912857
128.906 85.63075234800964
133.301 85.73076810341423
139.16 85.77746561035356
143.555 85.91222211573199
147.949 85.96655030181246
153.809 85.93449807339077
159.668 86.03742881795391
165.527 86.1300638282407
171.387 86.09976495423093
177.246 85.9911474686658
183.105 85.87997826957672
188.965 85.9133839825516
196.289 85.94091698054113
203.613 85.80153986711674
210.938 85.82092575745367
218.262 85.69636571591053
225.586 85.51258968434401
232.91 85.52077871770595
241.699 85.4195903557299
250.488 85.49180234327619
259.277 85.56021120991163
268.066 85.13551476026721
276.855 84.92799463228413
287.109 84.73958284871414
297.363 84.92270250290775
307.617 85.31089782949789
319.336 85.07956758913838
329.59 85.2517568379735
341.309 85.16176530363173
353.027 85.32895618150451
366.211 85.5899204876416
379.395 85.98698728549172
392.578 85.70660873820388
405.762 85.39940787601385
420.41 86.2489606530636
435.059 86.43010152003731
451.172 86.71280268795695
465.82 86.89737530618795
483.398 86.55511646656177
499.512 86.83428066363247
517.09 86.82576302838305
536.133 85.91197288112204
555.176 85.95904828910729
574.219 86.37990653154581
594.727 85.65209817942053
615.234 85.28427359840072
637.207 85.6679011467137
659.18 85.27913458990409
682.617 84.50867129518022
707.52 84.79220138497756
732.422 84.274710200199
757.324 83.67173508288688
785.156 83.53274185854231
811.523 83.29071544266978
840.82 82.72320383519873
870.117 82.30989380485669
900.879 82.80956015427999
933.105 82.24020838010337
965.332 82.29765938864037
1000.49 82.6134333594152
1035.64 82.23406992642416
1072.27 81.59866355038399
1108.89 81.13050715582607
1148.44 80.42778226880019
1189.45 79.66891836460981
1230.47 79.66753919515523
1274.41 79.83084914933247
1319.82 80.1818121129607
1366.7 79.26743598638345
1413.57 79.6808192426591
1463.38 79.83201005184358
1516.11 79.94046505844746
1568.85 79.8899546010302
1624.51 80.87251175829482
1681.64 80.85076398109486
1741.7 80.97447776064799
1803.22 80.43832344630732
1866.21 80.52630543914624
1932.13 80.71880906241849
1999.51 80.67805646842852
2069.82 80.75775632557558
2143.07 81.09048699108305
2219.24 81.24590845208348
2296.88 81.0589262683393
2378.91 81.1528201603827
2462.4 81.4311613249397
2548.83 81.19873764009031
2639.65 80.97547254687463
2731.93 81.62010704702786
2828.61 81.66373915229498
2928.22 81.55245628630796
3030.76 81.62610044378006
3137.7 81.66303777247164
3249.02 81.28855729598332
3363.28 81.62700741207523
3481.93 81.69144755092778
3604.98 81.28518737154867
3732.42 80.90795162227312
3864.26 80.83362915977281
4000.49 81.03987182916704
4141.11 81.10909497435135
4287.6 80.87934525990082
4438.48 81.18147402625031
4595.21 81.22413027946467
4756.35 81.40421720625737
4924.8 81.521412572996
5097.66 81.44906858112026
5277.83 81.623984694434
5463.87 81.86965551278209
5657.23 81.53042774084501
5856.45 81.41572082418908
6062.99 81.27680018292914
6276.86 81.14043077657841
6498.05 80.82316161832317
6726.56 81.28880791768138
6963.87 81.10332875642405
7209.96 81.04498166377957
7464.84 81.12807141033475
7727.05 80.96449815654107
7999.51 80.84299771933163
8282.23 80.90595433520758
8573.73 81.19248653586855
8876.95 81.43419883964124
9188.96 81.54966171029257
9514.16 81.36294822312155
9849.61 81.08393325594815
10196.8 80.5870851038837
10555.7 80.3538574389182
10927.7 80.54623752439102
11313.0 80.32518360156263
11712.9 79.87661990229564
12126.0 79.77426339005531
12553.7 79.83997901717854
12996.1 79.98114454118401
13454.6 79.86420491782415
13929.2 79.71380029830804
14419.9 79.85323515222393
14928.2 79.6768961438329
15455.6 79.4407145180249
16000.5 79.47783587418844
16564.5 79.4613865238103
17148.9 79.40616064843815
17752.4 79.3517290958828
18379.4 79.40856428279481
19026.9 79.32703283081439
19697.8 79.30479888818559
19999.5 79.22912690720865
