Freq,On Axis,Listening Window,Sound Power,Early Reflections,Early Reflections DI,Sound Power DI,DI offset
22.4,57.8,57.631389912693194,53.88912032167595,55.898357311390484,61.73303260130271,63.74226959101725,60
23.0,59.60000000000001,59.34305920444645,55.63661638055139,57.636979580355344,61.7060796240911,63.70644282389506,60
23.6,61.500000000000014,61.24305920444645,57.51588981341352,59.526158374880666,61.71690082956579,63.72716939103293,60
24.0,64.00000000000001,63.809014224934074,60.10966269991262,62.09644452156566,61.712569703368416,63.699351525021456,60
25.0,65.2,65.03138991269317,61.31991873636865,63.30656503719847,61.724824875494704,63.71147117632452,60
25.8,66.3,66.04305920444644,62.344604881356545,64.3329292929936,61.71012991145284,63.69845432308989,60
26.5,67.3,67.04305920444644,63.35785551035413,65.34028409307366,61.70277511137277,63.68520369409231,60
27.2,68.39999999999999,68.14305920444646,64.48775670002046,66.45477928017054,61.68827992427592,63.655302504426004,60
28.0,69.7,69.44305920444644,65.78338383694962,67.75575948914029,61.68729971530615,63.65967536749682,60
29.0,70.09999999999998,69.89725297194086,66.2360230379091,68.19152929426743,61.70572367767343,63.66122993403175,60
30.0,70.89999999999999,70.69725297194087,67.05226612233945,68.99969369470723,61.69755927723364,63.64498684960142,60
30.7,71.59999999999998,71.39725297194086,67.74957749655898,69.69111013438742,61.70614283755344,63.647675475381874,60
31.5,73.3,73.04305920444646,69.4121250411062,71.35357007261031,61.689489131836154,63.63093416334027,60
32.5,74.7,74.47417353315727,70.8620966442504,72.79928902419299,61.67488450896428,63.61207688890687,60
33.5,75.8,75.54305920444646,71.93841517982183,73.86773907203856,61.675320132407904,63.60464402462463,60
34.5,77.09999999999998,76.84305920444645,73.25216503592885,75.16939964386926,61.67365956057719,63.59089416851759,60
35.5,78.59999999999998,78.37417353315728,74.79900726078058,76.71130016729033,61.66287336586694,63.57516627237669,60
36.5,80.39999999999999,80.16285172742657,76.58748039160885,78.50186509380872,61.66098663361785,63.57537133581772,60
37.5,82.3,82.06285172742658,78.50878919503985,80.412886243145,61.64996548428158,63.55406253238672,60
38.7,84.3,84.02074371294616,80.4834235303256,82.35590948644041,61.66483422650575,63.53732018262056,60
40.0,85.59999999999998,85.36285172742659,81.82734114419974,83.71231854124078,61.65053318618581,63.53551058322685,60
41.2,87.5,87.22074371294616,83.71112457957737,85.57250780194131,61.648235911004846,63.50961913336879,60
42.5,89.0,88.77417353315728,85.26640377714634,87.13367755021424,61.64049598294304,63.507769756010944,60
43.7,90.2,90.01725487435672,86.52927552824393,88.38082782698142,61.63642704737531,63.487979346112795,60
45.0,91.60000000000001,91.36285172742659,87.87087516267222,89.70941566876301,61.65343605866357,63.49197656475437,60
46.2,92.5,92.26285172742658,88.79050933178205,90.62582440231687,61.63702732510971,63.47234239564453,60
47.5,93.5,93.24063796503013,89.77746657005791,91.60543803810562,61.635199926924514,63.46317139497222,60
48.7,94.3,94.04063796503014,90.5940021446338,92.41935665755953,61.62128130747061,63.44663582039634,60
50.0,95.2,94.94063796503013,91.49655035155511,93.32095434970213,61.619683615328,63.44408761347502,60
51.5,96.0,95.79725297194088,92.35204790388504,94.1564963281332,61.64075664380768,63.44520506805584,60
53.0,96.90000000000002,96.67417353315727,93.24307186872966,95.04273080625826,61.63144272689901,63.431101664427615,60
54.5,97.9,97.64063796503015,94.22060384520108,96.01984840750382,61.62078955752634,63.42003411982907,60
56.0,98.9,98.64063796503014,95.24706338973806,97.03911661304322,61.60152135198692,63.39357457529208,60
58.0,99.9,99.71725487435673,96.30577091862969,98.09582511428097,61.621429760075756,63.411483955727036,60
60.0,101.0,100.81725487435672,97.42239358111196,99.20269468673654,61.614560187620185,63.39486129324476,60
61.5,102.1,101.82896215694925,98.4522093913086,100.23549517808881,61.593466978860434,63.376752765640646,60
63.0,103.09999999999998,102.84063796503014,99.48232013792027,101.24190316344765,61.598734801582495,63.35831782710987,60
65.0,104.10000000000001,103.89428176701229,100.52984374714198,102.28787219039924,61.606409576613046,63.364438019870306,60
67.0,105.0,104.7942817670123,101.43073236507321,103.18767473761221,61.60660702940008,63.36354940193908,60
69.0,105.89999999999999,105.71725487435673,102.35762506630942,104.11013659259059,61.607118281766134,63.3596298080473,60
71.0,106.7,106.51725487435674,103.16401818582989,104.91161258186118,61.60564229249556,63.35323668852685,60
73.0,107.5,107.22896215694925,103.89107325480497,105.63497871042638,61.59398344652287,63.337888902144286,60
75.0,108.2,107.92896215694925,104.57866123541356,106.31953207203404,61.60943008491522,63.35030092153569,60
77.5,108.7,108.4722285934395,105.11938156655155,106.86090366506932,61.61132492837018,63.35284702688794,60
80.0,109.2,108.94928032556398,105.58247416296386,107.32966352252835,61.619616803035626,63.36680616260011,60
82.5,109.49999999999999,109.24928032556396,105.89363269131373,107.63769849912072,61.61158182644324,63.35564763425023,60
85.0,109.6,109.41725487435671,106.02343615040154,107.77037451522497,61.64688035913174,63.39381872395518,60
87.5,109.6,109.41725487435671,106.02580199281935,107.77179741747929,61.64545745687742,63.39145288153736,60
90.0,109.6,109.34928032556395,105.98103883194814,107.73561485639597,61.613665469167984,63.36824149361581,60
92.5,109.49999999999999,109.24928032556396,105.89596231017269,107.65105848416212,61.59822184140184,63.35331801539127,60
95.0,109.40000000000002,109.19531834297536,105.80833231017962,107.56236471904083,61.632953623934526,63.38698603279573,60
97.5,109.3,109.09531834297535,105.70624849734423,107.46236471904083,61.63295362393451,63.38906984563111,60
100.0,109.2,109.01725487435674,105.61454320680663,107.3711837839543,61.646071090402444,63.40271166755011,60
103.0,109.2,108.9722285934395,105.57773874054674,107.32762236598626,61.64460622745324,63.39448985289276,60
106.0,109.2,108.9722285934395,105.56441116936388,107.32238019593305,61.649848397506446,63.40781742407562,60
109.0,109.2,109.01725487435674,105.59771614283102,107.36269354727185,61.65456132708489,63.41953873152572,60
112.0,109.3,109.04928032556397,105.61817909957932,107.40089354596833,61.64838677959564,63.43110122598465,60
115.0,109.2,109.01725487435674,105.57382453070872,107.34778023312012,61.66947464123662,63.44343034364802,60
118.0,109.10000000000001,108.93762776013772,105.47180657423789,107.25878092627754,61.67884683386018,63.46582118589983,60
122.0,109.0,108.76063752019827,105.29055360749355,107.08685168230198,61.67378583789629,63.47008391270472,60
125.0,108.8,108.59531834297535,105.1019728278519,106.89561862073118,61.69969972224416,63.49334551512345,60
128.0,108.6,108.39531834297536,104.88878984550334,106.69383189264686,61.7014864503285,63.50652849747202,60
132.0,108.39999999999999,108.14928032556396,104.61991806422999,106.44263640129552,61.70664392426845,63.52936226133397,60
136.0,108.09999999999998,107.86063752019827,104.34263946581008,106.16547506737687,61.69516245282139,63.51799805438819,60
140.0,107.8,107.61725487435673,104.05194143360369,105.87841631871974,61.73883855563699,63.565313440753044,60
145.0,107.6,107.36063752019827,103.79392354397731,105.63477221166993,61.72586530852834,63.56671397622095,60
150.0,107.4,107.18378881309228,103.60568624980705,105.46548947631427,61.718299336778,63.57810256328523,60
155.0,107.3,107.08378881309228,103.49876797230621,105.36520073044363,61.71858808264865,63.58502084078607,60
160.0,107.3,107.04037254002033,103.4031238688113,105.27662861121912,61.763743928801205,63.63724867120902,60
165.0,107.2,106.96063752019826,103.30739370409347,105.19622411590794,61.76441340429032,63.65324381610479,60
170.0,107.1,106.88378881309228,103.2186003702533,105.11562150964143,61.76816730345085,63.66518844283898,60
175.0,106.99999999999999,106.80578351092602,103.12286957410602,105.02425560367038,61.78152790725564,63.68291393682,60
180.0,106.99999999999999,106.72896215694925,103.01679450580215,104.9278750424915,61.80108711445776,63.7121676511471,60
185.0,106.90000000000002,106.62896215694924,102.92090218235386,104.84533046280934,61.7836316941399,63.708059974595386,60
190.0,106.8,106.54928032556397,102.80662459623733,104.74153375316496,61.80774657239901,63.74265572932664,60
195.0,106.7,106.42896215694925,102.65480239849508,104.61051700881491,61.818445148134344,63.774159758454175,60
200.0,106.60000000000001,106.30708482926708,102.51265249129233,104.46628724383734,61.84079758542974,63.794432337974754,60
206.0,106.5,106.22896215694927,102.40072733464432,104.37195103959155,61.857011117357715,63.82823482230495,60
212.0,106.4,106.14928032556396,102.31097924180962,104.29362401414598,61.85565631141799,63.838301083754345,60
218.0,106.4,106.1840515979562,102.3026399072589,104.30144403413838,61.882607563817814,63.881411690697306,60
224.0,106.5,106.24063796503015,102.36717449775357,104.36817340864197,61.87246455638818,63.87346346727658,60
230.0,106.60000000000001,106.34063796503014,102.43378009782502,104.4421272275999,61.89851073743024,63.90685786720512,60
236.0,106.7,106.41778246766357,102.46952181916944,104.51319638153791,61.90458608612566,63.94826064849413,60
240.0,106.7,106.42948833002332,102.44808301243806,104.48875196791381,61.940736362109504,63.981405317585256,60
250.0,106.7,106.42948833002332,102.44589347523709,104.50761757249509,61.921870757528225,63.98359485478623,60
258.0,106.7,106.46468789709039,102.43220634948963,104.50002385097939,61.964664046111,64.03248154760075,60
265.0,106.8,106.51856476708531,102.45340350685747,104.54502403094183,61.97354073614348,64.06516126022784,60
272.0,106.8,106.51856476708531,102.41429408888864,104.5303235539882,61.98824121309711,64.10427067819667,60
280.0,106.7,106.46468789709039,102.31199613804365,104.44276457972586,62.021923317364525,64.15269175904673,60
290.0,106.60000000000001,106.35385262189534,102.14525503181557,104.30504087712812,62.04881174476722,64.20859759007978,60
300.0,106.5,106.23054076386275,101.97801348196727,104.14953090713539,62.08100985672736,64.25252728189548,60
307.0,106.4,106.07785420940496,101.79743544932599,103.99283773964255,62.08501646976241,64.28041876007897,60
315.0,106.3,105.97785420940497,101.62534902693503,103.84786679905629,62.129987410348676,64.35250518246994,60
325.0,106.1,105.83559655611741,101.43643874634833,103.69736172443994,62.138234831677465,64.39915780976908,60
335.0,106.0,105.73559655611741,101.25631445156463,103.54357831748426,62.19201823863315,64.47928210455278,60
345.0,106.0,105.67969783707306,101.16511030218854,103.47094674917658,62.20875108789649,64.51458753488453,60
355.0,106.1,105.759982113983,101.15699856758332,103.48362973834476,62.27635237563824,64.60298354639968,60
365.0,106.2,105.8083527829704,101.15727972840499,103.51347504553118,62.29487773743922,64.65107305456542,60
375.0,106.2,105.87269175359992,101.17944105394484,103.55144600052655,62.32124575307337,64.69325069965508,60
387.0,106.3,105.92121419279593,101.15665596325216,103.55697941869086,62.36423477410507,64.76455822954377,60
400.0,106.3,105.92121419279593,101.11106654139864,103.51779447077958,62.40341972201635,64.81014765139729,60
412.0,106.3,105.89187385526766,101.04570458604884,103.46534213532392,62.42653171994374,64.84616926921882,60
425.0,106.2,105.8241536512388,100.95031193575689,103.38240034563448,62.44175330560432,64.87384171548192,60
437.0,106.0,105.66138632471588,100.75125307058316,103.18098320727871,62.48040311743716,64.91013325413272,60
450.0,105.8,105.35466751876028,100.4373087196243,102.87166001963318,62.4830074991271,64.91735879913598,60
462.0,105.50000000000001,105.10857465254617,100.17111454537705,102.59226570143538,62.51630895111079,64.93746010716912,60
475.0,105.4,104.9723676454912,100.03215172481059,102.45133770534254,62.521029940148665,64.94021592068061,60
487.0,105.4,105.00806648844255,100.08019223624724,102.49270156869864,62.51536491974392,64.92787425219531,60
500.0,105.50000000000001,105.05856945029399,100.15028532079535,102.57287574345001,62.485693706843975,64.90828412949864,60
515.0,105.50000000000001,105.05856945029399,100.10845167459003,102.56352688322124,62.495042567072744,64.95011777570396,60
530.0,105.4,104.86759369377702,99.90019480957315,102.41280255590898,62.45479113786804,64.96739888420387,60
545.0,105.2,104.70188757738963,99.67393699282844,102.28620449150759,62.41568308588204,65.02795058456118,60
560.0,105.2,104.70372456694965,99.56895896688603,102.33856786749436,62.365156699455284,65.13476560006362,60
580.0,105.3,104.81811044956176,99.54954319985043,102.45837760599295,62.35973284356881,65.26856724971132,60
600.0,105.4,104.83833432456152,99.43946718981911,102.50475420980024,62.333580114761276,65.3988671347424,60
615.0,105.3,104.78557578022327,99.23229955345221,102.43918537717315,62.34639040305012,65.55327622677106,60
630.0,105.3,104.75777926794281,99.0427658246056,102.3858005477615,62.3719787201813,65.71501344333721,60
650.0,105.4,104.85688913074341,98.99669942848696,102.45160931736315,62.40527981338026,65.86018970225645,60
670.0,105.59999999999998,105.0811493427588,99.08089895077622,102.62453710369694,62.45661223906187,66.00025039198259,60
690.0,106.0,105.39467988229792,99.25909847700231,102.89859141553715,62.49608846676077,66.13558140529561,60
710.0,106.3,105.69615101231506,99.42895858607481,103.12881031499832,62.56734069731674,66.26719242624024,60
730.0,106.5,105.87279611391452,99.48723940854485,103.24425444288273,62.62854167103178,66.38555670536967,60
750.0,106.7,106.04788844830604,99.51705883171518,103.30217406181829,62.74571438648775,66.53082961659086,60
775.0,106.90000000000002,106.23701112612324,99.54088212456098,103.36584735781706,62.871163768306175,66.69612900156226,60
800.0,106.90000000000002,106.23522954000656,99.3928581834657,103.21682732195092,63.01840221805564,66.84237135654085,60
825.0,106.90000000000002,106.15225322876516,99.15290307361653,102.94994507526171,63.20230815350345,66.99935015514863,60
850.0,106.8,106.02774903171401,98.94980622579125,102.69327735812094,63.33447167359307,67.07794280592276,60
875.0,106.60000000000001,105.80366829648717,98.68076034565205,102.34356353867405,63.46010475781313,67.12290795083513,60
900.0,106.2,105.42986991831044,98.4140130342413,101.94505932920768,63.484810589102764,67.01585688406915,60
925.0,106.0,105.2026303552835,98.34610496644838,101.76279415528872,63.43983619999479,66.85652538883512,60
950.0,105.7,105.01846065673611,98.37828198870652,101.70440488671034,63.314055770025774,66.64017866802959,60
975.0,105.7,105.03285778776264,98.51547565606518,101.82943656865534,63.2034212191073,66.51738213169746,60
1000.0,105.89999999999999,105.18934837690574,98.51534188521997,101.9315667653505,63.257781611555245,66.67400649168577,60
1030.0,106.1,105.16559477029895,98.04217406222345,101.68184748463254,63.48374728566641,67.1234207080755,60
1060.0,106.2,105.14399053332406,97.2686985807912,101.21379409055989,63.93019644276417,67.87529195253286,60
1090.0,106.4,105.1353399701675,96.5318687688888,100.73659655423977,64.39874341592773,68.6034712012787,60
1120.0,106.7,105.29829344515169,96.15727014685581,100.52047209227474,64.77782135287694,69.14102329829588,60
1150.0,106.90000000000002,105.37014888991024,96.01381909538863,100.3891575784901,64.98099131142014,69.35632979452161,60
1180.0,106.99999999999999,105.4424581857766,96.06519265822463,100.35960720496809,65.08285098080852,69.37726552755197,60
1220.0,106.8,105.31569160538719,96.11105988107842,100.26747362000548,65.04821798538171,69.20463172430877,60
1250.0,106.60000000000001,105.14809087916485,96.17483223717286,100.22706958300512,64.92102129615974,68.97325864199199,60
1280.0,106.5,105.06517591847357,96.3288653730523,100.35542356216747,64.7097523563061,68.73631054542128,60
1320.0,106.4,105.00231473399458,96.49933267773639,100.5410428926116,64.46127184138298,68.50298205625819,60
1360.0,106.2,104.90728954874267,96.65033227411064,100.7155230162263,64.19176653251637,68.25695727463203,60
1400.0,106.0,104.93841920897799,96.82728452480451,100.93989039511995,63.998528813858044,68.11113468417348,60
1450.0,106.0,104.97643430590486,96.97684346505297,101.13456395487104,63.84187035103382,67.9995908408519,60
1500.0,105.8,104.9131775261882,96.95432909555718,101.17382022296702,63.73935730322118,67.95884843063102,60
1550.0,105.7,104.77666340277035,96.7621893456204,101.05058415786944,63.726079244900916,68.01447405714995,60
1600.0,105.59999999999998,104.6787871223359,96.55689837204392,100.93834735746357,63.740439764872335,68.12188875029199,60
1650.0,105.7,104.65792661112586,96.42871917217055,100.90431349983768,63.753613111288175,68.22920743895531,60
1700.0,105.8,104.62355688601681,96.26001899443389,100.80125833120215,63.822298554814665,68.36353789158292,60
1750.0,105.8,104.58958557605935,96.03415923002775,100.64137196253292,63.948213613526434,68.5554263460316,60
1800.0,105.89999999999999,104.56206934161364,95.70021586441628,100.38227503544832,64.17979430616532,68.86185347719736,60
1850.0,105.89999999999999,104.36318200563149,95.17548251906241,99.92194559735755,64.44123640827394,69.18769948656907,60
1900.0,105.89999999999999,104.20287870037413,94.74755670571936,99.52245959646841,64.68041910390572,69.45532199465477,60
1950.0,106.0,104.21471419171279,94.62159505571573,99.35078512765797,64.86392906405482,69.59311913599706,60
2000.0,106.1,104.30970388611789,94.69385131591054,99.35704356212806,64.95266032398983,69.61585257020735,60
2060.0,106.1,104.42378195110489,94.86100841702017,99.40305444356048,65.02072750754441,69.56277353408471,60
2120.0,106.3,104.73925297987415,95.23480619133215,99.61243119056452,65.12682178930963,69.504446788542,60
2180.0,106.4,104.89727235972283,95.42859356670097,99.66601227293097,65.23126008679186,69.46867879302187,60
2240.0,106.4,104.87003013269087,95.38955865410956,99.55460906496214,65.31542106772874,69.48047147858131,60
2300.0,106.60000000000001,104.92200849240997,95.34266628293159,99.51084142178011,65.41116707062986,69.57934220947838,60
2360.0,106.60000000000001,104.97361386398737,95.26306051326425,99.50760407408032,65.46600978990705,69.71055335072312,60
2400.0,106.5,104.92332051265937,95.15666577416427,99.45376942001006,65.46955109264931,69.7666547384951,60
2500.0,106.3,104.73956088179627,94.98157283345164,99.27524562582732,65.46431525596894,69.75798804834463,60
2580.0,106.1,104.5258363656796,94.81585601383937,99.06006943857983,65.46576692709976,69.70998035184023,60
2650.0,105.89999999999999,104.27372678450918,94.57055688405048,98.85014494539529,65.4235818391139,69.7031699004587,60
2720.0,105.89999999999999,104.0063228988197,94.20067968989378,98.62868261810794,65.37764028071176,69.80564320892593,60
2800.0,106.1,103.82272134997102,93.81673833449075,98.4087367881918,65.41398456177922,70.00598301548027,60
2900.0,106.1,103.73534614760416,93.62417841690265,98.3075147878177,65.42783135978647,70.11116773070151,60
3000.0,106.3,104.02938101804939,93.91588742044154,98.60036893632781,65.42901208172158,70.11349359760786,60
3070.0,106.4,104.34613118580728,94.25572013818673,98.98677299576634,65.35935819004094,70.09041104762055,60
3150.0,106.5,104.6031954315393,94.55233170577563,99.32972967764924,65.27346575389006,70.05086372576368,60
3250.0,106.5,104.74523417554214,94.7813943528918,99.53965272502974,65.2055814505124,69.96383982265034,60
3350.0,106.60000000000001,104.84318043467553,94.9603382624252,99.67391979560803,65.1692606390675,69.88284217225034,60
3450.0,106.8,104.75754022420905,94.88020541628421,99.60829211243455,65.1492481117745,69.87733480792484,60
3550.0,106.99999999999999,104.97472656650878,95.13629196879408,99.81911093241975,65.15561563408903,69.8384345977147,60
3650.0,107.1,105.17864916895755,95.39046189189749,100.03580194091943,65.14284722803812,69.78818727706006,60
3750.0,106.8,104.85415115695518,95.01692793174813,99.65393082628202,65.20022033067316,69.83722322520705,60
3870.0,106.5,104.86101012323901,95.00682265209316,99.62469125975412,65.2363188634849,69.85418747114585,60
