Freq "Sound Power"
22.4 54.49924690395444
23.0 56.246742962829885
23.6 58.12601639569199
24.0 60.719789282191115
25.0 61.930045318647146
25.8 62.954731463635014
26.5 63.967982092632624
27.2 65.09788328229895
28.0 66.3935104192281
29.0 66.8461496201876
30.0 67.66239270461794
30.7 68.35970407883745
31.5 70.02225162338469
32.5 71.4722232265289
33.5 72.54854176210033
34.5 73.86229161820732
35.5 75.40913384305908
36.5 77.19760697388732
37.5 79.11891577731835
38.7 81.09355011260406
40.0 82.4374677264782
41.2 84.32125116185584
42.5 85.8765303594248
43.7 87.13940211052241
45.0 88.48100174495072
46.2 89.40063591406053
47.5 90.38759315233641
48.7 91.20412872691229
50.0 92.10667693383358
51.5 92.96217448616353
53.0 93.85319845100815
54.5 94.83073042747957
56.0 95.85718997201653
58.0 96.91589750090819
60.0 98.03252016339044
61.5 99.06233597358708
63.0 100.09244672019875
65.0 101.13997032942046
67.0 102.04085894735171
69.0 102.96775164858792
71.0 103.77414476810837
73.0 104.50119983708343
75.0 105.18878781769203
77.5 105.72950814883005
80.0 106.19260074524234
82.5 106.50375927359221
85.0 106.63356273268
87.5 106.63592857509784
90.0 106.59116541422662
92.5 106.50608889245119
95.0 106.41845889245809
97.5 106.31637507962273
100.0 106.22466978908513
103.0 106.18786532282522
106.0 106.17453775164236
109.0 106.20784272510951
112.0 106.2283056818578
115.0 106.1839511129872
118.0 106.08193315651637
122.0 105.90068018977205
125.0 105.71209941013036
128.0 105.49891642778182
132.0 105.23004464650847
136.0 104.95276604808856
140.0 104.66206801588218
145.0 104.40405012625581
150.0 104.21581283208553
155.0 104.10889455458468
160.0 104.0132504510898
165.0 103.91752028637195
170.0 103.82872695253177
175.0 103.7329961563845
180.0 103.62692108808062
185.0 103.53102876463232
190.0 103.41675117851581
195.0 103.26492898077355
200.0 103.12277907357081
206.0 103.01085391692278
212.0 102.9211058240881
218.0 102.91276648953739
224.0 102.97730108003206
230.0 103.04390668010349
236.0 103.07964840144791
240.0 103.05820959471654
250.0 103.05602005751557
258.0 103.04233293176812
265.0 103.06353008913597
272.0 103.0244206711671
280.0 102.92212272032212
290.0 102.75538161409406
300.0 102.58814006424576
307.0 102.40756203160448
315.0 102.23547560921352
325.0 102.04656532862681
335.0 101.8664410338431
345.0 101.77523688446703
355.0 101.7671251498618
365.0 101.76740631068348
375.0 101.78956763622332
387.0 101.76678254553066
400.0 101.72119312367711
412.0 101.65583116832734
425.0 101.56043851803537
437.0 101.36137965286163
450.0 101.04743530190278
462.0 100.78124112765555
475.0 100.64227830708909
487.0 100.69031881852572
500.0 100.76041190307384
515.0 100.7185782568685
530.0 100.51032139185162
545.0 100.28406357510691
560.0 100.17908554916453
580.0 100.15966978212893
600.0 100.0495937720976
615.0 99.84242613573069
630.0 99.65289240688408
650.0 99.60682601076546
670.0 99.6910255330547
690.0 99.8692250592808
710.0 100.0390851683533
730.0 100.09736599082335
750.0 100.12718541399364
775.0 100.15100870683946
800.0 100.00298476574419
825.0 99.76302965589501
850.0 99.55993280806973
875.0 99.29088692793053
900.0 99.02413961651978
925.0 98.95623154872688
950.0 98.98840857098499
975.0 99.12560223834367
1000.0 99.12546846749846
1030.0 98.65230064450195
1060.0 97.87882516306969
1090.0 97.14199535116728
1120.0 96.76739672913429
1150.0 96.6239456776671
1180.0 96.6753192405031
1220.0 96.7211864633569
1250.0 96.78495881945135
1280.0 96.93899195533078
1320.0 97.10945926001487
1360.0 97.26045885638912
1400.0 97.437411107083
1450.0 97.58697004733143
1500.0 97.56445567783567
1550.0 97.37231592789888
1600.0 97.1670249543224
1650.0 97.03884575444903
1700.0 96.87014557671237
1750.0 96.64428581230622
1800.0 96.31034244669475
1850.0 95.78560910134091
1900.0 95.35768328799783
1950.0 95.23172163799423
2000.0 95.303977898189
2060.0 95.47113499929864
2120.0 95.84493277361064
2180.0 96.03872014897945
2240.0 95.99968523638803
2300.0 95.95279286521006
2360.0 95.87318709554273
2400.0 95.76679235644276
2500.0 95.59169941573012
2580.0 95.42598259611786
2650.0 95.18068346632894
2720.0 94.81080627217224
2800.0 94.42686491676923
2900.0 94.23430499918113
3000.0 94.52601400272
3070.0 94.86584672046523
3150.0 95.16245828805411
3250.0 95.39152093517028
3350.0 95.5704648447037
3450.0 95.4903319985627
3550.0 95.74641855107258
3650.0 96.00058847417598
3750.0 95.62705451402663
3870.0 95.61694923437166
4000.0 95.96959906988772
4120.0 96.43772909570255
4250.0 96.13234283672962
4370.0 95.3307059344148
4500.0 94.99832820092148
4620.0 95.69598792829002
4750.0 96.38531194874511
4870.0 96.42351696565252
5000.0 96.0433577443173
5150.0 96.111032078847
5300.0 95.79292364477344
5450.0 95.6443714677577
5600.0 95.8446555056416
5800.0 95.55976254319243
6000.0 95.24422662981972
6150.0 95.22563877482288
6300.0 95.68255115035866
6500.0 95.65349280403656
6700.0 95.82148651878289
6900.0 96.06554311829649
7100.0 95.61916434070172
7300.0 95.17120530518889
7500.0 94.8796937700231
7750.0 94.86763762009728
8000.0 94.80974999800844
8250.0 95.0179266843488
8500.0 95.57242671280343
8750.0 95.70695209878828
9000.0 95.81943445324376
9250.0 96.13738122624467
9500.0 96.4322115345344
9750.0 96.16734701994942
10000.0 95.82206147181984
10300.0 95.97233093665064
10600.0 95.64600567550606
10900.0 95.30327052745614
11200.0 95.36682494562065
11500.0 95.85257809890302
11800.0 95.96950807840562
12200.0 96.38679012812773
12500.0 96.59373240636819
12800.0 96.49082446274882
13200.0 96.47844094102841
13600.0 96.46835701951507
14000.0 96.90243784851063
14500.0 97.16266618807879
15000.0 96.4641912358233
15500.0 95.93544116628942
16000.0 93.7177184552241
16500.0 91.80963021178964
17000.0 92.92213776754926
17500.0 88.55093186635806
18000.0 86.42103633761243
18500.0 81.88323894712288
19000.0 84.1902814166114
19500.0 89.0041065361629
