Freq,On Axis,Listening Window,Sound Power,Early Reflections,Early Reflections DI,Sound Power DI,DI offset
20.5078,62.23749999999998,62.2288531356964,62.167369689456166,62.14385482324238,50.08499831245402,50.06148344624023,50
21.2402,62.3253,62.295201280363244,61.72516616135667,61.97617250668995,50.319028773673296,50.570035119006576,50
21.9727,62.830900000000014,62.79900170617279,62.1969084725018,62.45667654177015,50.34232516440264,50.602093233670985,50
22.7051,63.92920000000001,63.907126433830996,63.53193400556282,63.664628736367064,50.24249769746393,50.37519242826818,50
23.4375,64.0814,64.05339158488178,63.54017466741598,63.74945390801426,50.30393767686752,50.5132169174658,50
24.1699,65.0413,65.01007321266619,64.39263289753447,64.6543501671801,50.35572304548609,50.61744031513172,50
25.6348,66.18699999999998,66.16367531834334,65.726142177171,65.89905906748513,50.26461625085821,50.43753314117234,50
26.3672,66.7244,66.69961535024362,66.23617412398522,66.42054214173555,50.279073208508066,50.4634412262584,50
27.0996,67.24969999999999,67.2277646971205,66.82533783578498,66.9777054026315,50.250059294489006,50.40242686133553,50
27.832,67.58340000000001,67.55903519984813,67.1120895760672,67.28613089569944,50.27290430414868,50.44694562378092,50
29.2969,68.4427,68.41932799875977,68.00145401503534,68.15984820772078,50.259479791038984,50.417873983724434,50
30.0293,68.91569999999999,68.89213613101455,68.4682565364349,68.62922814780794,50.26290798320662,50.42387959457966,50
31.4941,69.4787,69.45263954761626,68.98334130740082,69.17005869429912,50.28258085331714,50.46929824021544,50
32.2266,69.918,69.89204906023035,69.42171765964065,69.6093466316666,50.28270242856375,50.4703314005897,50
33.6914,70.63039999999998,70.60467647394705,70.14851605628834,70.3290295892346,50.27564688471246,50.45616041765871,50
34.4238,70.9477,70.92110110767074,70.44775191568833,70.63722041580232,50.28388069186842,50.47334919198241,50
35.8887,71.6827,71.6558914343592,71.17549564582002,71.36835717507228,50.28753425928693,50.480395788539184,50
37.3535,72.3212,72.29499892103563,71.83898780861988,72.01788877735558,50.27711014368005,50.45601111241575,50
38.8184,72.8938,72.86715323373988,72.41820879716892,72.59096322231323,50.27619001142665,50.44894443657097,50
39.5508,73.2566,73.22893381900481,72.75850448719432,72.94198736614396,50.286946452860846,50.47042933181049,50
41.0156,73.9015,73.87284594533939,73.37750652919803,73.57515305623633,50.29769288910306,50.49533941614136,50
42.4805,74.5236,74.49400607425744,73.98268797219444,74.18880065248797,50.30520542176947,50.511318102063,50
43.9453,75.0732,75.04294620873193,74.52559366221145,74.73449038904474,50.3084558196872,50.517352546520485,50
45.4102,75.6505,75.61916648105765,75.084289706285,75.30249772360406,50.316668757453584,50.53487677477264,50
47.6074,76.435,76.40397447277259,75.87959054746554,76.0927201848196,50.31125428795299,50.52438392530705,50
49.0723,76.9605,76.92816891653735,76.39023967464078,76.60819616656357,50.31997274997377,50.53792924189656,50
50.5371,77.4595,77.42654436673583,76.88060119691397,77.10200013453048,50.32454423220534,50.545943169821854,50
52.7344,78.1172,78.08394703889549,77.53125873925399,77.75620373087011,50.327743308025376,50.5526882996415,50
54.1992,78.6676,78.63453972973325,78.09270994779824,78.31206767958682,50.32247205014643,50.54182978193501,50
56.3965,79.3794,79.34401995367477,78.79077897742982,79.0193707430007,50.32464921067407,50.55324097624495,50
58.5938,80.0872,80.0480663396895,79.40396360473895,79.67926857570191,50.36879776398759,50.64410273495055,50
60.0586,80.47059999999999,80.43168770632421,79.78295509169888,80.0594108007762,50.372276905548006,50.64873261462533,50
62.2559,80.9704,80.93322887921963,80.33046349735467,80.58201542427571,50.35121345494392,50.602765381864955,50
64.4531,81.5615,81.52345344848314,80.93172370453858,81.1766560816736,50.34679736680954,50.591729743944555,50
66.6504,82.1617,82.121469143214,81.49261367914642,81.7564317152198,50.365037427994196,50.628855464067584,50
69.5801,82.7829,82.7421271747685,82.12792572010439,82.38280034505624,50.35932682971226,50.61420145466411,50
71.7773,83.2885,83.24740282491952,82.63305791037773,82.88705562175673,50.36034720316279,50.61434491454179,50
73.9746,83.7556,83.71428989491162,83.1169146215128,83.36102626359948,50.35326363131213,50.59737527339881,50
76.9043,84.42339999999999,84.38030278043183,83.7780914176579,84.02366128507825,50.356641495353585,50.60221136277393,50
79.834,85.02360000000002,84.978226097438,84.35524678960601,84.61153930170926,50.36668679572874,50.62297930783198,50
82.7637,85.4945,85.44832905625375,84.8402939606153,85.08757672857026,50.3607523276835,50.608035095638456,50
85.6934,86.0537,86.00370578756677,85.36599114467954,85.6260490663911,50.37765672117567,50.63771464288723,50
88.623,86.6184,86.56660992491283,85.89846273055977,86.1732591643736,50.39335076053922,50.668147194353054,50
91.5527,87.0693,87.01760604058455,86.34930532833127,86.62398106713981,50.393624973444744,50.668300712253284,50
94.4824,87.4991,87.44545212514191,86.77362836224597,87.04928109874777,50.39617102639414,50.67182376289594,50
98.1445,87.9786,87.92091549377044,87.22168296024915,87.50969194029756,50.41122355347288,50.69923253352128,50
101.807,88.3937,88.33123794371545,87.57431898244677,87.89109676996088,50.44014117375457,50.75691896126868,50
105.469,88.74289999999999,88.67638357496968,87.8673450890827,88.20931084846063,50.467072726509045,50.80903848588697,50
109.131,89.0667,88.99555154259835,88.15117779659873,88.50755417503741,50.487997367560936,50.84437374599962,50
112.793,89.43459999999999,89.35547310457812,88.38163293582218,88.80438511267087,50.55108799190725,50.97384016875594,50
116.455,89.67840000000001,89.59805317608428,88.57055464138917,89.01874899184317,50.57930418424111,51.02749853469511,50
120.85,89.964,89.8778807277337,88.73612037229574,89.24051161343195,50.63736911430175,51.14176035543795,50
125.244,90.12359999999998,90.03767590437928,88.83278114380622,89.37295989639178,50.66471600798751,51.20489476057307,50
129.639,90.3601,90.27299202914826,89.13661399029921,89.64013131811365,50.63286071103461,51.136378038849045,50
134.033,90.5815,90.49318040875697,89.31193669311095,89.84410392369506,50.64907648506191,51.18124371564602,50
138.428,90.5978,90.50290157276432,89.26821014717002,89.82443749426675,50.67846407849757,51.23469142559429,50
143.555,90.7098,90.61270444941468,89.21425068248212,89.86332832334665,50.74937612606803,51.39845376693256,50
148.682,90.9767,90.88121368389338,89.59154627600614,90.17360048847802,50.70761319541536,51.28966740788724,50
153.809,91.101,90.99785814655885,89.66574259713624,90.27627355579591,50.721584590762944,51.33211554942261,50
159.668,91.0734,90.95748111530234,89.42728970596464,90.14705510989143,50.81042600541092,51.530191409337704,50
164.795,91.1194,90.99984270571947,89.22136000547744,90.08853173995197,50.9113109657675,51.77848270024204,50
170.654,91.3921,91.28156860028493,89.41891639580967,90.34581243082388,50.935756169461044,51.86265220447525,50
176.514,91.33689999999999,91.23433095671456,89.55442038737839,90.3809612150595,50.85336974165506,51.67991056933617,50
183.105,91.0022,90.90202979991362,89.32425152592569,90.09940985458694,50.80261994532668,51.57777827398793,50
189.697,90.7084,90.59672591404328,89.07916775855627,89.8019111288557,50.79481478518757,51.51755815548701,50
196.289,90.6044,90.48499753466409,88.78646294921671,89.61377824344194,50.87121929122215,51.698534585447376,50
202.881,90.3281,90.21046189819626,88.42269892307357,89.30378238680463,50.90667951139163,51.78776297512269,50
210.205,90.095,89.96710380395834,88.12052693994715,89.0223729943599,50.94473080959844,51.84657686401118,50
217.529,90.0911,89.96512812840884,88.08796002919365,89.02243347488738,50.94269465352146,51.87716809921518,50
225.586,89.77799999999999,89.63574890380454,87.85523531845945,88.6970667532114,50.93868215059314,51.78051358534509,50
232.91,89.72990000000001,89.56767849968934,87.40036149929581,88.4492665780673,51.11841192162204,52.167317000393524,50
241.699,89.8807,89.72554876283402,87.20783148955866,88.46481587161085,51.26073289122317,52.517717273275366,50
249.756,90.4204,90.27930208409234,87.24012876585769,88.84981629261021,51.42948579148212,53.039173318234646,50
258.545,90.2614,90.1444744870765,87.76869016596736,88.97795952888376,51.166514958192735,52.37578432110914,50
268.066,89.84109999999998,89.72604782861359,87.3512659850401,88.5644692210142,51.16157860759938,52.37478184357349,50
277.588,89.46189999999999,89.32323988593694,87.16445832364332,88.22704041090881,51.09619947502813,52.158781562293626,50
287.109,89.1044,88.97741240046105,86.57593422084987,87.83647715514445,51.1409352453166,52.401478179611175,50
297.363,89.4306,89.27488185150746,86.4890454938101,87.98085473503413,51.29402711647333,52.78583635769736,50
307.617,89.495,89.35621398180956,86.88265290247514,88.18298960358628,51.17322437822328,52.47356107933442,50
318.604,89.8227,89.69301246531937,86.66964290771148,88.32846833663663,51.36454412868274,53.02336955760789,50
329.59,88.9356,88.88811999082304,87.02208502216763,88.1358934877758,50.75222650304724,51.86603496865541,50
341.309,88.9925,88.61828267754848,86.7171477044819,87.25547456093813,51.36280811661035,51.901134973066576,50
353.76,90.4871,90.22479184727976,86.99113003997829,88.46023040198676,51.764561445293,53.23366180730147,50
366.211,90.181,89.9667856125981,86.72834446947468,88.34970164120693,51.61708397139117,53.238441143123424,50
378.662,90.41,90.17902080229037,86.48925971305503,88.40204034963767,51.776980452652694,53.68976108923533,50
392.578,90.8576,90.67687046373655,87.14954293369587,89.05890509189882,51.61796537183773,53.52732753004068,50
405.762,90.6293,90.41433335337967,86.92001189678291,88.71930590611761,51.69502744726206,53.494321456596765,50
420.41,91.1333,90.9733417467005,87.44714779350639,89.30248536249519,51.67085638420531,53.52619395319411,50
435.059,90.364,90.16958168813306,87.54875633649607,88.8985635689077,51.27101811922536,52.620825351636995,50
450.439,91.18630000000002,90.81451310756802,87.4880570599084,89.04945198597882,51.7650611215892,53.32645604765962,50
466.553,92.7148,92.33280386516412,87.86709627717889,90.18664072158266,52.14616314358146,54.465707587985236,50
482.666,92.666,92.34330256999212,87.98778415076958,90.20918517162467,52.13411739836745,54.355518419222534,50
500.244,92.93950000000001,92.5789054863921,88.11459432011452,90.36902717789306,52.20987830849904,54.46431116627758,50
517.822,92.958,92.60947478536636,87.94997166534162,90.15321030821951,52.456264477146846,54.65950312002474,50
536.133,92.3967,91.92656625395482,87.59927936310207,89.60084947309711,52.325716780857704,54.32728689085275,50
554.443,92.7813,92.36303468887198,87.26383212386732,89.68258514476554,52.68044954410644,55.09920256500466,50
574.219,93.1483,92.76798119318549,87.58202092823137,90.16707633325134,52.60090485993415,55.18596026495412,50
594.727,93.9216,93.5662521293593,88.52555347273793,91.22280261809493,52.34344951126437,55.04069865662137,50
615.234,93.596,93.23011673212316,88.41883485075152,90.90487464942191,52.32524208270125,54.81128188137164,50
637.207,94.2361,93.79618989609725,88.77117475108521,91.2846704996621,52.51151939643515,55.025015145012034,50
659.912,94.8433,94.39660403310278,88.82781810231869,91.53174870095636,52.86485533214642,55.56878593078409,50
683.35,93.46349999999998,93.13648950642204,88.12609833785277,90.6314166376713,52.505072868750744,55.01039116856927,50
706.787,92.0111,91.67055582004325,87.28300854338862,89.35910057713922,52.31145524290403,54.38754727665463,50
731.689,91.99009999999998,91.5533547965095,87.37695187782083,89.61743840984073,51.935916386668765,54.176402918688666,50
758.057,92.1455,91.71231464881356,86.9069760960563,89.53400274354667,52.178311905266895,54.80533855275726,50
784.424,92.0002,91.53318410416225,86.93556148215526,89.35165766682502,52.181526437337226,54.59762262200698,50
812.256,91.4165,90.82677069864025,86.59057518381282,88.60485835203497,52.22191234660528,54.23619551482743,50
840.82,92.4486,91.90619338253,87.34231516914066,89.60144749409065,52.304745888439356,54.563878213389344,50
870.85,93.3285,92.77831435761395,87.1524657355236,90.38211815622098,52.39619620139297,55.625848622090345,50
901.611,93.0708,92.46258328677983,86.91923341292174,89.69895130823724,52.76363197854259,55.54334987385809,50
933.105,93.28470000000002,92.74809534299082,87.22952679889154,90.33642453470978,52.411670808281045,55.51856854409928,50
966.064,92.6626,92.1414404958403,86.49078093839279,89.84738234217741,52.29405815366289,55.65065955744751,50
999.756,91.8415,91.401553901086,86.24714552421767,89.64713224696195,51.75442165412406,55.15440837686833,50
1034.91,92.09380000000002,91.3894096097787,85.82558292279376,89.48236269273121,51.90704691704748,55.56382668698494,50
1071.53,91.37359999999998,90.83981659494434,85.44726889269712,89.17360465280109,51.66621194214325,55.392547702247214,50
1109.62,90.8451,90.3465440107758,84.709405199901,88.46857504765546,51.87796896312034,55.6371388108748,50
1148.44,92.2552,91.63223822293449,85.33218771577198,89.28352908821222,52.34870913472227,56.30005050716251,50
1189.45,92.3091,91.58154484076269,85.19392250124372,89.3918847913215,52.18966004944119,56.38762233951897,50
1231.2,92.46959999999999,91.83071561652919,85.41449484232899,89.58848966928633,52.24222594724286,56.4162207742002,50
1274.41,92.8892,92.13062083139245,85.17593395125996,89.35065873843338,52.77996209295907,56.954686880132485,50
1319.82,92.61509999999998,91.9843856431996,85.18368127602616,89.30390261995464,52.68048302324496,56.80070436717344,50
1365.97,93.7173,92.8620712870378,85.61848282527346,89.71204960758925,53.15002167944854,57.24358846176433,50
1414.31,93.859,93.01238553776199,85.87847247738198,89.74198119854918,53.2704043392128,57.13391306038001,50
1464.11,94.28040000000001,93.52699988980014,86.28037365129617,90.13704194574544,53.3899579440547,57.246626238503964,50
1515.38,94.9308,93.94669414801604,86.5023983053331,90.59514698053715,53.351547167478884,57.44429584268293,50
1568.85,94.6745,93.73001299713074,86.03212412536419,90.08153516849406,53.648477828636686,57.69788887176655,50
1624.51,93.78,92.98039370626202,85.52071280692078,89.53452580907567,53.445867897186346,57.45968089934124,50
1681.64,93.8004,92.86964855562438,85.35296286989083,89.12008205188991,53.74956650373447,57.51668568573355,50
1740.97,94.06389999999999,93.1383128069746,85.59574051253588,89.17738439480277,53.960928412171825,57.54257229443871,50
1802.49,94.7228,93.59945770051137,85.00759731809639,89.42001032232437,54.17944737818699,58.59186038241498,50
1866.21,94.693,93.53371592959104,85.35506828364156,89.27881465860696,54.25490127098408,58.17864764594948,50
1932.13,94.717,93.47669898430416,85.24887682823129,89.14711745334392,54.32958153096024,58.227822156072875,50
2000.24,94.7423,93.63683488750621,86.05561483073744,89.5535785750611,54.083256312445116,57.58122005676877,50
2070.56,94.5985,93.72498751354435,85.82386380768433,89.55143902732743,54.173548486216916,57.901123705860016,50
2143.8,94.1195,93.20621565862169,85.54193981768593,89.16278797988632,54.04342767873537,57.66427584093576,50
2219.24,93.7396,93.13142640505156,85.30967687457554,89.192374585642,53.939051819409556,57.82174953047601,50
2297.61,94.3477,93.60482912268795,85.86332808658989,89.7428277660543,53.86200135663364,57.74150103609806,50
2378.17,93.979,93.2000023445668,85.80627248155537,89.44453810779407,53.755464236772724,57.39372986301143,50
2462.4,92.7903,92.24852263745169,85.55463879362105,88.82660128163837,53.42192135581331,56.69388384383063,50
2548.83,92.073,91.92605017916111,85.1208090814439,88.67989146243482,53.246158716726285,56.805241097717214,50
2638.92,91.6907,91.62662591861297,84.7108758224726,88.50240332160061,53.12422259701236,56.91575009614037,50
2731.93,90.1464,90.5711845356212,85.60874674394945,88.01399169776931,52.557192837851886,54.962437791671746,50
2828.61,89.62020000000001,89.75293470861715,83.37970614123721,87.19942905741237,52.55350565120477,56.37322856737994,50
2928.22,89.3071,89.21031187458932,82.60342145905499,86.44418522425313,52.76612665033619,56.60689041553434,50
3031.49,89.7589,89.49843930098953,82.5086018005299,86.53133867898002,52.96710062200951,56.98983750045963,50
3138.43,89.2677,88.55308244906146,81.58464581416604,85.57276355749826,52.9803188915632,56.968436634895426,50
3249.02,88.9595,88.57785589019836,81.40826191363891,85.26562812949388,53.31222776070449,57.169593976559455,50
3363.28,88.7858,88.72595780975836,81.53702310340857,85.14965209370152,53.57630571605684,57.188934706349784,50
3481.93,89.077,88.7883815572986,81.565416817852,85.27143400740783,53.51694754989077,57.22296473944661,50
3604.98,90.2117,89.72760038854248,82.11609524776196,85.80326452527322,53.92433586326926,57.61150514078052,50
3732.42,90.82050000000001,90.03582289428259,82.53038717296378,86.17605871037156,53.859764183911025,57.505435721318804,50
3863.53,91.5503,90.62620979238608,82.85448559014182,86.58456791587159,54.04164187651449,57.77172420224426,50
3999.76,91.7448,90.50931273876341,82.64475963547417,86.57641670847605,53.93289603028737,57.86455310328924,50
4141.11,92.37469999999999,90.94048979820424,82.6806262733789,86.66342065510555,54.277069143098686,58.259863524825334,50
4286.87,91.76340000000002,90.0715207268825,82.23457166812224,86.18170541666663,53.889815310215866,57.836949058760254,50
4438.48,91.12360000000001,89.85387787931498,81.61978460535605,85.49726342324814,54.356614456066836,58.23409327395893,50
4594.48,90.5833,89.24549390019305,81.23056649306474,85.13437167733728,54.11112222285577,58.01492740712831,50
4757.08,91.0825,89.86268679546778,81.62125876412937,85.62057281561155,54.24211397985623,58.241428031338415,50
4924.8,90.7909,89.68097989334393,81.41005209102678,85.4299223939767,54.251057499367235,58.270927802317146,50
5098.39,91.2987,90.11856102078276,81.58809869465084,85.7445753120168,54.37398570876596,58.530462326131925,50
5277.83,91.7015,90.55144196559829,81.72305008475888,85.96881170309256,54.58263026250573,58.828391880839405,50
5463.87,91.3104,90.14323623840818,81.27823689721089,85.5227880246824,54.62044821372578,58.86499934119729,50
5656.49,90.6702,89.60872049193053,80.41957256715374,84.7587230664393,54.849997425491225,59.18914792477679,50
5856.45,90.9712,89.57872429346199,80.04406628356654,84.537931902535,55.040792390926995,59.53465800989545,50
6062.99,90.84979999999999,89.49066942995834,79.94472398288062,84.4438992741841,55.04677015577424,59.54594544707773,50
6276.86,91.25139999999999,89.82191562170685,80.14859681572392,84.65310423665989,55.168811385046965,59.67331880598293,50
6498.05,91.6327,90.18225898769902,80.42072411240065,84.96733618306286,55.21492280463616,59.761534875298366,50
6727.29,92.1575,90.71412054609166,80.91287980587511,85.40289018775954,55.311230358332125,59.801240740216556,50
6964.6,92.3288,91.02690793160377,81.2713612772148,85.75132526763053,55.27558266397324,59.75554665438898,50
7209.96,92.0709,90.88282309285589,81.16262621238113,85.67047869597707,55.21234439687882,59.72019688047476,50
7464.11,91.7149,90.83316242245668,81.10981948710082,85.59192490279455,55.241237519662135,59.72334293535586,50
7727.78,91.5812,90.93561893804137,81.19354473197961,85.69767474284605,55.237944195195325,59.74207420606176,50
8000.24,91.62190000000001,90.92036204747544,81.20469527858597,85.790995385314,55.12936666216143,59.71566676888946,50
8282.23,89.4308,88.84410388283419,79.1850999225664,83.78110051066479,55.063003372169405,59.659003960267796,50
8574.46,89.80349999999999,89.38605684670884,79.76065799783576,84.32698495326065,55.05907189344819,59.625398848873076,50
8876.22,90.1072,89.76339163923222,80.10361542464798,84.6081305099356,55.15526112929662,59.65977621458424,50
9189.7,90.31299999999999,89.77608116515736,79.98614859694652,84.50070004016109,55.27538112499627,59.789932568210844,50
9513.43,90.9197,90.14392738315658,80.12758658910286,84.72308900533658,55.420838377820004,60.01634079405372,50
9848.88,90.3597,89.42394245047022,79.18706593808348,83.8721775465252,55.55176490394503,60.23687651238674,50
