Freq "Floor Bounce"
22.4 26.60690501035461
23.0 27.406905010354592
23.6 35.13821129888743
24.0 38.47387961222819
25.0 39.338211298887416
25.8 39.60690501035458
26.5 39.23821129888742
27.2 38.506905010354586
28.0 38.10690501035461
29.0 37.7069050103546
30.0 37.2069050103546
30.7 37.10690501035461
31.5 37.8069050103546
32.5 39.40690501035459
33.5 42.63821129888743
34.5 46.63821129888743
35.5 51.27387961222817
36.5 54.90690501035459
37.5 57.94044167945492
38.7 60.64283030471972
40.0 63.176091754492205
41.2 65.90690501035459
42.5 68.6069050103546
43.7 71.20690501035459
45.0 73.6069050103546
46.2 75.60690501035458
47.5 77.37609175449221
48.7 78.9069050103546
50.0 80.3069050103546
51.5 81.57609175449221
53.0 82.70690501035459
54.5 83.6760917544922
56.0 84.4760917544922
58.0 85.07609175449221
60.0 85.40690501035459
61.5 85.6760917544922
63.0 85.90690501035459
65.0 86.07609175449223
67.0 86.27609175449221
69.0 86.47609175449222
71.0 86.6760917544922
73.0 86.9760917544922
75.0 87.27609175449221
77.5 87.47609175449222
80.0 87.6760917544922
82.5 87.81227178315618
85.0 87.91227178315619
87.5 87.91227178315619
90.0 87.81227178315618
92.5 87.5122717831562
95.0 87.07609175449221
97.5 86.71227178315618
100.0 86.4457671943847
103.0 86.4457671943847
106.0 86.64576719438469
109.0 86.91227178315619
112.0 87.18219967332303
115.0 87.38219967332304
118.0 87.5122717831562
122.0 87.58219967332305
125.0 87.4489851487955
128.0 87.3489851487955
132.0 87.18219967332303
136.0 87.08219967332303
140.0 86.88219967332304
145.0 86.51916705502754
150.0 86.21916705502754
155.0 86.21916705502754
160.0 86.58982856673472
165.0 86.81916705502753
170.0 86.81916705502753
175.0 86.71916705502753
180.0 86.52758719283592
185.0 86.18982856673472
190.0 85.82758719283592
195.0 85.56096514237183
200.0 85.39897445130924
206.0 84.99897445130925
212.0 84.59897445130926
218.0 85.13752777300027
224.0 86.17082970284298
230.0 86.57082970284297
236.0 86.63752777300029
240.0 86.54898359150843
250.0 86.44898359150842
258.0 86.14898359150841
265.0 85.92179738688895
272.0 85.82179738688896
280.0 85.76194867563767
290.0 85.73546263134683
300.0 85.67641629732151
307.0 85.5094224842602
315.0 85.27641629732153
325.0 85.15062128010365
335.0 85.05062128010364
345.0 84.892378988098
355.0 84.592378988098
365.0 84.53469773360898
375.0 84.66726558859611
387.0 84.83469773360899
400.0 84.7672655885961
412.0 84.43469773360899
425.0 83.83469773360898
437.0 83.16726558859611
450.0 82.66726558859611
462.0 82.392378988098
475.0 82.392378988098
487.0 82.5672655885961
500.0 82.892378988098
515.0 82.96726558859612
530.0 83.14258273663015
545.0 83.28538710465898
560.0 82.93776734285541
580.0 82.25865724017869
600.0 81.80473949550549
615.0 81.50921140720403
630.0 81.21378996755591
650.0 80.80994607707171
670.0 80.45657014803854
690.0 80.1946681446287
710.0 79.96683606097591
730.0 79.01299747465917
750.0 77.28172225544836
775.0 74.76435817242171
800.0 72.55651962660995
825.0 72.73835530969328
850.0 74.52042427558203
875.0 76.70409483010013
900.0 78.69317164073087
925.0 80.2079926521559
950.0 81.130497514016
975.0 81.51627940083641
1000.0 81.70542400732661
1030.0 81.96845083805432
1060.0 82.03821129888743
1090.0 82.02188682922211
1120.0 82.00799265215589
1150.0 82.01495907510501
1180.0 82.2180442046013
1220.0 82.32842011477169
1250.0 82.02432154763822
1280.0 81.59691915590437
1320.0 81.39959529697505
1360.0 81.4055529591817
1400.0 81.21471033977959
1450.0 80.86146272052233
1500.0 80.24264565432188
1550.0 79.65810921016849
1600.0 79.79441444972205
1650.0 80.04240010667203
1700.0 79.78354649534124
1750.0 79.60316376986722
1800.0 79.32068825021472
1850.0 78.9426643853077
1900.0 78.73424918881479
1950.0 78.59290042729637
2000.0 78.27592265583844
2060.0 77.87592265583845
2120.0 77.62812420384773
2180.0 77.3881710085173
2240.0 77.46632763805378
2300.0 77.15055666048153
2360.0 76.39417633457009
2400.0 76.67117608287157
2500.0 77.40702691858942
2580.0 77.52413245863548
2650.0 77.80386349929798
2720.0 77.88205670268607
2800.0 78.27546798265996
2900.0 78.40600822027324
3000.0 77.96435270902097
3070.0 78.1778449922142
3150.0 78.86921935575968
3250.0 78.83695108716925
3350.0 78.21861981293831
3450.0 78.00095746985176
3550.0 78.43143825467695
3650.0 78.59682786047021
3750.0 78.49389642518189
3870.0 78.47979693268613
4000.0 78.12330917819011
4120.0 78.02545420369876
4250.0 78.20489348120857
4370.0 78.30489348120858
4500.0 78.70255084073483
4620.0 78.27532051493634
4750.0 77.61208790807137
4870.0 77.83749164860504
5000.0 78.32802377249942
5150.0 78.30438876291988
5300.0 77.91688630006816
5450.0 77.9938964251819
5600.0 78.35840416724977
5800.0 78.08201452057557
6000.0 77.61399508116125
6150.0 77.85267014849711
6300.0 77.96531718637125
6500.0 77.78981795749586
6700.0 77.86067301425102
6900.0 78.16704034038136
7100.0 77.53224933645778
7300.0 76.53224933645778
7500.0 76.16345350228153
7750.0 75.71299747465915
8000.0 74.91767976686997
8250.0 76.31854663426515
8500.0 78.82129832737722
8750.0 80.18716272676826
9000.0 81.04817574255785
9250.0 81.23826930892164
9500.0 79.48675060872407
9750.0 78.22312685592394
10000.0 78.95764866710847
10300.0 80.8212983273772
10600.0 81.99311125678297
10900.0 80.70723108258801
11200.0 78.57226149136011
11500.0 81.17776180108751
11800.0 80.50162079833962
12200.0 74.72780223744664
12500.0 71.07094029962926
12800.0 70.63227612634168
13200.0 71.82096051642598
13600.0 75.98869775436617
14000.0 79.78197279351602
14500.0 80.62312489912068
15000.0 80.86466314161461
15500.0 77.96380826753366
16000.0 73.81915110008832
16500.0 76.19979749462564
17000.0 74.04708346592021
17500.0 73.62470263997201
18000.0 67.30523724037154
18500.0 64.63787328554854
19000.0 59.29362112359689
19500.0 65.7628844435771
