Freq "Front Wall Bounce"
22.4 27.014427463397467
23.0 27.81442746339745
23.6 35.571662753918915
24.0 38.8861845050195
25.0 39.74313939533782
25.8 40.015083142438826
26.5 39.61508314243885
27.2 38.91508314243886
28.0 38.42979499755906
29.0 38.02979499755905
30.0 37.55840584504061
30.7 37.515083142438826
31.5 38.11508314243885
32.5 39.78748929892039
33.5 42.98748929892044
34.5 46.98748929892044
35.5 51.58748929892043
36.5 55.20229476693693
37.5 58.28748929892039
38.7 60.98748929892044
40.0 63.48748929892041
41.2 66.20229476693693
42.5 68.90229476693692
43.7 71.50229476693693
45.0 73.90229476693692
46.2 75.90229476693692
47.5 77.64675150375353
48.7 79.20229476693692
50.0 80.63175513861907
51.5 81.87525122642455
53.0 82.97525122642456
54.5 83.94675150375355
56.0 84.74675150375354
58.0 85.37525122642457
60.0 85.73175513861908
61.5 85.97525122642458
63.0 86.2048949937362
65.0 86.4048949937362
67.0 86.57525122642456
69.0 86.77525122642457
71.0 87.00489499373622
73.0 87.24675150375354
75.0 87.60489499373621
77.5 87.80489499373621
80.0 88.00489499373622
82.5 88.14675150375355
85.0 88.21998423401445
87.5 88.24675150375354
90.0 88.11998423401444
92.5 87.87525122642457
95.0 87.44675150375355
97.5 87.10489499373621
100.0 86.84865957364794
103.0 86.81998423401444
106.0 87.07848478147015
109.0 87.31998423401443
112.0 87.61998423401444
115.0 87.81998423401444
118.0 87.99366590096781
122.0 88.01998423401443
125.0 87.91998423401444
128.0 87.81998423401444
132.0 87.75000634017073
136.0 87.61998423401444
140.0 87.41998423401442
145.0 87.15000634017072
150.0 86.79366590096782
155.0 86.85000634017072
160.0 87.25000634017071
165.0 87.52386986096212
170.0 87.5652871599955
175.0 87.49366590096783
180.0 87.29366590096781
185.0 86.99366590096783
190.0 86.63924275721992
195.0 86.43924275721992
200.0 86.29366590096781
206.0 85.9392427572199
212.0 85.62386986096213
218.0 86.19366590096782
224.0 87.23924275721991
230.0 87.73924275721991
236.0 87.8677916354448
240.0 87.83924275721992
250.0 87.73924275721991
258.0 87.56779163544479
265.0 87.43924275721992
272.0 87.3392427572199
280.0 87.38336396340043
290.0 87.4136394060688
300.0 87.4136394060688
307.0 87.32940676691626
315.0 87.2136394060688
325.0 87.1136394060688
335.0 87.06005936857912
345.0 86.90433100962669
355.0 86.7351604799582
365.0 86.63516047995819
375.0 86.8351604799582
387.0 87.05121482311348
400.0 87.0106896630263
412.0 86.6268345531296
425.0 86.00287628300403
437.0 85.33443179205895
450.0 84.77455785944568
462.0 84.48279645161534
475.0 84.38279645161535
487.0 84.47640057047572
500.0 84.67640057047572
515.0 84.72579638388721
530.0 84.80343598990848
545.0 85.00343598990848
560.0 84.68147278830732
580.0 84.0988865779858
600.0 83.79888657798578
615.0 83.8319538584431
630.0 83.87740200741133
650.0 83.97740200741136
670.0 84.28147278830733
690.0 84.7988865779858
710.0 85.48147278830731
730.0 85.67091054784845
750.0 85.25378373474548
775.0 84.07640057047573
800.0 82.99942293182198
825.0 83.05086213388186
850.0 83.55086213388186
875.0 84.00287628300401
900.0 84.40287628300402
925.0 84.65086213388186
950.0 84.69942293182199
975.0 84.57640057047571
1000.0 84.37091054784845
1030.0 84.38147278830732
1060.0 84.34956693475489
1090.0 84.32833223333886
1120.0 84.25923203800296
1150.0 84.1574120312225
1180.0 84.2719469475759
1220.0 84.2719469475759
1250.0 83.95268458216536
1280.0 83.5996394049785
1320.0 83.55359703362923
1360.0 83.75359703362923
1400.0 83.79156994449546
1450.0 83.62532936705037
1500.0 83.20669169661839
1550.0 82.898717831455
1600.0 83.30398445169291
1650.0 83.59333061072999
1700.0 83.31706355779998
1750.0 83.06137115602617
1800.0 82.8178033743861
1850.0 82.55326979616807
1900.0 82.66222858701515
1950.0 83.05378436172481
2000.0 83.35736244854452
2060.0 83.43137892702309
2120.0 83.51765297607173
2180.0 83.3313789270231
2240.0 83.30522633030381
2300.0 83.08572765253756
2360.0 82.32974030129488
2400.0 82.41297077765724
2500.0 82.81391518007804
2580.0 82.68368307650226
2650.0 82.89286247570716
2720.0 83.07806908283763
2800.0 83.36132074204187
2900.0 83.45426679840014
3000.0 83.14514490518248
3070.0 83.41607921074326
3150.0 83.90567373100633
3250.0 83.52102004113928
3350.0 82.99301272774552
3450.0 83.14047162239369
3550.0 83.94410977534069
3650.0 84.22208305555658
3750.0 83.86505777327828
3870.0 83.93099986782545
4000.0 83.69491061232308
4120.0 83.60031700882806
4250.0 83.55144669314043
4370.0 83.33423059269153
4500.0 83.76200711867814
4620.0 83.51271698958466
4750.0 83.01310069131877
4870.0 83.2825298294867
5000.0 83.53172987990693
5150.0 83.47303373795778
5300.0 83.13096665919075
5450.0 83.30254002562907
5600.0 83.96036726435811
5800.0 83.78007057094092
6000.0 83.31075774180249
6150.0 83.51117989834636
6300.0 83.52364186714605
6500.0 83.23137765957772
6700.0 83.67088393708823
6900.0 84.26120041263559
7100.0 83.78173256942891
7300.0 82.96679520180838
7500.0 82.83596249029561
7750.0 82.51505318401405
8000.0 82.92235553622525
8250.0 83.58064504944178
8500.0 84.3029349850616
8750.0 84.02770641040748
9000.0 85.26804778356451
9250.0 85.8337588542625
9500.0 85.12035807861662
9750.0 84.70737555156369
10000.0 86.04019117009655
10300.0 87.40563604993064
10600.0 86.7841748291555
10900.0 85.71587028886242
11200.0 85.0464361708015
11500.0 84.74552306784517
11800.0 82.93130097102566
12200.0 81.93912173464794
12500.0 82.14939870346556
12800.0 81.93620787226234
13200.0 81.60043205118494
13600.0 84.39285122785161
14000.0 85.90510590440522
14500.0 85.669173533919
15000.0 84.51283018060082
15500.0 81.83772675822337
16000.0 76.25468460156178
16500.0 78.2148254645416
17000.0 79.76316237339192
17500.0 80.44022582125474
18000.0 79.1235389787707
18500.0 69.26265336824363
19000.0 63.81293620407928
19500.0 66.15556697297114
