Freq "Rear Wall Bounce"
22.4 25.742622960754872
23.0 26.496092294042043
23.6 34.17336127064969
24.0 37.428119594572124
25.0 38.25513518847809
25.8 38.43288546715421
26.5 37.99734825514004
27.2 37.19734825514006
28.0 36.68773282859003
29.0 36.20999141301105
30.0 35.67787134183372
30.7 35.509991413011036
31.5 36.10040396900921
32.5 37.69057124511606
33.5 40.83462239774401
34.5 44.73462239774402
35.5 49.2937029914974
36.5 52.83462239774401
37.5 55.824866929040766
38.7 58.45249193403991
40.0 60.89546313520107
41.2 63.51872659062995
42.5 66.2087069781994
43.7 68.7087069781994
45.0 71.04418467193531
46.2 72.98881696341225
47.5 74.66952683376832
48.7 76.14539853320608
50.0 77.52468964984375
51.5 78.69527410281744
53.0 79.7591072633522
54.5 80.6638392700843
56.0 81.41870991133484
58.0 81.97128881893431
60.0 82.27600757862353
61.5 82.48993675042684
63.0 82.66471375181926
65.0 82.78993675042683
67.0 82.91167892563361
69.0 83.07087157921391
71.0 83.2597621718567
73.0 83.49753201058917
75.0 83.785141509382
77.5 83.9258156170723
80.0 84.09753201058918
82.5 84.19753201058917
85.0 84.29753201058917
87.5 84.2669545257879
90.0 84.09753201058918
92.5 83.78813609280954
95.0 83.34822519965121
97.5 82.92941475170026
100.0 82.70200950026299
103.0 82.63893843513848
106.0 82.8389384351385
109.0 83.05364777489937
112.0 83.32941475170028
115.0 83.50702224678358
118.0 83.61963731394253
122.0 83.62452366460289
125.0 83.50091804449978
128.0 83.38682000060787
132.0 83.24878391862775
136.0 83.06344147130845
140.0 82.86344147130846
145.0 82.49743174397315
150.0 82.15256664878132
155.0 82.13095473376491
160.0 82.49720801821307
165.0 82.72718466302834
170.0 82.69202652841066
175.0 82.57403992909612
180.0 82.352108023423
185.0 81.96779998740418
190.0 81.54833361087911
195.0 81.2636960091779
200.0 81.0562312957059
206.0 80.61554347487522
212.0 80.19473072319633
218.0 80.69020767568247
224.0 81.68562782203608
230.0 82.0522345134271
236.0 82.0551832164738
240.0 81.93460432520398
250.0 81.71855919043331
258.0 81.38441583088172
265.0 81.11370979950739
272.0 80.88774894566957
280.0 80.74700896413195
290.0 80.61684955423446
300.0 80.4498149950109
307.0 80.20370871155221
315.0 79.86821181429436
325.0 79.59899446309574
335.0 79.34541148724055
345.0 79.02758062668029
355.0 78.64440936588666
365.0 78.39322880268774
375.0 78.38356694735752
387.0 78.41051099663736
400.0 78.21400953213869
412.0 77.66177484825614
425.0 76.8217901433422
437.0 75.96185328583417
450.0 75.18819630820545
462.0 74.65207036147912
475.0 74.26220946043942
487.0 74.05788685721838
500.0 74.02714239760029
515.0 73.73895246657027
530.0 73.54233715761752
545.0 73.429829938042
560.0 72.91622631562737
580.0 72.16399658925742
600.0 71.77194727139391
615.0 71.72812284459025
630.0 71.75902730568994
650.0 71.93636010155038
670.0 72.30237511309326
690.0 72.91616566058734
710.0 73.67911075617135
730.0 73.94686717317248
750.0 73.57185877425088
775.0 72.51578118430002
800.0 71.4869276128055
825.0 71.56997355693431
850.0 72.11208965217277
875.0 72.47471889233208
900.0 72.63379717609241
925.0 72.52258653980154
950.0 72.03922544165292
975.0 71.24724323257779
1000.0 70.37925242731319
1030.0 69.69861142787221
1060.0 68.99181047020132
1090.0 68.32545636502967
1120.0 67.60293154679522
1150.0 66.92648487320194
1180.0 66.54130138118104
1220.0 66.21915950425476
1250.0 65.75749689523957
1280.0 65.47347348763758
1320.0 65.50033695535642
1360.0 65.6335025025101
1400.0 65.46855212044787
1450.0 64.86787825972202
1500.0 64.02877336634457
1550.0 63.41358763989042
1600.0 63.6943708156647
1650.0 64.19659492105323
1700.0 64.15704765723181
1750.0 63.9795341222829
1800.0 63.50841673202781
1850.0 62.66072932771529
1900.0 61.80279410035344
1950.0 61.172276638331155
2000.0 60.94393396597691
2060.0 61.190699146021544
2120.0 61.7950189786295
2180.0 62.130537985551356
2240.0 62.19237019497821
2300.0 61.59243525808206
2360.0 60.21354662623047
2400.0 59.85935176400214
2500.0 60.08245667598682
2580.0 60.06060848697176
2650.0 60.22251533437601
2720.0 60.25199698825749
2800.0 60.50536042763402
2900.0 60.495912063387735
3000.0 59.757831128017145
3070.0 59.77345309393512
3150.0 60.99362071655618
3250.0 62.18402793090003
3350.0 62.79845535110313
3450.0 63.13836706493869
3550.0 63.183486741628016
3650.0 62.028095269434786
3750.0 59.487430858066844
3870.0 57.518557468759084
4000.0 56.02232926661701
4120.0 54.983396114826306
4250.0 54.46465446718166
4370.0 54.722748790220734
4500.0 56.86641114624048
4620.0 58.151306140775986
4750.0 58.136941103679575
4870.0 57.944109310967846
5000.0 57.420956551379945
5150.0 57.036431886902236
5300.0 56.82204737305413
5450.0 55.54927678182979
5600.0 55.084277104253104
5800.0 55.33476237860465
6000.0 56.964287023445806
6150.0 57.4884971621391
6300.0 55.429973006045046
6500.0 53.42551813553423
6700.0 53.47346964360686
6900.0 52.927987624024595
7100.0 51.2914098667129
7300.0 51.598864733365545
7500.0 52.727683118466175
7750.0 53.08509600990875
8000.0 54.159115402310604
8250.0 55.33546890369071
8500.0 54.93483082708293
8750.0 54.75256716822794
9000.0 54.81983669598078
9250.0 52.853964292997475
9500.0 52.627359208095086
9750.0 50.15646735394263
10000.0 52.80451190510804
10300.0 54.39377788502783
10600.0 54.6034970950749
10900.0 51.94083930334473
11200.0 49.377997586321285
11500.0 46.465426291682334
11800.0 40.321571318170655
12200.0 44.92889583545626
12500.0 48.03572007713858
12800.0 49.267131656046914
13200.0 47.06498770031418
13600.0 46.45816795637661
14000.0 47.29174935455744
14500.0 44.71566468907987
15000.0 40.86178824618163
15500.0 41.48432789666289
16000.0 39.52987037644267
16500.0 42.590363572754214
17000.0 40.07942244878099
17500.0 38.86969572873845
18000.0 36.82852849286563
18500.0 31.17483421658146
19000.0 21.34060575939553
19500.0 30.887140202908554
