Freq "Front Wall Bounce"
22.4 11.448312603448642
23.0 12.531446654527315
23.6 13.467948261287177
24.0 14.254904184281656
25.0 15.05692201806309
25.8 17.112735035509928
26.5 19.02329841753098
27.2 20.561089642711124
28.0 21.858100329557146
29.0 23.00011861396709
30.0 24.029053709865707
30.7 25.639527402100498
31.5 27.48374832548032
32.5 28.80221218682351
33.5 29.82809754588331
34.5 30.615530928839036
35.5 31.53100265633492
36.5 33.137244202553035
37.5 34.32791206253347
38.7 35.20961104773542
40.0 35.97151909719901
41.2 37.43918368706346
42.5 39.230130440615454
43.7 40.5908592886895
45.0 41.6380868479485
46.2 42.95319842893139
47.5 44.54501918506537
48.7 45.85445845404848
50.0 47.0419267292437
51.5 48.59800933006588
53.0 50.08349197400025
54.5 51.39547955266622
56.0 53.13627855125017
58.0 55.192803962360045
60.0 56.86971169593434
61.5 58.410335929640524
63.0 59.850474495653486
65.0 61.07636730373572
67.0 62.4990624260635
69.0 63.850353650945834
71.0 65.11782435194364
73.0 66.48506334766898
75.0 67.72506740094565
77.5 68.809330268127
80.0 69.73609229673596
82.5 70.75003474984103
85.0 71.82042663162235
87.5 72.74806480973774
90.0 73.54806480973775
92.5 74.21811695082701
95.0 74.77583603644419
97.5 75.40439170544057
100.0 76.06131431107562
103.0 76.64772512071126
106.0 77.23277583407432
109.0 77.91877777368167
112.0 78.51911973433528
115.0 78.9480495217841
118.0 79.33344218840907
122.0 79.64838918543907
125.0 79.91976536706127
128.0 80.06197630133272
132.0 80.21976536706129
136.0 80.36197630133273
140.0 80.39030170943306
145.0 80.4470760738282
150.0 80.44675160003173
155.0 80.44675160003173
160.0 80.39030170943306
165.0 80.3613143110756
170.0 80.28963653908882
175.0 80.2613143110756
180.0 80.20439170544057
185.0 80.20439170544057
190.0 80.18997296585314
195.0 80.18997296585314
200.0 80.18997296585314
206.0 80.27647329301836
212.0 80.27647329301836
218.0 80.37647329301835
224.0 80.40603059667619
230.0 80.52039621067675
236.0 80.54965708909305
240.0 80.62233362054738
250.0 80.6369783019972
258.0 80.62362417702397
265.0 80.55388135040616
272.0 80.46910420962129
280.0 80.38427389610527
290.0 80.29974227114826
300.0 80.18717329791855
307.0 80.1295226891199
315.0 80.07600184242791
325.0 80.06008557904906
335.0 80.06008557904906
345.0 80.05781814701439
355.0 80.07201375320875
365.0 80.11286472989067
375.0 80.15447908964885
387.0 80.05316781833913
400.0 80.05283625171279
412.0 80.00924184424298
425.0 79.85316781833912
437.0 79.79702860825216
450.0 79.71210123765184
462.0 79.65316781833913
475.0 79.65666177407718
487.0 79.72874501529036
500.0 79.81371437081111
515.0 79.90127343075339
530.0 79.91839274960101
545.0 79.95084476121096
560.0 79.90909084014179
580.0 79.85397544896183
600.0 79.8222371760649
615.0 79.79348073098465
630.0 79.87831853890071
650.0 79.89073336290399
670.0 79.83296993659712
690.0 79.80636049667822
710.0 79.72140082954238
730.0 79.63258861932312
750.0 79.58901116117312
775.0 79.57134577573883
800.0 79.54313860326914
825.0 79.48361583218434
850.0 79.49974227114825
875.0 79.61256646684102
900.0 79.84360456004976
925.0 80.00233920672326
950.0 80.10558577206307
975.0 80.0948532722184
1000.0 79.91659193538536
1030.0 79.66694540634877
1060.0 79.48821343350994
1090.0 79.48344064108399
1120.0 79.52237397430957
1150.0 79.60054719961478
1180.0 79.67266926745322
1220.0 79.61167844390565
1250.0 79.46698871866029
1280.0 79.29287444931128
1320.0 79.23943430850237
1360.0 79.21385509836153
1400.0 79.11385509836154
1450.0 78.99545037521031
1500.0 78.95452020184746
1550.0 79.01402185308778
1600.0 79.01402185308778
1650.0 79.11402185308776
1700.0 79.0323482067153
1750.0 79.00478853732548
1800.0 79.0600800869125
1850.0 79.08930453287981
1900.0 79.0765316341038
1950.0 78.9571041491308
2000.0 78.84479595276287
2060.0 78.85010687383021
2120.0 78.97221716167024
2180.0 79.15553478715334
2240.0 79.30045863375648
2300.0 79.28845812231624
2360.0 79.18140130530122
2400.0 79.13733090858307
2500.0 79.02322782336775
2580.0 78.92726859805147
2650.0 78.82726880820991
2720.0 78.41050708114453
2800.0 77.82367617168998
2900.0 77.49850398009468
3000.0 77.26805077159253
3070.0 76.76006641710038
3150.0 76.26357578332129
3250.0 76.21987780986612
3350.0 76.45096678248684
3450.0 76.53902676710081
3550.0 76.58851343779342
3650.0 76.97028684889295
3750.0 77.61668916859611
3870.0 78.13982395009373
4000.0 78.37209622856213
4120.0 78.40790826695405
4250.0 78.29431123875884
4370.0 78.27732255263894
4500.0 78.34742456414035
4620.0 78.4054110978535
4750.0 78.16506542408287
4870.0 77.63091139334342
5000.0 77.04433843581167
5150.0 76.53696512432742
5300.0 76.52685486129151
5450.0 77.24686632696512
5600.0 78.16619211427296
5800.0 78.85829703289086
6000.0 78.77339143521067
6150.0 77.84511723458266
6300.0 77.00307641738604
6500.0 76.52339034140957
6700.0 76.29149276654687
6900.0 76.52847749603846
7100.0 77.6972696986693
7300.0 78.62190172128791
7500.0 78.81239319192787
7750.0 78.82237775418218
8000.0 78.68244254828227
8250.0 78.1855097519724
8500.0 77.50286600762188
8750.0 76.77827465278662
9000.0 76.28095892512856
9250.0 76.1917160109826
9500.0 76.55816021461098
9750.0 77.16756600392453
10000.0 77.50497969426563
10300.0 77.58155054761873
10600.0 77.50671614985495
10900.0 77.43411602079519
11200.0 77.43964088231579
11500.0 77.33210286125288
11800.0 77.15363407985794
12200.0 77.21521434245957
12500.0 77.41744136807782
12800.0 77.71529489612412
13200.0 77.62344035807652
13600.0 77.04952471820039
14000.0 76.47350610584343
14500.0 76.34417859307771
15000.0 76.39005371944641
15500.0 76.29622368856015
16000.0 76.20154955639407
16500.0 76.21015238830054
17000.0 76.34196087277962
17500.0 76.37391221880243
18000.0 75.85232683519489
18500.0 75.18320879635658
19000.0 74.29196621682162
19500.0 73.77841165291724
