Freq "Sound Power"
22.4 -1.8372940307911136
23.0 -0.646994940121786
23.6 0.8181673860110692
24.0 4.256551346617286
25.0 7.590262190609977
25.8 10.905110690107378
26.5 14.893245137093444
27.2 19.077060264527788
28.0 22.443032852738682
29.0 25.91938638144437
30.0 27.14622552457
30.7 27.073718264127635
31.5 28.3726078110371
32.5 30.702349739031675
33.5 32.49923304849811
34.5 34.304702979813115
35.5 36.47598369052305
36.5 38.9257608918404
37.5 41.04491639050305
38.7 44.540022483571036
40.0 48.383777840766115
41.2 51.451207720279896
42.5 50.378939496263186
43.7 50.24295705425773
45.0 51.300558649714546
46.2 53.90264379531227
47.5 55.83518076270927
48.7 57.40415417302172
50.0 59.22250348802068
51.5 61.85306050396876
53.0 64.41087368012255
54.5 66.88368243853624
56.0 69.12831300677102
58.0 71.6481668094848
60.0 73.85097641129603
61.5 76.02777516915828
63.0 78.07443593969963
65.0 79.97928722579488
67.0 81.49363419070265
69.0 82.76331707931533
71.0 83.84112676719866
73.0 84.73762164519142
75.0 85.50833826376619
77.5 86.14611444612122
80.0 86.69805230467651
82.5 87.12682840238476
85.0 87.39268354598633
87.5 87.52055484598327
90.0 87.6649985806803
92.5 87.78474417233224
95.0 87.85644224445005
97.5 87.90304890214122
100.0 87.82467886481918
103.0 87.71908343812056
106.0 87.61073626672193
109.0 87.44539060440157
112.0 87.35713676136697
115.0 87.16898087219113
118.0 87.08541391774905
122.0 87.02876933288925
125.0 87.02761880443515
128.0 87.05751331341806
132.0 87.09567241291982
136.0 87.07341687810468
140.0 87.0606684422082
145.0 86.95055497543565
150.0 86.83262162569788
155.0 86.63959672895085
160.0 86.48790745309593
165.0 86.46039555354818
170.0 86.40953927376172
175.0 86.5227544409474
180.0 86.76408378753294
185.0 86.85918354877136
190.0 86.84266289294851
195.0 86.68202526131444
200.0 86.35470457971874
206.0 85.95174791923554
212.0 85.55607060971951
218.0 85.27031620490102
224.0 85.18303624397156
230.0 85.11322804352851
236.0 84.92368323747614
240.0 84.75209845159517
250.0 84.71588857981082
258.0 84.90005455911633
265.0 85.12417505129015
272.0 85.28117623962613
280.0 85.52557885504048
290.0 85.50394288487679
300.0 85.1578191782272
307.0 84.88456630245093
315.0 84.594265603983
325.0 84.29112145789168
335.0 84.04427972449241
345.0 83.82593264227658
355.0 83.76941473321874
365.0 83.93230947618879
375.0 83.86086032858198
387.0 83.43864333222618
400.0 83.00148129251077
412.0 82.69127144208527
425.0 82.69202575024998
437.0 83.00076182261449
450.0 83.14076123332235
462.0 83.02950788879751
475.0 82.8938787015562
487.0 82.74652744234776
500.0 82.4282061419921
515.0 82.12326649900682
530.0 81.44186675883078
545.0 80.86190767674556
560.0 80.5197870743083
580.0 80.30280864801081
600.0 80.28706220185815
615.0 80.0101687398144
630.0 79.534219559563
650.0 79.53965613630244
670.0 79.97908977286248
690.0 79.69347254408827
710.0 78.83843852912257
730.0 78.27312765625749
750.0 78.61007479234964
775.0 78.8930980485704
800.0 78.58437781068285
825.0 78.23539735064666
850.0 77.9743514956097
875.0 77.22250462084082
900.0 76.53696136035774
925.0 76.39964174052764
950.0 76.72022907727012
975.0 76.49297327037458
1000.0 76.25132247965487
1030.0 76.73108772465994
1060.0 77.12008766626737
1090.0 77.43646317425068
1120.0 78.06611799380228
1150.0 78.65202500726282
1180.0 78.62689353076068
1220.0 78.9045417758886
1250.0 78.83810136955617
1280.0 79.0563369354816
1320.0 79.59553274636411
1360.0 79.56780861071753
1400.0 78.30253151420762
1450.0 77.47409135991113
1500.0 76.684542859586
1550.0 76.23192240624748
1600.0 76.07633380670696
1650.0 75.69390042632956
1700.0 75.79401342158619
1750.0 76.54399622851783
1800.0 76.97879689662072
1850.0 76.95548362195704
1900.0 77.08549129298412
1950.0 77.43840023491192
2000.0 77.51925155501117
2060.0 77.8244292940061
2120.0 77.13486346348331
2180.0 76.72950616026888
2240.0 76.52594421333022
2300.0 76.33087799916179
2360.0 76.17608812351087
2400.0 76.34859502960019
2500.0 76.99005046876471
2580.0 77.10965514932151
2650.0 77.72963220828767
2720.0 77.9629573082873
2800.0 77.72532770316421
2900.0 77.90527759283485
3000.0 77.74775802164339
3070.0 77.25002265989967
3150.0 77.69379828459776
3250.0 77.53392602130191
3350.0 77.57129289933398
3450.0 77.28485777729959
3550.0 76.89361300422163
3650.0 76.47777813451205
3750.0 76.34901557519972
3870.0 76.47863972171633
4000.0 76.49388621812858
4120.0 77.04479662440919
4250.0 77.07941161941157
4370.0 77.36561412441365
4500.0 77.73938142347284
4620.0 77.99719857725522
4750.0 78.32644839692797
4870.0 78.2146014788507
5000.0 78.15780752556743
5150.0 77.86495231041496
5300.0 77.43612277789089
5450.0 77.33562720934626
5600.0 77.26261175233472
5800.0 77.2704809595605
6000.0 77.39392310661579
6150.0 77.32421517398748
6300.0 77.18709178710706
6500.0 77.3643845389097
6700.0 77.73268591040448
6900.0 77.99759065718321
7100.0 78.19173202458039
7300.0 78.44684177582359
7500.0 78.68012808267287
7750.0 78.31300681876547
8000.0 78.13327746975445
8250.0 77.7381410280025
8500.0 77.43035039495031
8750.0 77.12636646713851
9000.0 76.72919433762054
9250.0 76.46093124336934
9500.0 76.64222111797933
9750.0 76.89182599749249
10000.0 76.987614406249
10300.0 77.18673645971903
10600.0 77.50038816758276
10900.0 77.59507061231498
11200.0 77.3825284340298
11500.0 76.85503312590744
11800.0 76.31495206532428
12200.0 75.76606901120162
12500.0 75.35169995483015
12800.0 75.33435389413376
13200.0 75.65170622415026
13600.0 76.54602323535205
14000.0 76.95454323298925
14500.0 76.48787129832768
15000.0 75.75985312871535
15500.0 75.5937904995659
16000.0 74.96448972536935
16500.0 74.2441452354704
17000.0 74.12731236359379
17500.0 74.40779811119033
18000.0 72.4606766363659
18500.0 70.56101686432906
19000.0 69.0016865085735
19500.0 67.31296558250172
