Freq "On Axis"
20.5078 55.18000000000001
23.4375 59.0078
26.3672 62.650499999999994
29.2969 65.8689
32.2266 68.7495
35.1563 71.4116
38.0859 73.9119
41.0156 76.03970000000001
43.9453 77.9763
46.875 79.5814
49.8047 80.9103
52.7344 81.9227
55.6641 82.6781
58.5938 83.2927
61.5234 83.7619
64.4531 84.1207
67.3828 84.39409999999998
70.3125 84.6389
73.2422 84.89270000000002
76.1719 85.0983
79.1016 85.2359
82.0313 85.5419
84.9609 85.7689
87.8906 85.7578
90.8203 85.6456
93.75 85.9688
96.6797 86.1864
102.539 86.3503
105.469 86.3975
108.398 86.4812
111.328 86.6153
117.188 86.81740000000002
120.117 86.971
125.977 87.0812
128.906 87.0085
134.766 86.999
137.695 87.0234
143.555 87.0427
149.414 87.1821
155.273 87.2914
158.203 87.29929999999999
164.063 87.3626
169.922 87.2349
175.781 87.09050000000002
181.641 87.1241
190.43 87.1015
196.289 87.01570000000001
202.148 87.01589999999999
210.938 86.9372
216.797 86.8242
225.586 87.08600000000001
234.375 86.9721
240.234 86.8681
249.023 86.93780000000001
257.813 86.86769999999999
266.602 86.55429999999998
278.32 86.5063
287.109 86.5442
295.898 86.5656
307.617 86.4976
319.336 86.3841
331.055 85.9724
342.773 85.9814
354.492 86.212
366.211 86.5231
377.93 86.6075
392.578 85.7301
407.227 85.7553
421.875 85.45069999999998
436.523 85.1659
451.172 86.2507
465.82 85.8989
483.398 85.2072
500.977 85.1784
518.555 85.4965
536.133 85.6498
553.711 84.917
574.219 84.09
594.727 85.9764
615.234 87.5412
638.672 87.9213
659.18 86.9176
682.617 86.7976
706.055 86.86859999999999
732.422 86.4108
758.789 87.4414
785.156 87.5264
811.523 87.8745
840.82 87.5703
870.117 87.341
902.344 87.55250000000001
931.641 87.5502
966.797 87.2922
999.023 86.94810000000001
1034.18 85.88319999999999
1072.27 85.6574
1110.35 85.0936
1148.44 85.5058
1189.45 85.93019999999999
1230.47 85.9062
1274.41 86.0496
1318.36 85.2783
1365.23 84.7034
1415.04 84.7695
1464.84 85.06389999999999
1514.65 85.3072
1570.31 85.4114
1623.05 84.8366
1681.64 84.43690000000001
1740.23 84.3833
1801.76 85.1018
1866.21 85.22800000000001
1930.66 83.4961
2000.98 84.30080000000001
2071.29 85.412
2144.53 85.0414
2217.77 83.846
2296.88 84.5712
2378.91 85.36410000000001
2460.94 84.5437
2548.83 84.138
2639.65 83.9309
2733.4 83.9278
2827.15 84.0966
2926.76 83.8733
3032.23 83.7504
3137.7 83.6234
3249.02 83.335
3363.28 83.1498
3483.4 83.5281
3606.45 82.9081
3732.42 82.30509999999998
3864.26 82.6169
3999.02 83.5749
4139.65 84.1813
4286.13 85.09640000000002
4438.48 85.5096
4593.75 86.3511
4757.81 86.2673
4924.8 86.488
5097.66 86.6284
5279.3 86.0538
5463.87 86.2706
5657.23 85.60649999999998
5856.45 85.4959
6061.52 85.3857
6275.39 85.7752
6498.05 85.6846
6726.56 85.7088
6963.87 85.6436
7209.96 85.6054
7464.84 85.5319
7728.52 85.3254
8000.98 85.3716
8282.23 85.5042
8575.2 85.78199999999998
8876.95 85.55099999999999
9190.43 85.0743
9512.7 84.8544
9849.61 85.0803
10195.3 85.5097
10555.7 85.8132
10927.7 86.2478
11314.5 86.45089999999999
11712.9 86.2836
12126.0 86.4187
12553.7 86.3845
12996.1 86.2621
13453.1 85.7791
13927.7 84.9456
14419.9 84.1847
14929.7 83.5308
15454.1 82.8047
15999.0 82.05929999999998
16564.5 81.9614
17147.5 82.4926
17753.9 82.8072
18377.9 83.46720000000002
19028.3 84.6334
19699.2 84.9346
19998.0 84.7235
