Freq "Estimated In-Room Response"
20.5078 61.75883115646107
21.9727 64.39770044877756
23.4375 68.0001659008652
24.9023 68.68198759248125
26.3672 72.7055824036394
27.832 74.4001249139734
29.2969 76.8624322492554
30.7617 78.67491704042664
32.2266 80.72559676870894
33.6914 82.79853066490325
35.1562 84.62326840481273
36.6211 86.16402745800242
38.0859 87.61110141347075
39.5508 88.8686397021176
41.0156 89.78961666477201
42.4805 90.61415970416455
43.9453 91.2677712009326
45.4102 91.87929238944612
46.875 92.27385240489096
48.3398 92.67552936713209
51.2695 93.17399244133236
52.7344 93.35464861399487
54.1992 93.56910510837166
55.6641 93.65730978676422
58.5938 93.85620972186139
60.0586 93.97432005787684
62.9883 94.1219757159659
64.4531 94.15679166327725
67.3828 94.13214467504491
68.8477 94.19410635718812
71.7773 94.31356628373355
74.707 94.41872117294895
77.6367 94.45075205650069
79.1016 94.46622938590627
82.0312 94.44808023172378
84.9609 94.44419906808514
87.8906 94.47960211976344
90.8203 94.40150093930085
95.2148 94.49731655711722
98.1445 94.46801839397767
101.074 94.33567830181661
105.469 94.43125916822001
108.398 94.63312352720577
112.793 94.59327702115799
117.188 94.44285965344147
120.117 94.48379741567881
124.512 94.44761082637848
128.906 94.24596487291552
133.301 94.21502350393368
139.16 94.22941099538453
143.555 94.15916917880203
147.949 93.92480756816646
153.809 93.84210141933607
159.668 93.98784698529386
165.527 94.02468750146633
171.387 93.88087625537896
177.246 93.72713121451142
183.105 93.42405701259159
188.965 93.4274553545504
196.289 93.49812214203337
203.613 93.34084246753191
210.938 92.99266142650858
218.262 92.89375969609617
225.586 93.22057770132153
232.91 93.00256034925366
241.699 92.79975132489969
250.488 93.04660230969493
259.277 93.15695860183357
268.066 92.65484594178983
276.855 92.62071044647396
287.109 92.45095352844201
297.363 92.67501953943834
307.617 92.33054522982052
319.336 92.47119339280934
329.59 92.3396281179491
341.309 92.42579463917626
353.027 92.40585869733917
366.211 92.5730720409028
379.395 92.94455442908556
392.578 92.04753547315889
405.762 91.84596618096428
420.41 91.77025968756746
435.059 91.73694424447322
451.172 91.53729386007703
465.82 91.21416463261713
483.398 91.03511232959534
499.512 91.33876672693643
517.09 91.47304518835855
536.133 91.45160030810058
555.176 90.98426978932355
574.219 91.05540012043183
594.727 89.9642271615103
615.234 88.40584065502601
637.207 92.10845193446903
659.18 91.90516820653404
682.617 91.81781185555951
707.52 91.52987075424483
732.422 89.85052853640714
757.324 89.56355997427019
785.156 90.85256126354032
811.523 91.47440516397019
840.82 92.32885183733883
870.117 92.7172398422126
900.879 93.17421454520425
933.105 92.7450538189143
965.332 92.83411674763072
1000.49 92.15188804877789
1035.64 91.96202462375025
1072.27 91.03859388552804
1108.89 90.3913028704822
1148.44 90.01222734503926
1189.45 89.87452520039335
1230.47 89.91379596169634
1274.41 89.86250852289936
1319.82 90.1326195781937
1366.7 89.84474284787925
1413.57 89.25047703816844
1463.38 88.68832026414191
1516.11 87.70560729986292
1568.85 87.2046893645479
1624.51 87.81536629004023
1681.64 88.44406043268113
1741.7 89.21486480307348
1803.22 88.96239712591361
1866.21 88.26080613933897
1932.13 87.87654555884349
1999.51 88.61892284252403
2069.82 89.35999304230299
2143.07 89.33106321165319
2219.24 88.25347255589728
2296.88 87.78755839428463
2378.91 88.21904954741625
2462.4 89.56035669706284
2548.83 90.08826433535751
2639.65 89.69583285797515
2731.93 88.96220494379827
2828.61 89.37550847196903
2928.22 90.07280334556751
3030.76 90.1682288062922
3137.7 89.77348562395625
3249.02 89.34290353454114
3363.28 89.5850918537296
3481.93 90.11431849783011
3604.98 90.5206309352978
3732.42 90.76546636993257
3864.26 89.90654711935451
4000.49 89.3731263121359
4141.11 89.45886078044163
4287.6 89.22009917355976
4438.48 89.22185977874148
4595.21 89.0972325752141
4756.35 89.857709533638
4924.8 90.0502832672293
5097.66 90.12606803366359
5277.83 90.37440375950811
5463.87 90.36086544004857
5657.23 90.18770734979822
5856.45 89.97465654215938
6062.99 90.18465774779551
6276.86 90.02941731100854
6498.05 90.36724073051869
6726.56 90.24210290604891
6963.87 90.38352658701469
7209.96 90.60949251068334
7464.84 90.21148630719716
7727.05 90.45686095364246
7999.51 89.95182482123069
8282.23 89.88075007860621
8573.73 89.18688947209054
8876.95 88.66248727441226
9188.96 87.78537672458171
9514.16 87.99012070002988
9849.61 88.16993742449787
10196.8 88.17757091500042
10555.7 87.6827260955177
10927.7 87.6426436604008
11313.0 88.7154924281306
11712.9 89.23796962694601
12126.0 89.32666170329462
12553.7 89.5633706319748
12996.1 89.80255568111103
13454.6 90.04859243818414
13929.2 90.42212667348076
14419.9 90.61598243642909
14928.2 89.86582688533066
15455.6 88.87054156977035
16000.5 88.3639932952412
16564.5 88.79324294646617
17148.9 89.17083891997633
17752.4 89.31281410257014
18379.4 87.28044766468071
19026.9 85.22314968256197
19697.8 83.62267248639662
19999.5 81.85806983192245
