Freq "Estimated In-Room Response"
20.5078 61.41458721706715
21.9727 64.05345650938361
23.4375 67.65592196147128
24.9023 68.3377436530873
26.3672 72.36133846424548
27.832 74.05588097457948
29.2969 76.5181883098615
30.7617 78.33067310103273
32.2266 80.381352829315
33.6914 82.45428672550933
35.1562 84.27902446541881
36.6211 85.81978351860849
38.0859 87.26685747407684
39.5508 88.52439576272369
41.0156 89.44537272537809
42.4805 90.26991576477063
43.9453 90.92352726153868
45.4102 91.5350484500522
46.875 91.92960846549703
48.3398 92.33128542773818
51.2695 92.82974850193844
52.7344 93.01040467460095
54.1992 93.22486116897772
55.6641 93.31306584737028
58.5938 93.51196578246748
60.0586 93.63007611848293
62.9883 93.77773177657198
64.4531 93.81254772388334
67.3828 93.787900735651
68.8477 93.8498624177942
71.7773 93.96932234433962
74.707 94.07447723355503
77.6367 94.10650811710676
79.1016 94.12198544651235
82.0312 94.10383629232987
84.9609 94.09995512869124
87.8906 94.13535818036952
90.8203 94.05725699990691
95.2148 94.1530726177233
98.1445 94.12377445458374
101.074 93.99143436242268
105.469 94.08701522882609
108.398 94.28887958781183
112.793 94.24903308176405
117.188 94.09861571404754
120.117 94.1395534762849
124.512 94.10336688698457
128.906 93.90172093352162
133.301 93.87077956453977
139.16 93.88516705599059
143.555 93.81492523940811
147.949 93.58056362877254
153.809 93.49785747994216
159.668 93.64360304589992
165.527 93.68044356207241
171.387 93.53663231598503
177.246 93.38288727511751
183.105 93.07981307319768
188.965 93.08321141515648
196.289 93.15387820263945
203.613 92.99659852813798
210.938 92.64841748711466
218.262 92.54951575670226
225.586 92.87633376192761
232.91 92.65831640985972
241.699 92.45550738550575
250.488 92.702358370301
259.277 92.81271466243963
268.066 92.3106020023959
276.855 92.27646650708004
287.109 92.10670958904811
297.363 92.3307756000444
307.617 91.98630129042661
319.336 92.12694945341543
329.59 91.9953841785552
341.309 92.08155069978233
353.027 92.06161475794525
366.211 92.22882810150887
379.395 92.60031048969165
392.578 91.70329153376497
405.762 91.50172224157038
420.41 91.42601574817354
435.059 91.39270030507929
451.172 91.19304992068312
465.82 90.86992069322321
483.398 90.69086839020142
499.512 90.99452278754251
517.09 91.12880124896463
536.133 91.10735636870665
555.176 90.64002584992961
574.219 90.71115618103792
594.727 89.61998322211636
615.234 88.0615967156321
637.207 91.76420799507511
659.18 91.56092426714014
682.617 91.47356791616558
707.52 91.18562681485092
732.422 89.5062845970132
757.324 89.21931603487627
785.156 90.50831732414642
811.523 91.13016122457627
840.82 91.9846078979449
870.117 92.37299590281869
900.879 92.82997060581032
933.105 92.40080987952038
965.332 92.48987280823678
1000.49 91.80764410938399
1035.64 91.61778068435635
1072.27 90.69434994613414
1108.89 90.04705893108827
1148.44 89.66798340564536
1189.45 89.53028126099943
1230.47 89.56955202230242
1274.41 89.51826458350544
1319.82 89.78837563879976
1366.7 89.50049890848531
1413.57 88.90623309877454
1463.38 88.34407632474799
1516.11 87.361363360469
1568.85 86.86044542515397
1624.51 87.47112235064631
1681.64 88.09981649328722
1741.7 88.87062086367955
1803.22 88.6181531865197
1866.21 87.91656219994505
1932.13 87.53230161944956
1999.51 88.27467890313011
2069.82 89.01574910290907
2143.07 88.98681927225927
2219.24 87.90922861650337
2296.88 87.44331445489073
2378.91 87.87480560802231
2462.4 89.21611275766892
2548.83 89.74402039596359
2639.65 89.35158891858121
2731.93 88.61796100440436
2828.61 89.03126453257511
2928.22 89.72855940617359
3030.76 89.82398486689829
3137.7 89.42924168456234
3249.02 88.9986595951472
3363.28 89.24084791433566
3481.93 89.77007455843618
3604.98 90.17638699590387
3732.42 90.42122243053866
3864.26 89.5623031799606
4000.49 89.02888237274198
4141.11 89.11461684104772
4287.6 88.87585523416583
4438.48 88.87761583934754
4595.21 88.75298863582017
4756.35 89.51346559424407
4924.8 89.7060393278354
5097.66 89.78182409426967
5277.83 90.03015982011419
5463.87 90.01662150065464
5657.23 89.84346341040428
5856.45 89.63041260276546
6062.99 89.8404138084016
6276.86 89.68517337161462
6498.05 90.02299679112475
6726.56 89.89785896665501
6963.87 90.03928264762078
7209.96 90.26524857128942
7464.84 89.86724236780324
7727.05 90.11261701424854
7999.51 89.60758088183678
8282.23 89.53650613921229
8573.73 88.84264553269662
8876.95 88.31824333501835
9188.96 87.4411327851878
9514.16 87.64587676063596
9849.61 87.82569348510398
10196.8 87.83332697560651
10555.7 87.33848215612377
10927.7 87.29839972100686
11313.0 88.37124848873668
11712.9 88.8937256875521
12126.0 88.98241776390071
12553.7 89.21912669258089
12996.1 89.4583117417171
13454.6 89.70434849879024
13929.2 90.07788273408684
14419.9 90.27173849703519
14928.2 89.52158294593673
15455.6 88.52629763037643
16000.5 88.01974935584728
16564.5 88.44899900707225
17148.9 88.8265949805824
17752.4 88.96857016317622
18379.4 86.93620372528677
19026.9 84.87890574316806
19697.8 83.2784285470027
19999.5 81.51382589252853
