Freq "Front Wall Bounce"
22.4 23.070517775819127
23.0 25.669203793859907
23.6 27.676063506356826
24.0 29.565277904814906
25.0 32.03335206622444
25.8 34.075932491589725
26.5 35.74357990091664
27.2 37.215846811118126
28.0 38.80978328620577
29.0 40.65355057827128
30.0 42.017615275069545
30.7 43.25896040114512
31.5 45.21709837392598
32.5 46.7673809233618
33.5 48.09180227473817
34.5 49.61621114738941
35.5 50.87226328490462
36.5 52.21949268091913
37.5 53.65663320789341
38.7 55.404471734101946
40.0 57.650884130102554
41.2 59.895752981338575
42.5 62.447751652832864
43.7 65.30331928613919
45.0 67.81541858004539
46.2 69.88651449586095
47.5 71.55742449135815
48.7 73.25742449135815
50.0 74.843465086979
51.5 76.4013081360778
53.0 77.9157312616482
54.5 79.47394240304028
56.0 81.36102474302639
58.0 83.11834583164506
60.0 84.73338849099713
61.5 86.49076544340905
63.0 88.41998423401444
65.0 90.5048949937362
67.0 92.51998423401444
69.0 94.51998423401443
71.0 95.863597780615
73.0 96.43434557076813
75.0 96.71998423401445
77.5 96.6500063401707
80.0 96.41998423401444
82.5 96.03502122931326
85.0 95.81998423401443
87.5 95.61998423401442
90.0 95.29366590096782
92.5 95.09366590096782
95.0 94.96528715999551
97.5 94.93924275721992
100.0 94.95354065498238
103.0 94.8677916354448
106.0 94.73924275721991
109.0 94.63924275721992
112.0 94.5136394060688
115.0 94.4264599493329
118.0 94.5136394060688
122.0 94.71363940606881
125.0 94.92940676691626
128.0 95.3136394060688
132.0 95.7136394060688
136.0 95.97428900949672
140.0 96.1600593685791
145.0 96.29019962129802
150.0 96.30433100962667
155.0 96.25121482311347
160.0 96.2106896630263
165.0 96.08242230727825
170.0 95.958217088195
175.0 95.75821708819498
180.0 95.45086213388187
185.0 95.05086213388186
190.0 94.56761108534184
195.0 93.99942293182198
200.0 93.37640057047572
206.0 92.79343859806336
212.0 92.4821891803392
218.0 92.52076211162324
224.0 92.82076211162325
230.0 93.27118930448192
236.0 93.76751662947582
240.0 94.14636972502741
250.0 94.49807735841964
258.0 94.7962315366465
265.0 95.0321436294647
272.0 95.0254086662141
280.0 94.71260813445097
290.0 94.21831695680805
300.0 93.57893202662692
307.0 92.90940953245332
315.0 92.41051640694208
325.0 92.11051640694207
335.0 92.24290442823103
345.0 92.51260813445099
355.0 92.91260813445098
365.0 93.74327151658844
375.0 94.52453972000606
387.0 94.18358709116131
400.0 93.12327630176908
412.0 92.83259283823477
425.0 92.24505370485437
437.0 93.20790616008256
450.0 93.91117093961843
462.0 94.25453134155828
475.0 94.43410014671491
487.0 94.70622291351226
500.0 94.85883382854445
515.0 94.83955895406821
530.0 94.92677707819622
545.0 94.99521974978775
560.0 95.03396948389242
580.0 94.89443997413579
600.0 94.42227762299446
615.0 93.78342146567772
630.0 93.35043531879249
650.0 93.40600030545244
670.0 93.65473870184445
690.0 93.69158929911255
710.0 93.9178176867019
730.0 94.36022835750718
750.0 94.4015710882602
775.0 93.91140885302192
800.0 93.15239259391156
825.0 92.46970936284633
850.0 92.08595094177893
875.0 92.02077985274835
900.0 92.02359783266112
925.0 92.05871419499525
950.0 92.34319480487741
975.0 92.77998732497764
1000.0 92.85890998064693
1030.0 92.68460491529376
1060.0 93.05215744552902
1090.0 93.89413307439553
1120.0 94.25329660506975
1150.0 93.81241579740013
1180.0 92.47353012050405
1220.0 91.1040189440168
1250.0 90.94355451622631
1280.0 91.73727587178153
1320.0 92.64761969550186
1360.0 93.23845239421968
1400.0 93.36750208182465
1450.0 93.28309041286144
1500.0 93.31721085083794
1550.0 93.45479512453284
1600.0 93.76727568575015
1650.0 93.84069740740476
1700.0 93.48870969638614
1750.0 93.14096033912926
1800.0 92.40374765989868
1850.0 92.1456707893102
1900.0 92.38694062279558
1950.0 92.75467206406411
2000.0 93.26963662748831
2060.0 93.10746954990856
2120.0 92.6308140316819
2180.0 92.06164902459784
2240.0 91.64240694059018
2300.0 91.75459599957509
2360.0 92.70983595179854
2400.0 94.22016299315693
2500.0 94.63685071255965
2580.0 94.06784670256303
2650.0 92.88598466071471
2720.0 92.32983855606241
2800.0 93.3686754365684
2900.0 94.37068638287991
3000.0 94.46531176869172
3070.0 94.57153406864852
3150.0 94.54645422066683
3250.0 93.89027303883552
3350.0 93.62207896098671
3450.0 92.7351340756716
3550.0 92.00612836751
3650.0 91.48622974313973
3750.0 90.39334986721626
3870.0 89.89141046872973
4000.0 89.87340178803933
4120.0 89.56601387555655
4250.0 89.84822357240003
4370.0 90.45726300310993
4500.0 91.51030928272493
4620.0 92.29522374488901
4750.0 92.89672790562993
4870.0 93.71514691160132
5000.0 93.75454373099282
5150.0 93.30935062731751
5300.0 93.68468519913576
5450.0 93.6741091162951
5600.0 94.31528375436454
5800.0 95.11607007398003
6000.0 94.72783294508483
6150.0 94.53218841332057
6300.0 94.48164362871043
6500.0 93.97468392081221
6700.0 93.63277453914533
6900.0 93.16264310201552
7100.0 93.12601329334171
7300.0 94.10693744666284
7500.0 94.60014752598477
7750.0 94.83559729886828
8000.0 94.78346765552254
8250.0 93.72406702370131
8500.0 92.30340589769183
8750.0 92.01047910776211
9000.0 93.01147012393525
9250.0 94.3841026698007
9500.0 95.39783048988173
9750.0 95.15734587533585
10000.0 94.69113488055369
10300.0 95.4462231572167
10600.0 95.25778752890425
10900.0 94.55295277340002
11200.0 93.96232112421464
11500.0 93.1639824738564
11800.0 92.35749768966967
12200.0 91.68231509456945
12500.0 91.49990651014893
12800.0 91.48840592947181
13200.0 90.85670672097099
13600.0 89.85119802500732
14000.0 88.67423086653014
14500.0 86.79965837034918
15000.0 86.40835061787044
15500.0 86.63250440230696
16000.0 85.97340846380243
16500.0 87.1691031384519
17000.0 88.76577739379817
17500.0 91.70284483317937
18000.0 94.23537758106015
18500.0 94.8198341283317
19000.0 94.18084723745045
19500.0 91.37888343935755
