Freq "On Axis"
20.5078 49.5715
21.9727 50.8267
23.4375 53.06689999999999
24.9023 53.478899999999996
26.3672 55.50670000000001
27.832 57.218
29.2969 58.62850000000002
30.7617 59.53090000000002
32.2266 61.5423
33.6914 63.14280000000001
35.1562 63.957499999999996
36.6211 64.9285
38.0859 66.07290000000002
39.5508 67.1382
41.0156 68.21129999999998
42.4805 69.182
43.9453 70.1186
45.4102 70.8769
46.875 71.6738
48.3398 72.4372
51.2695 73.80899999999998
52.7344 74.3197
54.1992 74.7006
55.6641 75.0937
58.5938 75.9346
60.0586 76.2619
62.9883 76.86059999999999
64.4531 77.1556
67.3828 77.5701
68.8477 77.75779999999999
71.7773 78.1033
74.707 78.4624
77.6367 78.7614
79.1016 78.92989999999999
82.0312 79.1904
84.9609 79.4483
87.8906 79.7205
90.8203 79.9754
95.2148 80.3143
98.1445 80.5456
101.074 80.7842
105.469 81.10600000000001
108.398 81.27499999999999
112.793 81.5238
117.188 81.7799
120.117 82.0244
124.512 82.2735
128.906 82.5337
133.301 82.73390000000002
139.16 82.8979
143.555 83.0351
147.949 83.28339999999999
153.809 83.4024
159.668 83.3652
165.527 83.3173
171.387 83.4751
177.246 83.5585
183.105 83.64990000000002
188.965 83.7078
196.289 83.7263
203.613 83.676
210.938 83.74139999999998
218.262 83.85019999999999
225.586 83.6238
232.91 83.8104
241.699 83.592
250.488 83.7999
259.277 83.8148
268.066 83.71
276.855 83.7549
287.109 83.8807
297.363 84.1769
307.617 83.78870000000002
319.336 83.67810000000001
329.59 83.766
341.309 84.0614
353.027 84.278
366.211 84.0756
379.395 84.29100000000001
392.578 84.1178
405.762 83.87749999999998
420.41 84.5869
435.059 84.5624
451.172 83.9758
465.82 84.1368
483.398 84.49039999999998
499.512 84.4057
517.09 84.3496
536.133 84.3186
555.176 84.1329
574.219 84.15850000000002
594.727 84.3866
615.234 84.5997
637.207 84.5328
659.18 83.975
682.617 83.6913
707.52 84.0413
732.422 83.2379
757.324 83.1976
785.156 83.3496
811.523 82.8444
840.82 83.4214
870.117 83.2289
900.879 83.4642
933.105 84.0674
965.332 83.8222
1000.49 84.13849999999998
1035.64 84.1419
1072.27 84.9492
1108.89 85.2015
1148.44 85.3636
1189.45 84.6773
1230.47 84.4776
1274.41 84.0429
1319.82 83.8705
1366.7 84.1792
1413.57 83.9068
1463.38 83.1358
1516.11 82.97340000000001
1568.85 83.2536
1624.51 83.5464
1681.64 84.2241
1741.7 84.065
1803.22 84.09149999999998
1866.21 84.259
1932.13 83.8038
1999.51 83.532
2069.82 84.4426
2143.07 85.0516
2219.24 84.6459
2296.88 84.22939999999998
2378.91 84.8756
2462.4 84.7489
2548.83 83.8368
2639.65 83.7133
2731.93 83.1591
2828.61 83.213
2928.22 82.7609
3030.76 83.6061
3137.7 83.94419999999998
3249.02 85.20449999999998
3363.28 85.0792
3481.93 85.6772
3604.98 85.0757
3732.42 85.43850000000002
3864.26 84.5288
4000.49 84.88290000000002
4141.11 84.2705
4287.6 84.6374
4438.48 84.7335
4595.21 84.8094
4756.35 84.7967
4924.8 84.42890000000001
5097.66 84.37830000000001
5277.83 83.7463
5463.87 83.8779
5657.23 84.1649
5856.45 84.198
6062.99 84.427
6276.86 84.1326
6498.05 84.0064
6726.56 83.71229999999998
6963.87 83.202
7209.96 82.494
7464.84 81.5237
7727.05 80.9343
7999.51 81.9557
8282.23 83.1459
8573.73 83.83809999999998
8876.95 84.1714
9188.96 84.3001
9514.16 84.3619
9849.61 84.2719
10196.8 83.43590000000002
10555.7 82.8702
10927.7 82.0438
11313.0 81.2794
11712.9 81.3384
12126.0 81.44509999999998
12553.7 81.9299
12996.1 82.1204
13454.6 82.2185
13929.2 83.7046
14419.9 84.6571
14928.2 85.0791
15455.6 84.5234
16000.5 83.94450000000002
16564.5 83.223
17148.9 82.53169999999999
17752.4 81.9225
18379.4 81.8919
19026.9 81.9006
19697.8 81.7427
19999.5 81.22439999999999
