Freq "Sound Power"
20.5078 49.422011350361586
21.9727 50.61075936610975
23.4375 52.87176757860958
24.9023 53.186576956542766
26.3672 55.27955900991411
27.832 56.93212125386269
29.2969 58.291599857938266
30.7617 59.26499980282118
32.2266 61.14337919039242
33.6914 62.726265968181295
35.1562 63.65757443372526
36.6211 64.65329390090609
38.0859 65.7951161443954
39.5508 66.86730183806453
41.0156 67.92469348686329
42.4805 68.8672788367203
43.9453 69.78948978241421
45.4102 70.55049106468392
46.875 71.37683924092619
48.3398 72.13695770717315
51.2695 73.47185928046785
52.7344 73.99822051852384
54.1992 74.3770247871009
55.6641 74.76979152602468
58.5938 75.5890872194353
60.0586 75.91130553215224
62.9883 76.4989402056659
64.4531 76.78774961485294
67.3828 77.2167119466972
68.8477 77.41977669867805
71.7773 77.76257276724519
74.707 78.124832805205
77.6367 78.41379700135886
79.1016 78.58364336138561
82.0312 78.84949426024602
84.9609 79.09791762441394
87.8906 79.37022989118283
90.8203 79.61949430226068
95.2148 79.93357354627501
98.1445 80.14868586083324
101.074 80.36666013813796
105.469 80.68773229469672
108.398 80.86145422107212
112.793 81.11500734607584
117.188 81.33838331864288
120.117 81.56774953012699
124.512 81.81273874591848
128.906 82.020226015342
133.301 82.2065347831285
139.16 82.38390391189452
143.555 82.50428696487083
147.949 82.68049939422296
153.809 82.79143434835699
159.668 82.82163758047754
165.527 82.64867948871952
171.387 82.74481657611453
177.246 82.78569001565982
183.105 82.91055498292803
188.965 82.9591911493694
196.289 82.99393842030732
203.613 82.7780586229682
210.938 82.77413468221829
218.262 82.87903321544583
225.586 82.7459843687988
232.91 82.66878617417092
241.699 82.43531497035119
250.488 82.38717980558539
259.277 82.47785118339962
268.066 82.50278913305661
276.855 82.1382468279158
287.109 82.21544330421138
297.363 82.27262872916772
307.617 82.38942685774366
319.336 81.76512327643684
329.59 81.79001014042622
341.309 81.98771354758055
353.027 81.73759404830555
366.211 81.91316724791042
379.395 81.6261742954422
392.578 81.65399512959323
405.762 81.38730870272185
420.41 81.60702405884676
435.059 81.6604773760436
451.172 81.03858613280211
465.82 81.18240361975704
483.398 81.08102082946503
499.512 81.19193960109845
517.09 80.91091604994182
536.133 80.84302965250535
555.176 80.59969966573216
574.219 80.39192836650857
594.727 80.70541563002777
615.234 80.52914146726827
637.207 80.71782287052456
659.18 80.4331399051589
682.617 79.89813975117661
707.52 79.92828031732337
732.422 79.47163799988414
757.324 79.09044874626706
785.156 79.1550857136086
811.523 78.64902674786092
840.82 78.8860974298555
870.117 78.58043931571147
900.879 78.72866354229971
933.105 78.37295148053605
965.332 78.31390505834743
1000.49 77.99774724121609
1035.64 77.9714226570644
1072.27 78.3019167337337
1108.89 78.27858005904578
1148.44 78.27399178198971
1189.45 77.49712387300474
1230.47 77.12260942229587
1274.41 76.42458369722922
1319.82 76.07430193926542
1366.7 76.23494337818681
1413.57 75.93218521471212
1463.38 75.42630644578232
1516.11 74.90911689203611
1568.85 74.91673499628887
1624.51 75.43927583899267
1681.64 75.5672269968297
1741.7 75.5505762663807
1803.22 75.63710463274118
1866.21 76.28342779194308
1932.13 76.16764682862045
1999.51 75.73139134960435
2069.82 76.05283740285569
2143.07 76.57346297735847
2219.24 76.1859120793722
2296.88 76.02850941495859
2378.91 76.39818047323958
2462.4 76.27358179286998
2548.83 75.86943114885725
2639.65 75.9016192338919
2731.93 75.51158695601373
2828.61 75.34964904044539
2928.22 75.2379255351252
3030.76 75.68163999551062
3137.7 75.94846913886106
3249.02 76.76953526033965
3363.28 76.81369502276715
3481.93 76.99897598091322
3604.98 76.6588752588594
3732.42 76.64555500803614
3864.26 76.16367543633598
4000.49 76.2725804621826
4141.11 75.99190023482028
4287.6 75.96639736607682
4438.48 75.93362437625596
4595.21 75.72729138092869
4756.35 75.52198579585988
4924.8 75.23201174042417
5097.66 75.13924794248491
5277.83 74.87971572697747
5463.87 74.84015014848488
5657.23 74.73851764867887
5856.45 74.48200747910857
6062.99 74.32187515925206
6276.86 74.13932135807092
6498.05 73.97362258008069
6726.56 73.80464341503183
6963.87 73.60665093896482
7209.96 73.57828462184396
7464.84 73.92405808645297
7727.05 74.51867084370177
7999.51 74.93790177001199
8282.23 75.02513085658792
8573.73 74.91422869930967
8876.95 74.64175922271252
9188.96 74.30008590715507
9514.16 73.9635500073848
9849.61 73.78198439765505
10196.8 73.42729172178736
10555.7 73.06879240300658
10927.7 72.95210325510749
11313.0 72.9377864698375
11712.9 72.98125258399364
12126.0 73.05999906501589
12553.7 73.19675848801667
12996.1 73.27023711130764
13454.6 73.39846249335064
13929.2 73.76418419576325
14419.9 73.55163137992845
14928.2 72.95649442561545
15455.6 72.16885483255491
16000.5 71.29951550697466
16564.5 70.43752343054523
17148.9 69.75498312125761
17752.4 69.11521445538787
18379.4 68.19583826814325
19026.9 67.14897613820692
19697.8 66.36598706540026
19999.5 65.90839297918053
