Freq "Early Reflections"
20.5078 49.05608199509123
21.9727 50.901352695497565
23.4375 52.975510865211106
24.9023 53.55767375335523
26.3672 56.040403334456755
27.832 57.835842779322064
29.2969 59.57115678153646
30.7617 62.067312475030036
32.2266 64.22159281428256
33.6914 65.43627457853046
35.1562 66.7863438909354
36.6211 68.37053479720635
38.0859 70.34173721064458
39.5508 71.18599641908962
41.0156 71.97536142236459
42.4805 72.68195883852451
43.9453 73.27464910357608
45.4102 73.75459633825102
46.875 74.15418300475622
48.3398 74.53519117677531
51.2695 75.0569783289983
52.7344 75.36208405391709
54.1992 75.69231235120016
55.6641 76.02744134589824
58.5938 76.68419315154364
60.0586 77.0019487588148
62.9883 77.59272559337768
64.4531 77.84482451250997
67.3828 78.44552618943771
68.8477 78.74674928658692
71.7773 79.35474021738338
74.707 79.81982449508759
77.6367 80.20136732476541
79.1016 80.43631928034469
82.0312 80.86486071327197
84.9609 81.11748969268248
87.8906 81.35333329600964
90.8203 81.69927246025141
95.2148 81.8500175872977
98.1445 81.88556781399927
101.074 81.96631904495024
105.469 81.93557058919981
108.398 81.89596848461733
112.793 81.81775810909176
117.188 81.5534657612636
120.117 81.50939473849317
124.512 81.54733502568959
128.906 81.35583596133844
133.301 81.18924803450639
139.16 80.88890126971256
143.555 80.7305984713411
147.949 80.67077753964753
153.809 80.52999912079821
159.668 80.25205399429258
165.527 79.91986938703425
171.387 79.79724674910646
177.246 79.72248286260483
183.105 79.61360185235904
188.965 79.55045547516053
196.289 79.39420944319741
203.613 79.28249207297267
210.938 79.14424960042595
218.262 79.1749332785557
225.586 78.92758415759633
232.91 78.83566537155973
241.699 78.69146754368312
250.488 78.62637777735077
259.277 78.94016090166738
268.066 79.02951887703051
276.855 78.58147073778508
287.109 78.7200299902328
297.363 78.8951769017407
307.617 78.80768034770443
319.336 78.36340398931486
329.59 78.05182616184396
341.309 78.42538718340616
353.027 78.51400816988033
366.211 78.94491246059883
379.395 78.56814281319058
392.578 78.87346389267388
405.762 79.06489412333104
420.41 79.07359783999071
435.059 79.27730128999424
451.172 79.14961000053127
465.82 79.2720476677636
483.398 79.47925536580674
499.512 79.72108847766638
517.09 79.50739345695101
536.133 79.5313748993457
555.176 79.58514716029323
574.219 79.62293019192185
594.727 80.1069057658303
615.234 79.80100673828795
637.207 79.87156818806844
659.18 79.43013690058623
682.617 80.1047012643894
707.52 80.89371512173841
732.422 80.88157214991912
757.324 81.30115245920608
785.156 81.67561813356387
811.523 78.82540097754108
840.82 73.3809341905609
870.117 74.9536696493003
900.879 78.67423833114438
933.105 80.80324311995004
965.332 81.25085902489703
1000.49 80.97109182868294
1035.64 80.85969600497437
1072.27 80.90718068714538
1108.89 81.07620058919377
1148.44 81.75664753297852
1189.45 81.52151482285386
1230.47 80.91514608841878
1274.41 80.42278620125131
1319.82 79.74907782652197
1366.7 79.75372424798763
1413.57 79.53289096332526
1463.38 78.78450175227367
1516.11 77.94274680840604
1568.85 77.27408887014033
1624.51 77.37935171125817
1681.64 77.71906533877365
1741.7 78.37021938391825
1803.22 77.8816407787165
1866.21 77.97554811789192
1932.13 78.08066897652724
1999.51 77.85376866802702
2069.82 76.49540020998862
2143.07 77.17194731057631
2219.24 77.88177694105661
2296.88 77.37204361494842
2378.91 77.51668718370283
2462.4 77.35846807591852
2548.83 76.80258212908618
2639.65 77.69189731476095
2731.93 78.14698071971003
2828.61 78.21245720196588
2928.22 78.18940025657969
3030.76 78.5842228049967
3137.7 78.6126230431035
3249.02 78.57964963912275
3363.28 78.67974003478045
3481.93 78.93924247921638
3604.98 78.89944029697968
3732.42 79.24638830192762
3864.26 79.1914380568627
4000.49 79.34266815453715
4141.11 79.37698657161543
4287.6 79.52155303804031
4438.48 79.6852219492221
4595.21 79.67731348584495
4756.35 79.6436474243306
4924.8 79.65339303388879
5097.66 79.72392604904493
5277.83 79.60584757510554
5463.87 79.54625726303149
5657.23 79.3020519389915
5856.45 79.38934630245272
6062.99 79.48987920461778
6276.86 79.57625562621085
6498.05 80.058862262326
6726.56 79.7523307382698
6963.87 79.37004928245409
7209.96 79.37628611660531
7464.84 79.5346628641978
7727.05 79.43559886437237
7999.51 79.01354454593891
8282.23 78.75398538536832
8573.73 78.6836450948076
8876.95 78.74295499077317
9188.96 78.80217620860043
9514.16 78.90437063716344
9849.61 79.01217233654933
10196.8 79.06418600578601
10555.7 79.12664687628245
10927.7 79.08018010437918
11313.0 79.06792605848477
11712.9 79.03514204171071
12126.0 78.9687502065274
12553.7 78.95631404131692
12996.1 78.86023433713729
13454.6 78.58462124792962
13929.2 78.02901891185184
14419.9 77.2390299571149
14928.2 75.96447347287591
15455.6 78.49295855181846
16000.5 77.4384130550438
16564.5 76.4102319247131
17148.9 75.42333686485841
17752.4 74.34549222820678
18379.4 72.94072525144003
19026.9 71.5499197133059
19697.8 70.5093347657508
19999.5 70.17478114298899
