Freq "On Axis"
20.5078 48.777306060606065
21.9727 50.66190606060604
23.4375 52.77200606060606
24.9023 53.49950606060605
26.3672 55.98600606060606
27.832 57.82080606060606
29.2969 59.44550606060605
30.7617 62.04600606060606
32.2266 64.25760606060607
33.6914 65.41890606060605
35.1562 66.71680606060605
36.6211 68.40740606060606
38.0859 70.38280606060604
39.5508 71.27430606060605
41.0156 72.07210606060605
42.4805 72.79150606060605
43.9453 73.39860606060606
45.4102 73.87950606060605
46.875 74.27850606060605
48.3398 74.67210606060605
51.2695 75.23900606060604
52.7344 75.54690606060605
54.1992 75.88090606060605
55.6641 76.21710606060606
58.5938 76.88110606060604
60.0586 77.19710606060605
62.9883 77.79150606060605
64.4531 78.05350606060605
67.3828 78.65920606060604
68.8477 78.95710606060605
71.7773 79.56570606060605
74.707 80.03450606060605
77.6367 80.42080606060605
79.1016 80.65660606060605
82.0312 81.08810606060605
84.9609 81.34670606060605
87.8906 81.58710606060605
90.8203 81.95450606060605
95.2148 82.11450606060605
98.1445 82.15390606060605
101.074 82.24570606060605
105.469 82.23430606060604
108.398 82.18860606060605
112.793 82.10780606060605
117.188 81.86160606060605
120.117 81.84990606060605
124.512 81.88120606060605
128.906 81.70970606060607
133.301 81.56790606060605
139.16 81.26050606060605
143.555 81.12450606060605
147.949 81.09240606060605
153.809 80.97600606060605
159.668 80.68000606060605
165.527 80.39090606060606
171.387 80.34030606060605
177.246 80.24670606060604
183.105 80.14720606060607
188.965 80.12320606060604
196.289 79.96870606060605
203.613 79.96390606060605
210.938 79.85880606060606
218.262 79.84560606060603
225.586 79.56720606060605
232.91 79.62110606060605
241.699 79.55930606060605
250.488 79.55990606060605
259.277 79.93520606060605
268.066 79.85530606060607
276.855 79.55970606060605
287.109 79.71480606060605
297.363 80.03990606060606
307.617 79.68070606060607
319.336 79.42790606060603
329.59 79.19530606060604
341.309 79.88350606060607
353.027 80.11660606060605
366.211 80.35700606060605
379.395 79.92900606060606
392.578 80.41340606060605
405.762 80.34260606060604
420.41 80.47500606060605
435.059 80.68830606060605
451.172 80.64540606060605
465.82 80.77840606060605
483.398 80.98790606060605
499.512 81.15980606060604
517.09 80.92980606060607
536.133 80.98020606060605
555.176 81.01990606060605
574.219 81.41640606060605
594.727 81.62260606060605
615.234 81.36210606060605
637.207 80.73400606060605
659.18 80.53890606060605
682.617 82.04720606060604
707.52 83.12480606060605
732.422 82.93020606060605
757.324 83.55850606060605
785.156 83.68810606060606
811.523 79.93980606060605
840.82 71.06660606060605
870.117 77.13850606060605
900.879 81.69960606060604
933.105 83.91000606060605
965.332 84.26200606060605
1000.49 84.03320606060605
1035.64 83.86000606060605
1072.27 83.95420606060605
1108.89 84.32850606060603
1148.44 85.14380606060604
1189.45 85.06860606060604
1230.47 84.57050606060605
1274.41 84.28950606060604
1319.82 83.93880606060605
1366.7 84.25100606060604
1413.57 84.27020606060606
1463.38 83.00830606060605
1516.11 81.59150606060606
1568.85 80.59420606060604
1624.51 80.08650606060604
1681.64 79.50610606060604
1741.7 81.52190606060606
1803.22 82.62390606060606
1866.21 83.32950606060606
1932.13 83.87940606060604
1999.51 83.16510606060605
2069.82 81.99100606060605
2143.07 82.06050606060604
2219.24 82.54150606060605
2296.88 81.73230606060605
2378.91 81.66540606060605
2462.4 81.25390606060606
2548.83 80.25030606060605
2639.65 81.98940606060604
2731.93 82.41870606060606
2828.61 82.02330606060605
2928.22 81.72060606060603
3030.76 81.89320606060605
3137.7 81.47480606060606
3249.02 81.46770606060605
3363.28 81.61550606060605
3481.93 82.15140606060605
3604.98 81.16600606060605
3732.42 82.05270606060606
3864.26 81.90190606060605
4000.49 81.77680606060605
4141.11 81.55140606060604
4287.6 81.43980606060605
4438.48 82.70960606060603
4595.21 82.83260606060605
4756.35 82.63150606060606
4924.8 82.53120606060605
5097.66 82.74290606060605
5277.83 82.92180606060603
5463.87 82.96600606060605
5657.23 83.18470606060605
5856.45 83.44410606060606
6062.99 84.08110606060605
6276.86 84.50420606060605
6498.05 84.98850606060606
6726.56 84.07250606060605
6963.87 83.06840606060605
7209.96 82.86030606060606
7464.84 83.27730606060604
7727.05 83.17540606060605
7999.51 82.51380606060604
8282.23 82.40640606060605
8573.73 82.36880606060605
8876.95 82.73110606060604
9188.96 83.22450606060605
9514.16 83.55560606060607
9849.61 83.91260606060604
10196.8 83.82100606060605
10555.7 84.34920606060605
10927.7 84.25370606060605
11313.0 84.40880606060605
11712.9 84.64310606060604
12126.0 84.81530606060605
12553.7 85.23220606060605
12996.1 85.39390606060607
13454.6 85.35130606060605
13929.2 84.92410606060605
14419.9 84.28270606060605
14928.2 82.20960606060605
15455.6 86.12290606060606
16000.5 85.34390606060603
16564.5 84.52670606060605
17148.9 83.79040606060605
17752.4 82.99470606060605
18379.4 81.79530606060605
19026.9 80.78280606060605
19697.8 80.08980606060605
19999.5 80.05730606060605
