Freq "Listening Window"
22.4 -0.8694709223732815
23.0 -0.45882503729022517
23.6 0.6086596616946025
24.0 2.340679592785918
25.0 4.540679592785935
25.8 6.7406795927859235
26.5 8.640679592785958
27.2 10.240679592785952
28.0 11.551547742303299
29.0 12.973202787967452
30.0 15.119359224453959
30.7 18.130280791831424
31.5 21.373202787967458
32.5 24.052041874192142
33.5 26.052041874192142
34.5 27.70573394201456
35.5 29.1631338312949
36.5 30.552041874192113
37.5 31.827618058650685
38.7 32.827618058650685
40.0 33.6276180586507
41.2 34.585233118406265
42.5 36.827618058650685
43.7 39.78523311840625
45.0 41.9387724900739
46.2 42.960995771875716
47.5 43.960995771875716
48.7 45.660995771875704
50.0 47.66099577187573
51.5 49.66099577187573
53.0 51.660995771875704
54.5 53.56099577187571
56.0 55.337178730510644
58.0 56.8163279975234
60.0 58.63717873051063
61.5 60.960995771875716
63.0 63.337178730510644
65.0 65.73717873051065
67.0 68.03717873051065
69.0 70.33717873051064
71.0 72.19281329520847
73.0 73.49281329520848
75.0 74.23717873051064
77.5 74.93717873051064
80.0 75.73717873051065
82.5 76.09281329520847
85.0 76.29281329520846
87.5 76.6599266307902
90.0 76.91377695707034
92.5 77.21377695707034
95.0 77.79281329520846
97.5 78.23664744122931
100.0 78.61377695707034
103.0 78.99281329520848
106.0 78.99281329520848
109.0 79.21377695707035
112.0 79.81377695707033
115.0 79.59281329520847
118.0 78.69281329520847
122.0 78.56971018796763
125.0 79.76971018796763
128.0 80.46971018796764
132.0 79.89281329520848
136.0 79.66971018796762
140.0 79.86971018796761
145.0 79.84803767674975
150.0 80.26971018796762
155.0 80.76971018796763
160.0 80.79281329520848
165.0 80.26971018796762
170.0 80.19281329520847
175.0 81.06971018796763
180.0 81.46971018796764
185.0 81.39281329520846
190.0 81.89281329520847
195.0 82.34901542823474
200.0 81.84901542823475
206.0 81.34901542823474
212.0 81.14901542823475
218.0 80.89281329520847
224.0 80.58378881309228
230.0 80.24901542823474
236.0 79.90681734560614
240.0 79.82869601737451
250.0 80.10681734560615
258.0 80.44037254002035
265.0 80.74037254002035
272.0 80.81855276047123
280.0 80.87548435621876
290.0 81.07548435621878
300.0 81.07548435621878
307.0 80.99855684849737
315.0 80.89855684849736
325.0 80.87892674764835
335.0 80.87892674764835
345.0 80.79101239693367
355.0 80.7573002954609
365.0 80.83793451608317
375.0 80.89101239693366
387.0 80.75013461874148
400.0 80.55013461874148
412.0 80.33793451608318
425.0 80.15013461874149
437.0 80.03793451608317
450.0 80.0501346187415
462.0 80.0501346187415
475.0 80.07179669420505
487.0 80.11892575904014
500.0 80.17179669420507
515.0 80.27179669420507
530.0 80.39542515610898
545.0 80.5145368257961
560.0 80.63637674082395
580.0 80.76019816872662
600.0 80.86019816872663
615.0 80.96454122178746
630.0 81.02272604565722
650.0 81.0460797762514
670.0 81.00608004999671
690.0 80.90055217921947
710.0 80.75698016349011
730.0 80.50216924669499
750.0 80.18682497723621
775.0 79.7488050545073
800.0 79.27322208258497
825.0 78.77866333668108
850.0 78.33831882705837
875.0 77.98814070517565
900.0 77.98477938919096
925.0 78.19909021590549
950.0 78.69909021590547
975.0 79.30839057087296
1000.0 79.89115239120218
1030.0 80.2912656913116
1060.0 80.50228010846533
1090.0 80.40228010846533
1120.0 80.02800078577943
1150.0 79.3678315783344
1180.0 78.64234640698625
1220.0 78.135107910851
1250.0 78.01761255137397
1280.0 78.2989629425551
1320.0 78.80937025154297
1360.0 79.3234671970692
1400.0 79.80904134554952
1450.0 80.23817565579677
1500.0 80.62416565015941
1550.0 81.01613646623386
1600.0 81.2758265049611
1650.0 81.32895359862466
1700.0 81.05727790608803
1750.0 80.61103699798731
1800.0 80.11901025289315
1850.0 79.77627898272512
1900.0 79.54313202094313
1950.0 79.37724322198049
2000.0 79.14758739147801
2060.0 78.79760626785848
2120.0 78.40855605360359
2180.0 78.22352515959125
2240.0 78.2399322537449
2300.0 78.33932744358496
2360.0 78.61480754813101
2400.0 78.89524575093542
2500.0 79.07199885646415
2580.0 79.16651521179449
2650.0 79.42675524319775
2720.0 79.74602006996697
2800.0 79.92838850513941
2900.0 80.03915583764281
3000.0 80.07108242604876
3070.0 80.07604063993922
3150.0 80.07244231256023
3250.0 79.97713197327822
3350.0 79.92095081841799
3450.0 79.821464189747
3550.0 79.68210750541743
3650.0 79.50237160105388
3750.0 79.35195123157406
3870.0 79.31914733305312
4000.0 79.30096152914628
4120.0 79.12917805635003
4250.0 78.86071299016749
4370.0 78.78952728493506
4500.0 78.88709433246866
4620.0 79.13676196781716
4750.0 79.6142236217601
4870.0 80.04224293963462
5000.0 80.08014942774277
5150.0 79.7588567572499
5300.0 79.21822028203957
5450.0 78.8524463869551
5600.0 78.8341949540969
5800.0 79.26923845106377
6000.0 79.7176965400185
6150.0 80.04745872683509
6300.0 80.22608765684524
6500.0 80.1990658414488
6700.0 79.98496140646782
6900.0 79.6070409594212
7100.0 79.17475858034999
7300.0 78.55988021987386
7500.0 77.8906466533722
7750.0 77.72578956848479
8000.0 78.1443292284821
8250.0 78.81708507264098
8500.0 79.52339944495253
8750.0 79.65002429446997
9000.0 79.1834927531076
9250.0 79.09108615723756
9500.0 79.49876702586495
9750.0 80.67952056513334
10000.0 81.03025103262637
10300.0 80.35854707759695
10600.0 80.87056288435114
10900.0 81.01157972538786
11200.0 79.43731346149222
11500.0 78.48440113434039
11800.0 78.80331586718614
12200.0 78.71758062463131
12500.0 78.80007842984396
12800.0 78.56143215711236
13200.0 78.45355288545308
13600.0 78.8872657117109
14000.0 78.89864623661965
14500.0 78.7904169731765
15000.0 79.06422746772381
15500.0 79.3413777341098
16000.0 79.77921439438204
16500.0 79.5466199972045
17000.0 77.83053556671493
17500.0 77.06709864930706
18000.0 77.41890524284848
18500.0 76.97339141288732
19000.0 76.96885163682468
19500.0 76.65811883418189
