Freq "Listening Window"
22.4 -1.003648137563161
23.0 -0.5930022524801046
23.6 0.47448244650472304
24.0 2.2065023775960384
25.0 4.4065023775960555
25.8 6.606502377596044
26.5 8.506502377596021
27.2 10.106502377596044
28.0 11.41737052711342
29.0 12.839025572777572
30.0 14.985182009264108
30.7 17.996103576641545
31.5 21.239025572777578
32.5 23.917864659002262
33.5 25.917864659002234
34.5 27.57155672682468
35.5 29.028956616104992
36.5 30.417864659002262
37.5 31.693440843460834
38.7 32.693440843460806
40.0 33.49344084346082
41.2 34.451055903216385
42.5 36.693440843460834
43.7 39.651055903216374
45.0 41.80459527488405
46.2 42.826818556685836
47.5 43.826818556685836
48.7 45.52681855668585
50.0 47.526818556685825
51.5 49.52681855668585
53.0 51.52681855668585
54.5 53.42681855668583
56.0 55.203001515320764
58.0 56.68215078233352
60.0 58.50300151532076
61.5 60.826818556685836
63.0 63.203001515320764
65.0 65.60300151532076
67.0 67.90300151532075
69.0 70.20300151532076
71.0 72.05863608001859
73.0 73.3586360800186
75.0 74.10300151532077
77.5 74.80300151532077
80.0 75.60300151532076
82.5 75.9586360800186
85.0 76.1586360800186
87.5 76.52574941560033
90.0 76.77959974188046
92.5 77.07959974188046
95.0 77.6586360800186
97.5 78.10247022603942
100.0 78.47959974188046
103.0 78.85863608001858
106.0 78.85863608001858
109.0 79.07959974188047
112.0 79.67959974188047
115.0 79.4586360800186
118.0 78.55863608001859
122.0 78.43553297277775
125.0 79.63553297277774
128.0 80.33553297277776
132.0 79.75863608001859
136.0 79.53553297277774
140.0 79.73553297277775
145.0 79.71386046155988
150.0 80.13553297277775
155.0 80.63553297277774
160.0 80.65863608001858
165.0 80.13553297277775
170.0 80.0586360800186
175.0 80.93553297277775
180.0 81.33553297277774
185.0 81.25863608001859
190.0 81.75863608001858
195.0 82.21483821304487
200.0 81.71483821304486
206.0 81.21483821304487
212.0 81.01483821304485
218.0 80.75863608001858
224.0 80.4496115979024
230.0 80.11483821304488
236.0 79.77264013041626
240.0 79.69451880218462
250.0 79.97264013041628
258.0 80.30619532483045
265.0 80.60619532483047
272.0 80.68437554528136
280.0 80.74130714102888
290.0 80.94130714102889
300.0 80.94130714102889
307.0 80.86437963330748
315.0 80.76437963330748
325.0 80.74474953245848
335.0 80.74474953245848
345.0 80.6568351817438
355.0 80.62312308027103
365.0 80.70375730089329
375.0 80.7568351817438
387.0 80.6159574035516
400.0 80.41595740355162
412.0 80.20375730089329
425.0 80.01595740355161
437.0 79.90375730089329
450.0 79.9159574035516
462.0 79.9159574035516
475.0 79.93761947901518
487.0 79.98474854385024
500.0 80.03761947901518
515.0 80.13761947901517
530.0 80.26124794091912
545.0 80.38035961060623
560.0 80.50219952563408
580.0 80.62602095353675
600.0 80.72602095353675
615.0 80.83036400659758
630.0 80.88854883046736
650.0 80.91190256106152
670.0 80.87190283480682
690.0 80.76637496402961
710.0 80.62280294830025
730.0 80.3679920315051
750.0 80.05264776204635
775.0 79.61462783931741
800.0 79.1390448673951
825.0 78.6444861214912
850.0 78.2041416118685
875.0 77.85396348998577
900.0 77.85060217400108
925.0 78.06491300071559
950.0 78.5649130007156
975.0 79.17421335568307
1000.0 79.75697517601232
1030.0 80.15708847612173
1060.0 80.36810289327546
1090.0 80.26810289327545
1120.0 79.89382357058956
1150.0 79.23365436314454
1180.0 78.50816919179637
1220.0 78.00093069566113
1250.0 77.8834353361841
1280.0 78.16478572736521
1320.0 78.6751930363531
1360.0 79.18928998187933
1400.0 79.67486413035965
1450.0 80.10399844060689
1500.0 80.48998843496955
1550.0 80.881959251044
1600.0 81.14164928977122
1650.0 81.19477638343479
1700.0 80.92310069089814
1750.0 80.47685978279743
1800.0 79.98483303770328
1850.0 79.64210176753525
1900.0 79.40895480575325
1950.0 79.2430660067906
2000.0 79.01341017628813
2060.0 78.66342905266862
2120.0 78.2743788384137
2180.0 78.08934794440137
2240.0 78.10575503855502
2300.0 78.20515022839508
2360.0 78.48063033294112
2400.0 78.76106853574554
2500.0 78.93782164127428
2580.0 79.0323379966046
2650.0 79.29257802800785
2720.0 79.6118428547771
2800.0 79.79421128994953
2900.0 79.90497862245292
3000.0 79.93690521085888
3070.0 79.94186342474934
3150.0 79.93826509737033
3250.0 79.84295475808834
3350.0 79.78677360322813
3450.0 79.68728697455713
3550.0 79.54793029022755
3650.0 79.368194385864
3750.0 79.21777401638418
3870.0 79.18497011786324
4000.0 79.16678431395638
4120.0 78.99500084116015
4250.0 78.7265357749776
4370.0 78.6553500697452
4500.0 78.75291711727877
4620.0 79.00258475262727
4750.0 79.48004640657021
4870.0 79.90806572444473
5000.0 79.9459722125529
5150.0 79.62467954206004
5300.0 79.08404306684967
5450.0 78.71826917176521
5600.0 78.70001773890702
5800.0 79.1350612358739
6000.0 79.5835193248286
6150.0 79.9132815116452
6300.0 80.09191044165536
6500.0 80.0648886262589
6700.0 79.85078419127795
6900.0 79.47286374423132
7100.0 79.0405813651601
7300.0 78.42570300468398
7500.0 77.75646943818232
7750.0 77.5916123532949
8000.0 78.01015201329223
8250.0 78.6829078574511
8500.0 79.38922222976264
8750.0 79.51584707928009
9000.0 79.04931553791772
9250.0 78.95690894204766
9500.0 79.36458981067506
9750.0 80.54534334994347
10000.0 80.89607381743647
10300.0 80.22436986240707
10600.0 80.73638566916125
10900.0 80.87740251019798
11200.0 79.30313624630234
11500.0 78.3502239191505
11800.0 78.66913865199625
12200.0 78.58340340944143
12500.0 78.66590121465408
12800.0 78.4272549419225
13200.0 78.3193756702632
13600.0 78.753088496521
14000.0 78.76446902142978
14500.0 78.65623975798663
15000.0 78.93005025253392
15500.0 79.20720051891992
16000.0 79.64503717919214
16500.0 79.41244278201462
17000.0 77.69635835152506
17500.0 76.93292143411718
18000.0 77.28472802765859
18500.0 76.83921419769746
19000.0 76.83467442163479
19500.0 76.52394161899203
