Freq "On Axis"
22.4 -1.234177215189888
23.0 -0.734177215189888
23.6 0.265822784810112
24.0 2.0658227848101234
25.0 4.265822784810112
25.8 6.465822784810101
26.5 8.365822784810135
27.2 9.9658227848101
28.0 11.365822784810135
29.0 12.765822784810112
30.0 14.865822784810135
30.7 17.96582278481013
31.5 21.165822784810146
32.5 23.865822784810135
33.5 25.865822784810135
34.5 27.565822784810123
35.5 29.065822784810123
36.5 30.365822784810135
37.5 31.665822784810118
38.7 32.66582278481012
40.0 33.46582278481013
41.2 34.46582278481013
42.5 36.66582278481012
43.7 39.66582278481012
45.0 41.865822784810135
46.2 42.865822784810135
47.5 43.865822784810135
48.7 45.56582278481012
50.0 47.56582278481012
51.5 49.56582278481012
53.0 51.56582278481012
54.5 53.46582278481013
56.0 55.26582278481011
58.0 56.76582278481011
60.0 58.56582278481012
61.5 60.86582278481012
63.0 63.26582278481011
65.0 65.66582278481012
67.0 67.96582278481011
69.0 70.26582278481014
71.0 72.16582278481012
73.0 73.46582278481011
75.0 74.16582278481012
77.5 74.86582278481012
80.0 75.66582278481012
82.5 76.06582278481012
85.0 76.26582278481013
87.5 76.56582278481012
90.0 76.86582278481012
92.5 77.16582278481012
95.0 77.76582278481014
97.5 78.16582278481012
100.0 78.56582278481012
103.0 78.9658227848101
106.0 78.9658227848101
109.0 79.16582278481012
112.0 79.76582278481013
115.0 79.56582278481012
118.0 78.66582278481012
122.0 78.56582278481012
125.0 79.76582278481013
128.0 80.46582278481011
132.0 79.86582278481012
136.0 79.66582278481012
140.0 79.86582278481012
145.0 79.86582278481012
150.0 80.26582278481014
155.0 80.76582278481013
160.0 80.76582278481013
165.0 80.26582278481014
170.0 80.16582278481012
175.0 81.06582278481012
180.0 81.4658227848101
185.0 81.36582278481013
190.0 81.86582278481012
195.0 82.36582278481012
200.0 81.86582278481012
206.0 81.36582278481013
212.0 81.16582278481012
218.0 80.86582278481012
224.0 80.66582278481012
230.0 80.26582278481014
236.0 79.96582278481013
240.0 79.86582278481012
250.0 80.16582278481012
258.0 80.56582278481012
265.0 80.86582278481012
272.0 80.96582278481011
280.0 81.06582278481012
290.0 81.26582278481013
300.0 81.26582278481013
307.0 81.16582278481012
315.0 81.06582278481012
325.0 81.06582278481012
335.0 81.06582278481012
345.0 81.06582278481012
355.0 80.96582278481011
365.0 81.06582278481012
375.0 81.16582278481012
387.0 81.06582278481012
400.0 80.86582278481012
412.0 80.56582278481012
425.0 80.46582278481011
437.0 80.26582278481014
450.0 80.3658227848101
462.0 80.3658227848101
475.0 80.3658227848101
487.0 80.3658227848101
500.0 80.46582278481011
515.0 80.56582278481012
530.0 80.66582278481012
545.0 80.76582278481013
560.0 80.86582278481012
580.0 80.96582278481011
600.0 81.06582278481012
615.0 81.16582278481012
630.0 81.26582278481013
650.0 81.26582278481013
670.0 81.26582278481013
690.0 81.26582278481013
710.0 81.26582278481013
730.0 81.06582278481012
750.0 80.86582278481012
775.0 80.56582278481012
800.0 80.16582278481012
825.0 79.76582278481013
850.0 79.26582278481011
875.0 78.86582278481013
900.0 78.76582278481013
925.0 78.86582278481013
950.0 79.36582278481012
975.0 79.96582278481013
1000.0 80.66582278481012
1030.0 81.06582278481012
1060.0 81.36582278481013
1090.0 81.26582278481013
1120.0 80.86582278481012
1150.0 80.16582278481012
1180.0 79.46582278481011
1220.0 78.86582278481013
1250.0 78.76582278481013
1280.0 79.06582278481012
1320.0 79.66582278481012
1360.0 80.26582278481014
1400.0 80.86582278481012
1450.0 81.26582278481013
1500.0 81.66582278481012
1550.0 81.96582278481011
1600.0 82.26582278481013
1650.0 82.36582278481012
1700.0 82.16582278481012
1750.0 81.76582278481011
1800.0 81.26582278481013
1850.0 80.76582278481013
1900.0 80.3658227848101
1950.0 80.26582278481014
2000.0 80.16582278481012
2060.0 79.96582278481013
2120.0 79.66582278481012
2180.0 79.56582278481012
2240.0 79.66582278481012
2300.0 79.86582278481012
2360.0 80.3658227848101
2400.0 80.76582278481013
2500.0 81.06582278481012
2580.0 81.16582278481012
2650.0 81.26582278481013
2720.0 81.36582278481013
2800.0 81.4658227848101
2900.0 81.4658227848101
3000.0 81.26582278481013
3070.0 80.96582278481011
3150.0 80.66582278481012
3250.0 80.46582278481011
3350.0 80.46582278481011
3450.0 80.3658227848101
3550.0 80.3658227848101
3650.0 80.26582278481014
3750.0 79.96582278481013
3870.0 79.76582278481013
4000.0 79.56582278481012
4120.0 79.26582278481011
4250.0 78.9658227848101
4370.0 79.06582278481012
4500.0 79.46582278481011
4620.0 79.66582278481012
4750.0 80.06582278481012
4870.0 80.66582278481012
5000.0 80.76582278481013
5150.0 80.46582278481011
5300.0 80.06582278481012
5450.0 79.96582278481013
5600.0 80.16582278481012
5800.0 80.56582278481012
6000.0 81.16582278481012
6150.0 81.4658227848101
6300.0 81.56582278481012
6500.0 81.4658227848101
6700.0 81.56582278481012
6900.0 81.36582278481013
7100.0 80.66582278481012
7300.0 79.76582278481013
7500.0 79.26582278481011
7750.0 79.06582278481012
8000.0 79.26582278481011
8250.0 79.86582278481012
8500.0 80.46582278481011
8750.0 80.56582278481012
9000.0 80.26582278481014
9250.0 80.46582278481011
9500.0 81.16582278481012
9750.0 82.26582278481013
10000.0 82.56582278481012
10300.0 81.66582278481012
10600.0 81.86582278481012
10900.0 81.4658227848101
11200.0 79.56582278481012
11500.0 78.56582278481012
11800.0 78.9658227848101
12200.0 79.56582278481012
12500.0 80.16582278481012
12800.0 79.56582278481012
13200.0 78.9658227848101
13600.0 79.06582278481012
14000.0 79.16582278481012
14500.0 79.66582278481012
15000.0 80.16582278481012
15500.0 80.56582278481012
16000.0 81.26582278481013
16500.0 81.16582278481012
17000.0 79.66582278481012
17500.0 79.26582278481011
18000.0 79.66582278481012
18500.0 79.36582278481012
19000.0 79.66582278481012
19500.0 79.46582278481011
