Freq,Floor Bounce,Ceiling Bounce,Front Wall Bounce,Side Wall Bounce,Rear Wall Bounce,Total Early Reflection
22.4,20.568893114726706,21.018293532493203,21.02574040224718,20.068454201769384,22.391710667042616,21.086314457900414
23.0,21.6651451584857,22.413343531694466,22.02395808921915,20.719039924917382,24.044789431417712,22.315755853025337
23.6,22.470551953972375,22.534041687424576,25.37158831626141,22.526928835769496,26.513453577806047,24.240098553340914
24.0,24.478762053108028,23.267170950571142,28.9503597961251,27.078132942545352,30.022305704060727,27.47160815220525
25.0,25.521969270866975,26.637552473094615,27.711078004030156,31.974415061475696,32.903823261079765,29.943315620106432
25.8,26.830535980634778,28.921601126562393,27.925094519604897,34.458772332010454,36.64122010736651,32.68976497263148
26.5,27.93403116707003,30.538855058154724,27.85565353360215,35.945669785104855,38.198812789364126,34.116394245789024
27.2,32.29110914398791,33.92904787212382,33.967278167524654,35.661740818621325,37.32735747576251,34.98200359971679
28.0,37.55407142068117,36.66866461651688,37.50414761011024,37.85190892466113,37.88238861365181,37.513625832983905
29.0,42.335640612106204,43.0136379270312,40.35343020636196,40.05136654086087,39.66104187716047,41.29391887427175
30.0,46.15807968183299,47.06370451984074,42.327179277246216,41.45169089740514,41.44260551756426,44.382064893555025
30.7,45.1990826699909,46.26965087562718,44.150399067613705,43.653503005036896,42.79553632966065,44.58482755622276
31.5,45.70904047274905,46.924224826406544,46.795916958180385,45.74199797839094,44.42091257184438,46.00952441541418
32.5,46.911047458617844,48.09064091217712,49.00145146503678,47.63483201546174,46.09566483275768,47.65956292360883
33.5,49.56596517221371,50.65756863077445,50.82185968988023,49.68499359298244,49.04035189242748,50.007355328570725
34.5,52.10417979634434,53.19219336361925,52.72096017435325,51.705098632995316,51.92801461145086,52.36521995708557
35.5,54.313370268381306,55.357568630774466,54.5053022674245,53.78852539593029,54.66129953476681,54.55540610621395
36.5,56.11091508070899,56.95679526888205,56.25567693349939,55.77493704862533,56.74274587292544,56.38936857405869
37.5,57.747554695941034,58.22734113323466,57.87038781984458,57.71447781099411,58.600855924888776,58.045464802650855
38.7,59.22318365573824,59.2761085422739,59.43810007418662,59.69206613932337,60.54062975012738,59.661828576836854
40.0,61.104708654056296,60.84755469594104,60.724181020215156,61.70603722558408,62.41476131697681,61.40601644115179
41.2,63.702145200877695,62.91999407746961,62.04010647377828,64.2526094329654,64.91552131684796,63.68008182997821
42.5,65.04940507776331,64.28396305562717,63.99168784715391,66.03450687383861,66.2330356990725,65.21151397157979
43.7,65.53270372244125,65.51009652096403,66.13754207345457,67.01490449268618,66.54712805759326,66.18784012625486
45.0,67.42500400950134,68.09064091217712,68.22659656112374,68.23337532555325,67.55047136009685,67.91892011116988
46.2,69.15832425577585,69.8898734177215,69.7046287330136,69.8105168508023,69.04017984037604,69.53474592035936
47.5,70.42500400950132,71.15679526888201,70.87638791358245,71.1105168508023,70.27150231810036,70.78275441205025
48.7,71.6234632446015,72.28987341772151,72.13333850470049,72.27005677657138,71.6159446608296,71.99711177293636
50.0,73.09064091217712,73.68987341772151,73.59151039754084,73.73060640878278,73.110479198939,73.45176985853021
51.5,74.55756863077445,75.15679526888202,75.00462873301359,75.07005677657138,74.62124136796217,74.8889035402907
53.0,75.82500400950134,76.456795268882,76.27572790682389,76.33015014669198,75.98768897854693,76.18127645414492
54.5,77.19064091217713,77.75679526888202,77.57572790682387,77.5898734177215,77.42230058654243,77.51121243722706
56.0,78.59064091217714,79.15679526888202,78.93333850470049,79.01005847313739,78.9586618106382,78.93385425870311
58.0,79.89064091217712,80.42346324460149,80.2046287330136,80.2700567765714,80.34279190028215,80.23012242630392
60.0,80.89064091217712,81.42346324460148,81.2046287330136,81.2100584731374,81.43825372675882,81.23789931683706
61.5,81.49064091217713,82.08987341772152,81.87572790682387,81.85014929843055,82.14017676151477,81.89531723063098
63.0,81.85832425577584,82.62422482640655,82.41868057446679,82.17051939550741,82.31487548498248,82.28483833493215
65.0,82.29294298876403,83.22422482640653,83.0186805744668,82.57236962378745,82.44669460809041,82.72541433570325
67.0,82.86138142559088,83.75832425577583,83.50495656016034,83.01329860156454,82.87414142896785,83.21782081041529
69.0,83.1967784280761,84.19294298876403,83.89216818465843,83.3552496621198,83.17002478904199,83.58098258029639
71.0,83.49677842807611,84.49294298876404,84.21966841528057,83.59585798762893,83.34815829792684,83.85376034795948
73.0,83.63270372244125,84.69294298876403,84.44894345384091,83.69907952952559,83.28857157264547,83.98499721777856
75.0,83.63270372244125,84.79294298876403,84.52162855634057,83.69907952952559,83.10910435987347,83.99515920555797
77.5,83.7021452008777,84.86138142559089,84.59216818465843,83.68435632169461,83.0293058044557,84.02492880043803
80.0,83.9021452008777,85.0613814255909,84.79216818465842,83.84214301124777,83.2564757740053,84.22149364185103
82.5,84.00214520087769,85.16138142559089,84.89216818465843,83.96451443268109,83.46662347364227,84.34341465581605
85.0,84.10214520087769,85.26138142559088,84.99216818465844,84.06451443268108,83.68311368077221,84.46266838161003
87.5,84.20214520087771,85.42650917439337,85.17736271664194,84.24675360392281,83.88311368077223,84.62942216891929
90.0,84.40214520087768,85.5613814255909,85.31966841528056,84.46208713877012,84.11177284031676,84.8084907726533
92.5,84.76596517221371,85.86138142559089,85.64827926276213,84.8990795295256,84.77245245654022,85.21510803889582
95.0,85.03270372244125,86.09294298876402,85.90495656016036,85.31745337089538,85.5065412326305,85.58800494247659
97.5,85.10214520087769,86.16138142559089,86.10495656016036,85.41745337089537,85.93026023002605,85.76266786166155
100.0,84.97610854227388,86.26596517221371,86.11966841528056,85.16451443268107,85.56986399381944,85.64896937331437
103.0,84.58884786903076,86.1356406121062,86.02162855634059,84.67252026521115,84.20482890379559,85.19847508989773
106.0,84.4274011907218,86.17207309104455,85.99476841145773,84.34727359291415,83.2391310575684,84.97458012178598
109.0,84.49950598453772,86.20580033998857,86.00985765173596,84.21425957490331,82.80652639030112,84.92192794865683
112.0,84.85576187831838,86.43564061210621,86.20985765173596,84.58536855209996,83.14580406043208,85.20509454195107
115.0,85.37970198445623,86.69677842807612,86.55022653595347,85.30301295771383,84.37802360806447,85.74609911990675
118.0,85.73885856651702,86.9613814255909,86.87736271664193,85.94675360392282,85.61315029365346,86.26605668997028
122.0,85.57970198445622,86.90214520087768,86.87736271664193,85.92807755344859,85.90713536366862,86.27343683286554
125.0,84.73885700922992,86.47970198445623,86.40985765173595,84.95069972616035,84.62537369959178,85.52091979993092
128.0,84.32533604906834,86.35083856009334,86.25516057771702,84.34677751126718,82.81753792812557,85.01856930648647
132.0,84.22533604906835,86.35083856009334,86.22911617494142,84.28745879905205,82.95961130181854,85.00208567733053
136.0,84.04049469782515,86.32244559818707,86.22911617494142,83.97539349803166,82.65981245551254,84.87497055261684
140.0,83.98225240581951,86.2607031205645,86.2035128237903,83.77903792156384,81.95002969801612,84.729062829127
145.0,84.0822524058195,86.32244559818707,86.2576650531663,83.60489551945278,81.27618353863909,84.68561871806268
150.0,84.36628971504304,86.45083856009333,86.3576650531663,83.81759839610194,81.14715621725831,84.8239303743458
155.0,84.68493799807982,86.61337026838132,86.53987975789224,84.33089808616084,81.95879917934778,85.13608830026992
160.0,84.95182209335917,86.67970198445624,86.72162855634056,84.93194924476758,82.87652464317655,85.4496258179037
165.0,84.85182209335916,86.61337026838132,86.72162855634056,85.04677751126718,83.21212044377116,85.47369495033517
170.0,84.24049469782516,86.2607031205645,86.43853299136946,84.37539349803166,82.37993572940591,84.98442826961292
175.0,83.3752605223805,85.8450931108053,85.92911617494143,83.30529260392714,80.46768038924967,84.21202340601587
180.0,83.27526052238048,85.7450931108053,85.80351282379031,82.89510895880133,78.60237315211916,83.92957105064964
185.0,83.71513795701,85.97207154562207,86.05766505316632,83.59511913553446,79.15506501267302,84.29873275463942
190.0,83.7822524058195,85.97207154562207,86.15766505316631,84.04069881458601,81.27727561639898,84.57891487488678
195.0,83.35124179394914,85.85865375768942,86.00351282379033,83.67037564790365,82.1781442139858,84.46561014139972
200.0,82.6163063951466,85.57369675939745,85.72503389767971,82.62679817616201,81.01523932099522,83.89752369546385
206.0,82.16683117387068,85.44853369372986,85.48854584468498,81.73956845153715,79.23089565573278,83.43307399026224
212.0,82.21978299157296,85.54853369372984,85.51670797085112,81.47777996584371,77.69924985331902,83.34897989770667
218.0,82.97085832322831,85.85865375768942,85.9250338976797,82.37928005487791,75.8885296720218,83.75334264388128
224.0,83.47148550305572,86.05865375768941,86.2035128237903,83.0445282353472,76.29627410713383,84.10722556371869
230.0,83.54853065790022,86.19248497667516,86.40351282379032,83.52618984975354,76.83132609438456,84.32276840064459
236.0,83.4931772560108,86.19929590198171,86.52911617494141,83.69641181740248,77.13750548093789,84.39639296285581
240.0,83.2163063951466,86.07369675939746,86.40351282379032,83.34452823534721,77.18401356018062,84.21535645772683
250.0,83.1408616527337,86.07369675939746,86.40351282379032,83.08865408938047,76.1374467615529,84.12502629516693
258.0,83.19461291322699,86.11513795700999,86.50351282379032,83.31601627070586,74.81030167362985,84.18094288794533
265.0,83.2408616527337,86.1902145471198,86.60351282379031,83.52497418226102,75.45507124530877,84.29614460060276
272.0,83.38768326154008,86.39021454711978,86.77834559699666,83.65524437071447,76.49471166442751,84.49192265288136
280.0,83.36683117387066,86.46571949299297,86.9250338976797,83.57536235050495,77.2473726431765,84.57500587559221
290.0,83.29420254022007,86.58436210704441,87.09420442734819,83.45862818185171,77.01729686421528,84.63355994593587
300.0,83.15309846557751,86.68436210704441,87.11670797085111,83.05797198582661,75.28329570536599,84.54399499353036
307.0,83.30366338527742,86.86094086046069,87.14073555160337,82.72176315206397,72.20626668113836,84.53571743163255
315.0,83.9343700119186,87.3609408604607,87.8765153325391,83.9302027937483,75.3190439944839,85.2802378286855
325.0,83.73453295388046,87.58167157449559,88.17651533253908,84.09153867527962,75.56483893160579,85.46294735099129
335.0,83.6543102227524,87.78167157449559,88.26920840002487,83.91382330058467,74.11273286387127,85.5030931086396
345.0,83.43120327979776,87.82598049749501,88.19458043786426,83.39222685759371,72.2134462758716,85.36919485163207
355.0,83.64287141650304,88.1816715744956,88.47134620602883,82.80540780991316,71.05961604920589,85.55362308862674
365.0,84.37314570503582,88.7276407605769,89.04977510168149,82.59252652326225,70.85221435857707,86.05752737600453
375.0,85.28723393748157,89.3081988595712,89.63112141646708,82.5647271768311,72.47003651651714,86.64138652025134
387.0,86.04287141650303,89.83245615435165,90.32412634404214,82.20756601339636,72.81391109821578,87.20500831459395
400.0,86.04891872385492,90.15713900631762,90.64255799988689,81.9690680266668,69.64922319074415,87.42805321099956
412.0,85.53308868120533,89.54282878559928,90.2895128227,81.87916059697098,70.59076670866918,86.9760296236799
425.0,83.50767344382687,88.57496827574526,89.1567765492542,81.01145520809622,69.57877009537752,85.8055271991975
437.0,82.19895228476685,87.89925170837206,88.48736336967704,80.15078819761914,71.17597977510914,85.06488571478523
450.0,81.34812490984194,87.30382284684757,88.00778878440909,79.8315399924417,72.77468978790301,84.53664807667104
462.0,80.10740701764401,86.81069236326206,87.39955373607901,78.2466601151041,69.68991801832485,83.83058184429235
475.0,79.25555282382187,86.56119093205892,87.02365119734034,77.75371938698402,71.77014763635707,83.48632786969716
487.0,78.48634788631902,85.73494536598876,86.30509490285367,77.83302565477537,71.47222369523013,82.7735278383694
500.0,76.4025573651608,84.98662309388175,85.27037316172283,76.86064496134036,69.58576628539222,81.7788226330954
515.0,74.84464867956643,84.96928185402699,84.80509490285367,75.41447220280588,70.83907122222749,81.4225234435423
530.0,74.71116939150795,84.93280834342306,84.83319403203663,75.47274005400547,73.69386871392331,81.4856673557056
545.0,73.77946870333349,84.46928185402697,83.7846284355484,73.70828560245683,74.56810682704048,80.75458733965986
560.0,73.22842424914198,84.28662309388173,82.78083951852106,70.53109438834855,73.66936224495916,80.11690048065378
580.0,73.399247420936,84.03280834342307,82.20117488851005,69.76618364632546,73.02281243817275,79.735936722226
600.0,73.58900878723587,83.75070203120131,81.68929741447228,68.9568473402289,72.50504482395432,79.3776001635037
615.0,73.87970198445623,83.168936513385,81.09199608230276,68.52055156164337,70.71419640836586,78.8008314956058
630.0,73.89119169724263,82.468936513385,80.52543465630984,68.96233930315731,69.12169121867474,78.19494562747361
650.0,74.57227202532924,82.44066200985264,80.31941838214667,67.31742518416081,69.29988766791902,78.13723368066763
670.0,75.24486198812112,82.50444204681551,79.78047814086264,66.54802097209748,70.55804256315311,78.09459312385655
690.0,76.26554945802218,82.73167447756438,79.76045621054035,67.63622013696468,71.06139638780914,78.36447427247026
710.0,77.27195200325798,82.93570955107674,79.62679198582961,68.3833667196422,70.08480288475236,78.5589003117351
730.0,77.96792246041731,83.38747773955177,79.935018322904,70.77244024771554,69.15934275362241,79.0252425970444
750.0,77.6125627404492,83.11829353249318,80.16727542513284,72.6192575818399,66.44164798473643,78.91379347508877
775.0,75.18759429521162,81.82647846675228,79.47134620602881,72.6539275320444,64.04400210782167,77.70559311306701
800.0,73.55152170635074,80.69028350944161,78.53624314274893,72.09740252876159,62.195410194481724,76.61122675341146
825.0,74.4284917920653,81.34333185212208,78.65542970258124,71.67174285374595,61.324292575436175,77.04833774118977
850.0,73.81831999351277,81.31613829522237,79.07134942729441,71.1713290647622,62.72289510205505,77.07918445113212
875.0,73.92421491970889,81.23439414453938,79.18761658296906,71.68375399801207,64.38594617908335,77.1261416680832
900.0,74.27454954215227,81.1305414766615,79.36223266634582,72.07681079789586,64.39600431339888,77.18863329064754
925.0,74.3129332010279,81.12379999249394,79.35236556633618,71.94617921007855,64.98436277991283,77.18467516599028
950.0,75.0342372591789,81.38711024212076,79.60876073065776,72.85299157140267,65.57625162220467,77.5402272492716
975.0,74.59919861344295,81.51348444765863,79.6041704422539,73.32561030729295,65.96352461271383,77.59321114822237
1000.0,74.8720828558202,82.13129464130046,79.99196147098482,74.00943348264926,66.73225429016742,78.11252660002704
1030.0,74.96442885614053,82.23451587953424,80.21132613913957,75.22829787797937,67.48100580775838,78.3576979710004
1060.0,74.5614373846227,82.00161148056479,80.1734693030617,75.1770833257323,68.12274509540953,78.20382647795175
1090.0,73.79784419430027,81.83335387277691,79.90902613328412,74.44493282312388,68.56966574290567,77.91619272466559
1120.0,73.78967972643562,81.8493952443272,79.71363664093677,73.76080972274406,67.78907739850189,77.78760345431843
1150.0,73.57941355158202,81.32526340626308,79.36771981286113,72.95606986245971,66.59498935325527,77.31189642135774
1180.0,72.72953770416137,81.12921972515733,79.11661491047843,72.28583625744872,65.57726313865955,76.99969727584215
1220.0,72.41068754996428,81.41906756113443,79.33735468690556,72.42294250802158,65.52525155884214,77.20910705539049
1250.0,72.20255736516079,81.32038715109691,79.57107930036955,72.629436380644,65.95485346088294,77.24264572636794
1280.0,73.80054605537443,81.45561167371159,79.5120036331949,73.03070610753333,65.84617797217794,77.43693522479995
1320.0,74.22989294369823,81.60581132256488,79.38958575771962,72.47295507110938,65.41556662207729,77.47041595867407
1360.0,74.75394796636007,81.88200343757086,80.58155274081112,73.03176893113786,65.70147799137771,78.09245280960263
1400.0,74.82515090954118,82.28619788548608,81.14854297598535,72.98479237211144,65.65872272399119,78.4941508552206
1450.0,74.94625908600165,82.6107921499812,81.47350612327381,73.02816621936924,65.73036983512114,78.78378451737399
1500.0,74.31273244665915,82.462712778878,81.50673240616317,73.12787048740711,66.05103514712442,78.68470362607614
1550.0,74.4199940774696,82.47545513074724,81.16330078101481,73.16963860261635,66.37874509783087,78.5769761569537
1600.0,73.32626901380534,81.85789962047184,80.5196505599079,72.89439282946466,65.69121924963326,77.9349513258949
1650.0,72.92526340626308,81.7385632131882,80.37257146415126,72.55216578966528,65.03493964568887,77.76679790462917
1700.0,72.01393911867038,81.73281091125767,80.16078713124776,72.47651082012499,64.98317265176735,77.62740048755174
1750.0,71.59199279695723,81.75728892038454,80.7783229268227,72.09212610708062,64.93732253537829,77.82811051468153
1800.0,71.41737686206422,81.74148859848036,81.43646046408183,71.75177109152773,63.57999986132906,78.0569218646342
1850.0,72.65149315328227,81.9986019592261,81.99068659578613,71.63256156379711,64.1680804822354,78.47790180660719
1900.0,73.45499693155477,82.06700941100206,82.20230373324628,71.29298579792614,64.57228121267461,78.6390597768632
1950.0,74.6156401612579,82.40957218647408,82.20083703105308,70.5056294379257,62.89308046372781,78.83411632408624
2000.0,74.3401292024073,82.27969137521737,81.35072960979915,69.87600254647936,63.78539645920942,78.38581917338863
2060.0,74.17019005936118,82.07934158927853,80.62614621439644,69.4685178394424,65.5811744099557,78.00037662302014
2120.0,74.02669154332415,81.7386581837334,80.09417939945598,69.14801612127243,66.1919255628929,77.62046407142752
2180.0,74.0686462098895,81.4239524904265,79.88652162193586,69.40830285080008,65.14526543455976,77.38365012505501
2240.0,73.0325319401575,81.50799271659568,79.82670359703053,70.34181695746734,64.75766936574526,77.34822849675434
2300.0,72.93517478942104,81.9180674964511,80.23885865980475,70.74184295380255,64.78336010474968,77.7189520991675
2360.0,74.59128770326322,82.57126224431742,79.87390516586015,70.18569791330583,65.44591335620122,78.070366478463
2400.0,75.24734215447451,82.77688404044187,79.00013381091621,69.98329759904881,65.6700843112086,78.008508383545
2500.0,75.09907514747738,82.71889430299504,77.83042128964378,71.20669303094601,65.44341093144769,77.7343197422719
2580.0,74.12239473681271,82.55442753234047,77.22739492582404,72.81845477624803,65.43863233871522,77.5028363928502
2650.0,72.70106012712068,82.22995297428069,77.807715568448,74.03375271165841,64.81192940194698,77.39475627129313
2720.0,72.71514991137343,82.12215818611729,77.74744597713962,73.80140544502567,63.4021338215678,77.28211953812375
2800.0,72.39697848819982,82.6391598970607,77.51116399131723,72.9864955462826,62.257066360936534,77.4653350911871
2900.0,73.96511932503296,83.43570482162349,77.93289624371195,72.16183657779138,61.762723278982264,78.13687391328425
3000.0,73.81550422016338,83.35011972935962,77.86280563821683,71.23652800028323,62.264189237271566,78.01354073111301
3070.0,73.42737042815467,82.732120439221,78.00319503212917,69.73621348537013,60.09552061697116,77.53095710117518
3150.0,73.31681520988388,82.35705196314112,77.81544076702455,68.73257496864018,57.27366407513014,77.19340978184032
3250.0,72.57461307611887,82.4122355873198,77.49177340161054,67.94416804931974,56.36357010861079,77.07827064922127
3350.0,71.7928481361514,82.61068811634198,77.60157685588949,67.69934707603126,54.92887104367048,77.18157292411573
