Freq,Floor Bounce,Ceiling Bounce,Front Wall Bounce,Side Wall Bounce,Rear Wall Bounce,Total Early Reflection
22.4,18.279019697005197,18.728420114771694,18.73586698452567,17.778580784047875,20.101837249321107,18.796441040178905
23.0,19.37527174076419,20.123470113972957,19.73408467149764,18.429166507195873,21.754916013696203,20.025882435303828
23.6,20.180678536250866,20.244168269703067,23.0817148985399,20.237055418047987,24.223580160084538,21.950225135619405
24.0,22.18888863538652,20.977297532849633,26.66048637840359,24.788259524823843,27.73243228633922,25.18173473448374
25.0,23.232095853145466,24.347679055373106,25.421204586308647,29.684541643754187,30.613949843358256,27.653442202384923
25.8,24.54066256291327,26.631727708840884,25.63522110188339,32.168898914288945,34.351346689645,30.39989155490997
26.5,25.644157749348523,28.248981640433215,25.565780115880642,33.655796367383346,35.90893937164262,31.826520828067515
27.2,30.0012357262664,31.63917445440231,31.677404749803145,33.371867400899816,35.037484058041,32.69213018199528
28.0,35.26419800295966,34.37879119879537,35.21427419238873,35.56203550693962,35.592515195930304,35.223752415262396
29.0,40.045767194384695,40.72376450930969,38.063556788640454,37.76149312313936,37.37116845943896,39.004045456550244
30.0,43.86820626411148,44.77383110211923,40.03730585952471,39.161817479683634,39.15273209984275,42.092191475833516
30.7,42.90920925226939,43.97977745790567,41.860525649892196,41.36362958731539,40.50566291193914,42.294954138501254
31.5,43.41916705502754,44.634351408685035,44.506043540458876,43.45212456066943,42.131039154122874,43.71965099769267
32.5,44.621174040896335,45.80076749445561,46.71157804731527,45.34495859774023,43.80579141503617,45.36968950588732
33.5,47.2760917544922,48.36769521305294,48.53198627215872,47.39512017526093,46.75047847470597,47.717481910849216
34.5,49.81430637862283,50.902319945897744,50.43108675663174,49.41522521527381,49.63814119372935,50.07534653936406
35.5,52.0234968506598,53.06769521305296,52.21542884970299,51.498651978208784,52.3714261170453,52.26553268849244
36.5,53.82104166298748,54.66692185116054,53.96580351577788,53.485063630903824,54.45287245520393,54.099495156337184
37.5,55.457681278219525,55.93746771551315,55.58051440212307,55.4246043932726,56.31098250716727,55.755591384929346
38.7,56.93331023801673,56.986235124552394,57.14822665646511,57.402192721601864,58.25075633240587,57.371955159115345
40.0,58.81483523633479,58.55768127821953,58.43430760249365,59.416163807862574,60.1248878992553,59.11614302343028
41.2,61.412271783156186,60.6301206597481,59.75023305605677,61.96273601524389,62.62564789912645,61.3902084122567
42.5,62.7595316600418,61.99408963790566,61.7018144294324,63.7446334561171,63.94316228135099,62.92164055385828
43.7,63.242830304719746,63.22022310324252,63.84766865573306,64.72503107496468,64.25725463987175,63.897966708533346
45.0,65.13513059177983,65.80076749445561,65.93672314340223,65.94350190783175,65.26059794237534,65.62904669344837
46.2,66.86845083805434,67.6,67.4147553152921,67.52064343308079,66.75030642265453,67.24487250263785
47.5,68.13513059177981,68.8669218511605,68.58651449586094,68.82064343308079,67.98162890037885,68.49288099432874
48.7,69.33358982687999,70.0,69.84346508697898,69.98018335884987,69.32607124310809,69.70723835521486
50.0,70.80076749445561,71.4,71.30163697981934,71.44073299106127,70.8206057812175,71.1618964408087
51.5,72.26769521305295,72.86692185116051,72.71475531529208,72.78018335884987,72.33136795024066,72.59903012256919
53.0,73.53513059177983,74.1669218511605,73.98585448910238,74.04027672897047,73.69781556082542,73.89140303642341
54.5,74.90076749445562,75.4669218511605,75.28585448910236,75.3,75.13242716882093,75.22133901950555
56.0,76.30076749445563,76.86692185116051,76.64346508697898,76.72018505541588,76.6687883929167,76.6439808409816
58.0,77.60076749445561,78.13358982687998,77.9147553152921,77.98018335884989,78.05291848256064,77.94024900858241
60.0,78.60076749445561,79.13358982687997,78.9147553152921,78.92018505541589,79.14838030903731,78.94802589911555
61.5,79.20076749445562,79.80000000000001,79.58585448910236,79.56027588070904,79.85030334379326,79.60544381290947
63.0,79.56845083805433,80.33435140868504,80.12880715674528,79.8806459777859,80.02500206726097,79.99496491721064
65.0,80.00306957104252,80.93435140868502,80.72880715674529,80.28249620606594,80.1568211903689,80.43554091798174
67.0,80.57150800786937,81.46845083805432,81.21508314243883,80.72342518384303,80.58426801124634,80.92794739269378
69.0,80.90690501035459,81.90306957104252,81.60229476693692,81.0653762443983,80.88015137132048,81.29110916257488
71.0,81.2069050103546,82.20306957104253,81.92979499755906,81.30598456990742,81.05828488020533,81.56388693023797
73.0,81.34283030471974,82.40306957104252,82.1590700361194,81.40920611180408,80.99869815492396,81.69512380005705
75.0,81.34283030471974,82.50306957104252,82.23175513861906,81.40920611180408,80.81923094215196,81.70528578783646
77.5,81.41227178315619,82.57150800786938,82.30229476693692,81.3944829039731,80.7394323867342,81.73505538271652
80.0,81.61227178315619,82.77150800786939,82.50229476693691,81.55226959352626,80.96660235628379,81.93162022412952
82.5,81.71227178315618,82.87150800786938,82.60229476693692,81.67464101495958,81.17675005592076,82.05354123809454
85.0,81.81227178315618,82.97150800786937,82.70229476693693,81.77464101495957,81.3932402630507,82.17279496388852
87.5,81.9122717831562,83.13663575667186,82.88748929892043,81.9568801862013,81.59324026305072,82.33954875119778
90.0,82.11227178315617,83.27150800786939,83.02979499755905,82.1722137210486,81.82189942259525,82.51861735493179
92.5,82.4760917544922,83.57150800786938,83.35840584504062,82.60920611180408,82.48257903881871,82.92523462117431
95.0,82.74283030471975,83.80306957104251,83.61508314243885,83.02757995317387,83.21666781490899,83.29813152475508
97.5,82.81227178315618,83.87150800786938,83.81508314243885,83.12757995317386,83.64038681230454,83.47279444394005
100.0,82.68623512455237,83.9760917544922,83.82979499755905,82.87464101495956,83.27999057609793,83.35909595559286
103.0,82.29897445130925,83.84576719438469,83.73175513861908,82.38264684748964,81.91495548607408,82.90860167217622
106.0,82.13752777300029,83.88219967332304,83.70489499373622,82.05740017519264,80.94925763984689,82.68470670406447
109.0,82.20963256681621,83.91592692226706,83.71998423401445,81.9243861571818,80.5166529725796,82.63205453093532
112.0,82.56588846059687,84.1457671943847,83.91998423401445,82.29549513437846,80.85593064271058,82.91522112422956
115.0,83.08982856673472,84.4069050103546,84.26035311823196,83.01313953999232,82.08815019034296,83.45622570218524
118.0,83.44898514879551,84.67150800786939,84.58748929892042,83.6568801862013,83.32327687593195,83.97618327224878
122.0,83.28982856673471,84.61227178315617,84.58748929892042,83.63820413572708,83.6172619459471,83.98356341514403
125.0,82.44898359150841,84.18982856673472,84.11998423401444,82.66082630843884,82.33550028187027,83.23104638220941
128.0,82.03546263134683,84.06096514237183,83.96528715999551,82.05690409354567,80.52766451040407,82.72869588876496
132.0,81.93546263134684,84.06096514237183,83.93924275721992,81.99758538133054,80.66973788409703,82.71221225960902
136.0,81.75062128010364,84.03257218046556,83.93924275721992,81.68552008031016,80.36993903779103,82.58509713489534
140.0,81.692378988098,83.97082970284299,83.9136394060688,81.48916450384233,79.66015628029461,82.4391894114055
145.0,81.792378988098,84.03257218046556,83.9677916354448,81.31502210173127,78.98631012091758,82.39574530034118
150.0,82.07641629732153,84.16096514237182,84.06779163544479,81.52772497838043,78.8572827995368,82.5340569566243
155.0,82.39506458035831,84.32349685065981,84.25000634017073,82.04102466843933,79.66892576162627,82.84621488254841
160.0,82.66194867563766,84.38982856673474,84.43175513861905,82.64207582704607,80.58665122545504,83.15975240018219
165.0,82.56194867563765,84.32349685065981,84.43175513861905,82.75690409354567,80.92224702604965,83.18382153261366
170.0,81.95062128010365,83.97082970284299,84.14865957364795,82.08552008031015,80.0900623116844,82.69455485189141
175.0,81.08538710465899,83.55521969308379,83.63924275721992,81.01541918620563,78.17780697152816,81.92214998829436
180.0,80.98538710465897,83.45521969308379,83.5136394060688,80.60523554107982,76.31249973439765,81.63969763292813
185.0,81.42526453928849,83.68219812790056,83.76779163544481,81.30524571781295,76.86519159495151,82.00885933691791
190.0,81.492378988098,83.68219812790056,83.8677916354448,81.7508253968645,78.98740219867747,82.28904145716527
195.0,81.06136837622763,83.56878033996792,83.71363940606882,81.38050223018215,79.8882707962643,82.17573672367821
200.0,80.32643297742509,83.28382334167594,83.4351604799582,80.3369247584405,78.72536590327371,81.60765027774234
206.0,79.87695775614917,83.15866027600835,83.19867242696347,79.44969503381564,76.94102223801127,81.14320057254074
212.0,79.92990957385145,83.25866027600833,83.2268345531296,79.1879065481222,75.40937643559751,81.05910647998516
218.0,80.6809849055068,83.56878033996792,83.63516047995819,80.0894066371564,73.5986562543003,81.46346922615977
224.0,81.18161208533421,83.7687803399679,83.9136394060688,80.75465481762569,74.00640068941232,81.81735214599718
230.0,81.2586572401787,83.90261155895365,84.11363940606881,81.23631643203203,74.54145267666306,82.03289498292308
236.0,81.20330383828929,83.9094224842602,84.2392427572199,81.40653839968097,74.84763206321638,82.1065195451343
240.0,80.9264329774251,83.78382334167596,84.11363940606881,81.0546548176257,74.89414014245911,81.92548304000532
250.0,80.8509882350122,83.78382334167596,84.11363940606881,80.79878067165896,73.84757334383139,81.83515287744542
258.0,80.90473949550548,83.82526453928848,84.21363940606881,81.02614285298435,72.52042825590834,81.89106947022383
265.0,80.95098823501219,83.90034112939829,84.3136394060688,81.23510076453951,73.16519782758726,82.00627118288125
272.0,81.09780984381857,84.10034112939827,84.48847217927515,81.36537095299296,74.204838246706,82.20204923515985
280.0,81.07695775614916,84.17584607527147,84.63516047995819,81.28548893278344,74.957499225455,82.2851324578707
290.0,81.00432912249856,84.2944886893229,84.80433100962668,81.1687547641302,74.72742344649377,82.34368652821436
300.0,80.863225047856,84.3944886893229,84.8268345531296,80.7680985681051,72.99342228764448,82.25412157580885
307.0,81.01378996755591,84.57106744273918,84.85086213388186,80.43188973434246,69.91639326341685,82.24584401391104
315.0,81.6444965941971,85.07106744273919,85.58664191481759,81.64032937602678,73.0291705767624,82.99036441096399
325.0,81.44465953615895,85.29179815677408,85.88664191481757,81.80166525755811,73.27496551388428,83.17307393326978
335.0,81.36443680503089,85.49179815677408,85.97933498230336,81.62394988286316,71.82285944614976,83.2132196909181
345.0,81.14132986207625,85.5361070797735,85.90470702014275,81.1023534398722,69.9235728581501,83.07932143391056
355.0,81.35299799878153,85.89179815677409,86.18147278830732,80.51553439219165,68.76974263148438,83.26374967090523
365.0,82.08327228731432,86.4377673428554,86.75990168395998,80.30265310554074,68.56234094085556,83.76765395828302
375.0,82.99736051976006,87.0183254418497,87.34124799874557,80.27485375910959,70.18016309879563,84.35151310252984
387.0,83.75299799878152,87.54258273663014,88.03425292632063,79.91769259567485,70.52403768049427,84.91513489687244
400.0,83.75904530613342,87.86726558859611,88.35268458216538,79.6791946089453,67.35934977302264,85.13817979327806
412.0,83.24321526348382,87.25295536787777,87.9996394049785,79.58928717924947,68.30089329094767,84.6861562059584
425.0,81.21780002610537,86.28509485802375,86.8669031315327,78.72158179037471,67.28889667765601,83.51565378147599
437.0,79.90907886704534,85.60937829065055,86.19748995195553,77.86091477989763,68.88610635738763,82.77501229706372
450.0,79.05825149212043,85.01394942912606,85.71791536668758,77.5416665747202,70.4848163701815,82.24677465894953
462.0,77.8175335999225,84.52081894554055,85.1096803183575,75.9567866973826,67.40004460060334,81.54070842657084
475.0,76.96567940610036,84.27131751433741,84.73377777961883,75.46384596926251,69.48027421863556,81.19645445197565
487.0,76.19647446859751,83.44507194826726,84.01522148513216,75.54315223705386,69.18235027750862,80.4836544206479
500.0,74.1126839474393,82.69674967616024,82.98049974400132,74.57077154361885,67.29589286767072,79.48894921537389
515.0,72.55477526184492,82.67940843630548,82.51522148513216,73.12459878508437,68.54919780450598,79.1326500258208
530.0,72.42129597378644,82.64293492570155,82.54332061431512,73.18286663628396,71.4039952962018,79.19579393798409
545.0,71.48959528561198,82.17940843630547,81.49475501782689,71.41841218473532,72.27823340931897,78.46471392193835
560.0,70.93855083142047,81.99674967616022,80.49096610079955,68.24122097062704,71.37948882723765,77.82702706293227
580.0,71.1093740032145,81.74293492570156,79.91130147078854,67.47631022860395,70.73293902045124,77.44606330450449
600.0,71.29913536951436,81.4608286134798,79.39942399675077,66.6669739225074,70.21517140623281,77.08772674578219
615.0,71.58982856673472,80.8790630956635,78.80212266458125,66.23067814392186,68.42432299064436,76.5109580778843
630.0,71.60131827952112,80.1790630956635,78.23556123858833,66.6724658854358,66.83181780095323,75.9050722097521
650.0,72.28239860760773,80.15078859213114,78.02954496442516,65.0275517664393,67.01001425019751,75.84736026294613
670.0,72.9549885703996,80.214568629094,77.49060472314113,64.25814755437597,68.2681691454316,75.80471970613505
690.0,73.97567604030067,80.44180105984287,77.47058279281885,65.34634671924317,68.77152297008763,76.07460085474875
710.0,74.98207858553647,80.64583613335523,77.3369185681081,66.09349330192069,67.79492946703085,76.26902689401359
730.0,75.6780490426958,81.09760432183026,77.64514490518249,68.48256682999403,66.8694693359009,76.73536917932289
750.0,75.3226893227277,80.82842011477167,77.87740200741133,70.3293841641184,64.15177456701493,76.62392005736726
775.0,72.89772087749012,79.53660504903077,77.1814727883073,70.3640541143229,61.75412869010016,75.4157196953455
800.0,71.26164828862923,78.4004100917201,76.24636972502742,69.80752911104008,59.905536776760215,74.32135333568995
825.0,72.13861837434379,79.05345843440057,76.36555628485974,69.38186943602445,59.034419157714666,74.75846432346826
850.0,71.52844657579126,79.02626487750086,76.7814760095729,68.8814556470407,60.43302168433354,74.78931103341061
875.0,71.63434150198738,78.94452072681787,76.89774316524755,69.39388058029056,62.09607276136184,74.8362682503617
900.0,71.98467612443076,78.84066805894,77.07235924862431,69.78693738017435,62.10613089567737,74.89875987292604
925.0,72.0230597833064,78.83392657477243,77.06249214861467,69.65630579235705,62.69448936219132,74.89480174826878
950.0,72.74436384145739,79.09723682439925,77.31888731293625,70.56311815368116,63.28637820448316,75.25035383155009
975.0,72.30932519572144,79.22361102993712,77.3142970245324,71.03573688957144,63.67365119499232,75.30333773050086
1000.0,72.58220943809869,79.84142122357895,77.70208805326331,71.71956006492775,64.44238087244591,75.82265318230553
1030.0,72.67455543841902,79.94464246181273,77.92145272141806,72.93842446025786,65.19113239003687,76.0678245532789
1060.0,72.2715639669012,79.71173806284328,77.88359588534018,72.88720990801079,65.83287167768802,75.91395306023024
1090.0,71.50797077657876,79.5434804550554,77.6191527155626,72.15505940540237,66.27979232518416,75.62631930694408
1120.0,71.49980630871411,79.55952182660569,77.42376322321526,71.47093630502255,65.49920398078038,75.49773003659692
1150.0,71.28954013386051,79.03538998854157,77.07784639513962,70.6661964447382,64.30511593553376,75.02202300363624
1180.0,70.43966428643986,78.83934630743582,76.82674149275692,69.99596283972721,63.28738972093804,74.70982385812064
1220.0,70.12081413224277,79.12919414341292,77.04748126918405,70.13306909030007,63.235378141120634,74.91923363766898
1250.0,69.91268394743928,79.0305137333754,77.28120588264804,70.33956296292249,63.664980043161435,74.95277230864643
1280.0,71.51067263765292,79.16573825599008,77.22213021547338,70.74083268981182,63.55630455445643,75.14706180707844
1320.0,71.94001952597672,79.31593790484337,77.0997123399981,70.18308165338787,63.125693204355784,75.18054254095256
1360.0,72.46407454863856,79.59213001984935,78.29167932308961,70.74189551341635,63.411604573656206,75.80257939188112
1400.0,72.53527749181967,79.99632446776457,78.85866955826384,70.69491895438993,63.36884930626968,76.20427743749909
1450.0,72.65638566828014,80.32091873225968,79.1836327055523,70.73829280164773,63.44049641739963,76.49391109965248
1500.0,72.02285902893765,80.17283936115649,79.21685898844166,70.8379970696856,63.761161729402914,76.39483020835463
1550.0,72.13012065974809,80.18558171302573,78.8734273632933,70.87976518489484,64.08887168010936,76.2871027392322
1600.0,71.03639559608384,79.56802620275033,78.22977714218639,70.60451941174315,63.401345831911755,75.64507790817339
1650.0,70.63538998854158,79.44868979546669,78.08269804642975,70.26229237194377,62.74506622796736,75.47692448690766
1700.0,69.72406570094887,79.44293749353616,77.87091371352625,70.18663740240348,62.69329923404584,75.33752706983023
1750.0,69.30211937923572,79.46741550266303,78.48844950910119,69.80225268935911,62.64744911765678,75.53823709696002
1800.0,69.12750344434271,79.45161518075885,79.14658704636032,69.46189767380622,61.29012644360755,75.7670484469127
1850.0,70.36161973556077,79.70872854150458,79.70081317806462,69.3426881460756,61.87820706451389,76.18802838888568
1900.0,71.16512351383327,79.77713599328055,79.91243031552477,69.00311238020463,62.2824077949531,76.3491863591417
1950.0,72.32576674353639,80.11969876875257,79.91096361333157,68.2157560202042,60.603207046006304,76.54424290636473
2000.0,72.05025578468579,79.98981795749586,79.06085619207764,67.58612912875785,61.495523041487914,76.09594575566712
2060.0,71.88031664163967,79.78946817155702,78.33627279667493,67.17864442172089,63.291300992234184,75.71050320529864
2120.0,71.73681812560264,79.4487847660119,77.80430598173447,66.85814270355093,63.902052145171396,75.33059065370601
2180.0,71.77877279216798,79.13407907270499,77.59664820421435,67.11842943307857,62.85539201683825,75.0937767073335
2240.0,70.74265852243599,79.21811929887417,77.53683017930902,68.05194353974584,62.46779594802375,75.05835507903284
2300.0,70.64530137169953,79.62819407872959,77.94898524208324,68.45196953608104,62.49348668702817,75.42907868144599
2360.0,72.30141428554171,80.28138882659592,77.58403174813864,67.89582449558432,63.15603993847971,75.78049306074149
2400.0,72.957468736753,80.48701062272036,76.7102603931947,67.6934241813273,63.38021089348709,75.7186349658235
2500.0,72.80920172975587,80.42902088527353,75.54054787192227,68.9168196132245,63.15353751372618,75.44444632455038
2580.0,71.8325213190912,80.26455411461896,74.93752150810253,70.52858135852652,63.148758920993714,75.21296297512869
2650.0,70.41118670939917,79.94007955655918,75.5178421507265,71.7438792939369,62.522055984225474,75.10488285357162
2720.0,70.42527649365192,79.83228476839578,75.45757255941811,71.51153202730416,61.11226040384629,74.99224612040224
2800.0,70.10710507047831,80.34928647933918,75.22129057359572,70.69662212856109,59.967192943215025,75.17546167346559
2900.0,71.67524590731145,81.14583140390198,75.64302282599044,69.87196316006987,59.472849861260755,75.84700049556274
3000.0,71.52563080244187,81.06024631163811,75.57293222049532,68.94665458256172,59.97431581955006,75.7236673133915
3070.0,71.13749701043317,80.4422470214995,75.71332161440766,67.44634006764862,57.80564719924965,75.24108368345367
3150.0,71.02694179216238,80.06717854541961,75.52556734930305,66.44270155091867,54.98379065740863,74.9035363641188
3250.0,70.28473965839736,80.12236216959829,75.20189998388904,65.65429463159823,54.07369669088928,74.78839723149976
3350.0,69.5029747184299,80.32081469862047,75.31170343816798,65.40947365830975,52.638997625948974,74.89169950639422
