Freq "Floor Bounce"
22.4 18.279019697005253
23.0 19.37527174076422
23.6 20.180678536250866
24.0 22.18888863538649
25.0 23.232095853145495
25.8 24.540662562913326
26.5 25.644157749348523
27.2 30.0012357262664
28.0 35.26419800295963
29.0 40.045767194384695
30.0 43.86820626411151
30.7 42.90920925226936
31.5 43.41916705502754
32.5 44.621174040896335
33.5 47.2760917544922
34.5 49.81430637862283
35.5 52.023496850659825
36.5 53.82104166298748
37.5 55.457681278219525
38.7 56.93331023801676
40.0 58.8148352363348
41.2 61.4122717831562
42.5 62.7595316600418
43.7 63.24283030471973
45.0 65.13513059177981
46.2 66.86845083805433
47.5 68.13513059177983
48.7 69.33358982687997
50.0 70.80076749445563
51.5 72.26769521305295
53.0 73.53513059177983
54.5 74.90076749445562
56.0 76.30076749445561
58.0 77.60076749445562
60.0 78.60076749445562
61.5 79.20076749445562
63.0 79.56845083805432
65.0 80.00306957104253
67.0 80.57150800786938
69.0 80.90690501035459
71.0 81.20690501035459
73.0 81.34283030471974
75.0 81.34283030471974
77.5 81.4122717831562
80.0 81.61227178315617
82.5 81.71227178315618
85.0 81.81227178315619
87.5 81.91227178315619
90.0 82.11227178315619
92.5 82.47609175449222
95.0 82.74283030471975
97.5 82.81227178315618
100.0 82.68623512455238
103.0 82.29897445130925
106.0 82.13752777300029
109.0 82.2096325668162
112.0 82.56588846059688
115.0 83.08982856673472
118.0 83.44898514879551
122.0 83.28982856673473
125.0 82.44898359150842
128.0 82.03546263134682
132.0 81.93546263134682
136.0 81.75062128010364
140.0 81.692378988098
145.0 81.792378988098
150.0 82.07641629732152
155.0 82.39506458035831
160.0 82.66194867563766
165.0 82.56194867563767
170.0 81.95062128010363
175.0 81.08538710465898
180.0 80.98538710465898
185.0 81.42526453928849
190.0 81.492378988098
195.0 81.06136837622765
200.0 80.32643297742509
206.0 79.87695775614918
212.0 79.92990957385145
218.0 80.6809849055068
224.0 81.18161208533421
230.0 81.25865724017869
236.0 81.20330383828929
240.0 80.92643297742508
250.0 80.85098823501218
258.0 80.90473949550547
265.0 80.95098823501218
272.0 81.09780984381857
280.0 81.07695775614917
290.0 81.00432912249856
300.0 80.86322504785602
307.0 81.0137899675559
315.0 81.64449659419708
325.0 81.44465953615897
335.0 81.36443680503089
345.0 81.14132986207626
355.0 81.35299799878153
365.0 82.08327228731432
375.0 82.99736051976008
387.0 83.75299799878154
400.0 83.75904530613343
412.0 83.24321526348382
425.0 81.21780002610535
437.0 79.90907886704532
450.0 79.05825149212043
462.0 77.8175335999225
475.0 76.96567940610035
487.0 76.19647446859753
500.0 74.11268394743928
515.0 72.55477526184492
530.0 72.42129597378644
545.0 71.48959528561198
560.0 70.93855083142049
580.0 71.1093740032145
600.0 71.29913536951437
615.0 71.58982856673472
630.0 71.60131827952112
650.0 72.28239860760772
670.0 72.95498857039962
690.0 73.97567604030068
710.0 74.98207858553646
730.0 75.67804904269579
750.0 75.32268932272768
775.0 72.8977208774901
800.0 71.26164828862923
825.0 72.13861837434378
850.0 71.52844657579128
875.0 71.63434150198738
900.0 71.98467612443078
925.0 72.02305978330638
950.0 72.74436384145739
975.0 72.30932519572146
1000.0 72.58220943809869
1030.0 72.67455543841902
1060.0 72.27156396690118
1090.0 71.50797077657874
1120.0 71.49980630871411
1150.0 71.28954013386053
1180.0 70.43966428643986
1220.0 70.12081413224277
1250.0 69.91268394743929
1280.0 71.5106726376529
1320.0 71.94001952597671
1360.0 72.46407454863855
1400.0 72.53527749181967
1450.0 72.65638566828012
1500.0 72.02285902893766
1550.0 72.13012065974809
1600.0 71.03639559608382
1650.0 70.63538998854156
1700.0 69.72406570094887
1750.0 69.30211937923572
1800.0 69.1275034443427
1850.0 70.36161973556075
1900.0 71.16512351383325
1950.0 72.3257667435364
2000.0 72.05025578468579
2060.0 71.88031664163968
2120.0 71.73681812560265
2180.0 71.77877279216798
2240.0 70.74265852243599
2300.0 70.64530137169953
2360.0 72.30141428554172
2400.0 72.95746873675299
2500.0 72.80920172975588
2580.0 71.8325213190912
2650.0 70.41118670939919
2720.0 70.42527649365194
2800.0 70.1071050704783
2900.0 71.67524590731145
3000.0 71.52563080244187
3070.0 71.13749701043317
3150.0 71.02694179216239
3250.0 70.28473965839736
3350.0 69.5029747184299
3450.0 68.63012177221654
3550.0 68.24314683892158
3650.0 68.27872996753788
3750.0 67.37611856531714
3870.0 71.33483771785994
4000.0 72.8297766933139
4120.0 71.9933340536745
4250.0 68.96988350036803
4370.0 65.55198202953548
4500.0 67.48204905670954
4620.0 70.01488522805641
4750.0 70.93770442221124
4870.0 71.90131908355202
5000.0 72.98869382937241
5150.0 70.76992356534289
5300.0 66.38889112100992
5450.0 70.0652117620488
5600.0 71.13449694180385
5800.0 70.32545815781764
6000.0 71.49319177611086
6150.0 72.70958979295858
6300.0 71.67397173071404
6500.0 70.95550427028118
6700.0 69.13222148043009
6900.0 71.19979324095615
7100.0 73.0274572770988
7300.0 64.41701192369334
7500.0 69.57548434838012
7750.0 70.373013629039
8000.0 74.0599427951302
8250.0 71.46521176204881
8500.0 71.1315929864348
8750.0 67.43852903156025
9000.0 68.7770148412169
9250.0 67.85075354203076
9500.0 64.73610707977349
9750.0 63.67192763121038
10000.0 66.32044115374019
10300.0 67.01704346558392
10600.0 63.88932764548541
10900.0 70.58928796039235
11200.0 73.69203895462992
11500.0 65.05768590552077
11800.0 72.33136796790777
12200.0 70.25558701826128
12500.0 66.88120401425272
12800.0 66.48123963037898
13200.0 67.0964130865138
13600.0 66.57418318544418
14000.0 66.99062395440706
14500.0 72.54835241782507
15000.0 70.49678547922807
15500.0 65.98393255126697
16000.0 68.18731709650115
16500.0 61.06403871606757
17000.0 70.0946013003708
17500.0 70.41632776773393
18000.0 64.38765298438722
18500.0 59.95135616143736
19000.0 60.12081609225996
19500.0 53.50400168483236
