Freq "Front Wall Bounce"
22.4 18.73586698452567
23.0 19.73408467149764
23.6 23.0817148985399
24.0 26.66048637840359
25.0 25.42120458630862
25.8 25.63522110188339
26.5 25.56578011588067
27.2 31.677404749803117
28.0 35.21427419238873
29.0 38.06355678864048
30.0 40.03730585952468
30.7 41.86052564989217
31.5 44.506043540458876
32.5 46.7115780473153
33.5 48.53198627215872
34.5 50.43108675663174
35.5 52.21542884970296
36.5 53.96580351577788
37.5 55.58051440212307
38.7 57.148226656465084
40.0 58.434307602493675
41.2 59.7502330560568
42.5 61.70181442943242
43.7 63.847668655733074
45.0 65.93672314340223
46.2 67.4147553152921
47.5 68.58651449586095
48.7 69.84346508697897
50.0 71.30163697981934
51.5 72.7147553152921
53.0 73.98585448910238
54.5 75.28585448910238
56.0 76.64346508697898
58.0 77.9147553152921
60.0 78.9147553152921
61.5 79.58585448910237
63.0 80.12880715674527
65.0 80.72880715674529
67.0 81.21508314243883
69.0 81.60229476693692
71.0 81.92979499755904
73.0 82.1590700361194
75.0 82.23175513861906
77.5 82.30229476693692
80.0 82.50229476693693
82.5 82.60229476693692
85.0 82.70229476693692
87.5 82.88748929892041
90.0 83.02979499755905
92.5 83.35840584504064
95.0 83.61508314243883
97.5 83.81508314243885
100.0 83.82979499755905
103.0 83.73175513861906
106.0 83.70489499373622
109.0 83.71998423401445
112.0 83.91998423401444
115.0 84.26035311823196
118.0 84.58748929892042
122.0 84.58748929892042
125.0 84.11998423401442
128.0 83.96528715999551
132.0 83.93924275721992
136.0 83.93924275721992
140.0 83.9136394060688
145.0 83.9677916354448
150.0 84.0677916354448
155.0 84.25000634017073
160.0 84.43175513861907
165.0 84.43175513861907
170.0 84.14865957364795
175.0 83.63924275721993
180.0 83.51363940606882
185.0 83.7677916354448
190.0 83.8677916354448
195.0 83.71363940606881
200.0 83.4351604799582
206.0 83.19867242696347
212.0 83.2268345531296
218.0 83.6351604799582
224.0 83.9136394060688
230.0 84.1136394060688
236.0 84.23924275721991
240.0 84.1136394060688
250.0 84.1136394060688
258.0 84.2136394060688
265.0 84.3136394060688
272.0 84.48847217927516
280.0 84.6351604799582
290.0 84.80433100962668
300.0 84.8268345531296
307.0 84.85086213388185
315.0 85.58664191481758
325.0 85.88664191481759
335.0 85.97933498230337
345.0 85.90470702014275
355.0 86.18147278830732
365.0 86.75990168395997
375.0 87.34124799874559
387.0 88.03425292632065
400.0 88.35268458216538
412.0 87.99963940497851
425.0 86.86690313153268
437.0 86.19748995195553
450.0 85.71791536668759
462.0 85.1096803183575
475.0 84.73377777961883
487.0 84.01522148513217
500.0 82.98049974400132
515.0 82.51522148513216
530.0 82.54332061431512
545.0 81.49475501782689
560.0 80.49096610079954
580.0 79.91130147078853
600.0 79.39942399675076
615.0 78.80212266458125
630.0 78.23556123858832
650.0 78.02954496442514
670.0 77.49060472314112
690.0 77.47058279281885
710.0 77.33691856810812
730.0 77.64514490518248
750.0 77.87740200741135
775.0 77.18147278830732
800.0 76.2463697250274
825.0 76.36555628485975
850.0 76.78147600957288
875.0 76.89774316524756
900.0 77.07235924862431
925.0 77.06249214861468
950.0 77.31888731293627
975.0 77.31429702453238
1000.0 77.7020880532633
1030.0 77.92145272141806
1060.0 77.88359588534018
1090.0 77.61915271556259
1120.0 77.42376322321527
1150.0 77.0778463951396
1180.0 76.82674149275692
1220.0 77.04748126918406
1250.0 77.28120588264805
1280.0 77.22213021547337
1320.0 77.09971233999812
1360.0 78.2916793230896
1400.0 78.85866955826384
1450.0 79.1836327055523
1500.0 79.21685898844164
1550.0 78.8734273632933
1600.0 78.22977714218638
1650.0 78.08269804642974
1700.0 77.87091371352625
1750.0 78.48844950910117
1800.0 79.14658704636034
1850.0 79.70081317806464
1900.0 79.91243031552476
1950.0 79.91096361333159
2000.0 79.06085619207764
2060.0 78.33627279667493
2120.0 77.80430598173447
2180.0 77.59664820421435
2240.0 77.536830179309
2300.0 77.94898524208324
2360.0 77.58403174813863
2400.0 76.7102603931947
2500.0 75.54054787192224
2580.0 74.93752150810255
2650.0 75.5178421507265
2720.0 75.45757255941813
2800.0 75.22129057359574
2900.0 75.64302282599043
3000.0 75.57293222049533
3070.0 75.71332161440765
3150.0 75.52556734930305
3250.0 75.20189998388905
3350.0 75.311703438168
3450.0 75.64284536145006
3550.0 76.50835579218426
3650.0 77.04255085976271
3750.0 77.4455052127193
3870.0 77.50884242481247
4000.0 77.30865245724264
4120.0 77.46726020044397
4250.0 76.23458148312943
4370.0 75.23638669665311
4500.0 74.73477434153969
4620.0 74.82433873404574
4750.0 73.87244889359056
4870.0 73.06472116590052
5000.0 74.93918305143347
5150.0 76.0525911865331
5300.0 75.18637591361936
5450.0 74.9938745029117
5600.0 76.7897084275936
5800.0 77.6159497938973
6000.0 78.45048814173224
6150.0 78.99248872774079
6300.0 79.30093162373022
6500.0 78.87576437614644
6700.0 77.80878637628707
6900.0 79.30240821044916
7100.0 78.3163522211041
7300.0 77.97330839046552
7500.0 79.28049256613045
7750.0 78.48922950360148
8000.0 80.22459871519456
8250.0 80.27014027457389
8500.0 79.59210461569367
8750.0 79.46510303956369
9000.0 79.50118534273737
9250.0 78.98799200229593
9500.0 79.72151218733978
9750.0 78.93394218358551
10000.0 79.09570961796074
10300.0 79.02632962633993
10600.0 79.46236030450487
10900.0 78.94472933360927
11200.0 80.62114734627285
11500.0 79.6699321150113
11800.0 77.6080262634869
12200.0 75.43500128557885
12500.0 75.42158793309832
12800.0 72.67353838151753
13200.0 73.7144043412872
13600.0 70.08448974086184
14000.0 71.57694005063473
14500.0 75.07986310413244
15000.0 74.24543780915519
15500.0 71.6076759299863
16000.0 73.0858080265304
16500.0 66.46601098000184
17000.0 72.24727976658875
17500.0 71.89480751992929
18000.0 69.10038971978904
18500.0 68.69114963358375
19000.0 65.30835936023527
19500.0 58.14417245882197
