Freq "Total Early Reflection"
22.4 21.086314457900414
23.0 22.315755853025337
23.6 24.240098553340914
24.0 27.47160815220525
25.0 29.943315620106432
25.8 32.68976497263148
26.5 34.116394245789024
27.2 34.98200359971679
28.0 37.513625832983905
29.0 41.29391887427175
30.0 44.382064893555025
30.7 44.58482755622276
31.5 46.00952441541418
32.5 47.65956292360883
33.5 50.007355328570725
34.5 52.36521995708557
35.5 54.55540610621395
36.5 56.38936857405869
37.5 58.045464802650855
38.7 59.661828576836854
40.0 61.40601644115179
41.2 63.68008182997821
42.5 65.21151397157979
43.7 66.18784012625486
45.0 67.91892011116988
46.2 69.53474592035936
47.5 70.78275441205025
48.7 71.99711177293636
50.0 73.45176985853021
51.5 74.8889035402907
53.0 76.18127645414492
54.5 77.51121243722706
56.0 78.93385425870311
58.0 80.23012242630392
60.0 81.23789931683706
61.5 81.89531723063098
63.0 82.28483833493215
65.0 82.72541433570325
67.0 83.21782081041529
69.0 83.58098258029639
71.0 83.85376034795948
73.0 83.98499721777856
75.0 83.99515920555797
77.5 84.02492880043803
80.0 84.22149364185103
82.5 84.34341465581605
85.0 84.46266838161003
87.5 84.62942216891929
90.0 84.8084907726533
92.5 85.21510803889582
95.0 85.58800494247659
97.5 85.76266786166155
100.0 85.64896937331437
103.0 85.19847508989773
106.0 84.97458012178598
109.0 84.92192794865683
112.0 85.20509454195107
115.0 85.74609911990675
118.0 86.26605668997028
122.0 86.27343683286554
125.0 85.52091979993092
128.0 85.01856930648647
132.0 85.00208567733053
136.0 84.87497055261684
140.0 84.729062829127
145.0 84.68561871806268
150.0 84.8239303743458
155.0 85.13608830026992
160.0 85.4496258179037
165.0 85.47369495033517
170.0 84.98442826961292
175.0 84.21202340601587
180.0 83.92957105064964
185.0 84.29873275463942
190.0 84.57891487488678
195.0 84.46561014139972
200.0 83.89752369546385
206.0 83.43307399026224
212.0 83.34897989770667
218.0 83.75334264388128
224.0 84.10722556371869
230.0 84.32276840064459
236.0 84.39639296285581
240.0 84.21535645772683
250.0 84.12502629516693
258.0 84.18094288794533
265.0 84.29614460060276
272.0 84.49192265288136
280.0 84.57500587559221
290.0 84.63355994593587
300.0 84.54399499353036
307.0 84.53571743163255
315.0 85.2802378286855
325.0 85.46294735099129
335.0 85.5030931086396
345.0 85.36919485163207
355.0 85.55362308862674
365.0 86.05752737600453
375.0 86.64138652025134
387.0 87.20500831459395
400.0 87.42805321099956
412.0 86.9760296236799
425.0 85.8055271991975
437.0 85.06488571478523
450.0 84.53664807667104
462.0 83.83058184429235
475.0 83.48632786969716
487.0 82.7735278383694
500.0 81.7788226330954
515.0 81.4225234435423
530.0 81.4856673557056
545.0 80.75458733965986
560.0 80.11690048065378
580.0 79.735936722226
600.0 79.3776001635037
615.0 78.8008314956058
630.0 78.19494562747361
650.0 78.13723368066763
670.0 78.09459312385655
690.0 78.36447427247026
710.0 78.5589003117351
730.0 79.0252425970444
750.0 78.91379347508877
775.0 77.70559311306701
800.0 76.61122675341146
825.0 77.04833774118977
850.0 77.07918445113212
875.0 77.1261416680832
900.0 77.18863329064754
925.0 77.18467516599028
950.0 77.5402272492716
975.0 77.59321114822237
1000.0 78.11252660002704
1030.0 78.3576979710004
1060.0 78.20382647795175
1090.0 77.91619272466559
1120.0 77.78760345431843
1150.0 77.31189642135774
1180.0 76.99969727584215
1220.0 77.20910705539049
1250.0 77.24264572636794
1280.0 77.43693522479995
1320.0 77.47041595867407
1360.0 78.09245280960263
1400.0 78.4941508552206
1450.0 78.78378451737399
1500.0 78.68470362607614
1550.0 78.5769761569537
1600.0 77.9349513258949
1650.0 77.76679790462917
1700.0 77.62740048755174
1750.0 77.82811051468153
1800.0 78.0569218646342
1850.0 78.47790180660719
1900.0 78.6390597768632
1950.0 78.83411632408624
2000.0 78.38581917338863
2060.0 78.00037662302014
2120.0 77.62046407142752
2180.0 77.38365012505501
2240.0 77.34822849675434
2300.0 77.7189520991675
2360.0 78.070366478463
2400.0 78.008508383545
2500.0 77.7343197422719
2580.0 77.5028363928502
2650.0 77.39475627129313
2720.0 77.28211953812375
2800.0 77.4653350911871
2900.0 78.13687391328425
3000.0 78.01354073111301
3070.0 77.53095710117518
3150.0 77.19340978184032
3250.0 77.07827064922127
3350.0 77.18157292411573
3450.0 77.26840381802153
3550.0 77.44775375277806
3650.0 77.81249563004363
3750.0 77.84388759181992
3870.0 77.73578479477757
4000.0 77.28114536746784
4120.0 77.09979517518786
4250.0 76.22906100036572
4370.0 75.24225262683552
4500.0 75.29665144803909
4620.0 76.66487764587708
4750.0 77.02724707603045
4870.0 76.7790592037735
5000.0 77.37219964357455
5150.0 77.32236830881695
5300.0 76.11928223737422
5450.0 75.65069902623652
5600.0 76.62930868440804
5800.0 77.88472085944485
6000.0 78.43417298757103
6150.0 78.94815393121623
6300.0 79.33482280921754
6500.0 79.66493874590915
6700.0 78.34974400485255
6900.0 78.8048891983908
7100.0 78.50673260810252
7300.0 76.76946174811374
7500.0 77.16778232375424
7750.0 77.25356242372993
8000.0 78.82216880083607
8250.0 78.41034655350748
8500.0 77.30229162875136
8750.0 76.65955813517326
9000.0 77.011073329036
9250.0 76.6442346629402
9500.0 76.75019395591494
9750.0 76.12702413455295
10000.0 76.45765907202961
10300.0 75.68707622697713
10600.0 76.5995955926218
10900.0 77.60881309525762
11200.0 78.20744150617328
11500.0 76.87104479474286
11800.0 76.5800968758059
12200.0 74.85485946479187
12500.0 73.83754114342292
12800.0 73.39520401912537
13200.0 74.32997372976695
13600.0 73.15219670606736
14000.0 74.75350304332862
14500.0 75.87737219073131
15000.0 79.65252231408225
15500.0 76.60207301986571
16000.0 73.5753620018408
16500.0 69.73138173986561
17000.0 75.10680072756689
17500.0 78.4726695419705
18000.0 72.36839409801162
18500.0 70.04396051422015
19000.0 64.75888491905494
19500.0 57.922636533363146
