Freq,On Axis,Listening Window,Sound Power,Early Reflections,Early Reflections DI,Sound Power DI,DI offset
20.5078,46.62649999999999,46.20393044295818,45.03244863180103,45.198862186552844,41.00506825640534,41.17148181115715,40
21.9727,48.84989999999999,48.48138656410492,46.116807720827325,47.08758889516079,41.39379766894413,42.3645788432776,40
23.4375,50.8861,50.54615255995046,46.98426323982406,48.821510190621126,41.72464236932933,43.5618893201264,40
24.9023,51.41729999999998,51.04091605615059,48.365074894711825,49.54026001546501,41.500656040685584,42.67584116143877,40
26.3672,52.95140000000001,52.57404148555452,49.88471849078374,51.06308760241936,41.51095388313516,42.68932299477078,40
27.832,55.079499999999996,54.7307714633877,51.32226081890451,53.0437439032537,41.687027560134,43.40851064448319,40
29.2969,56.524100000000004,56.17331139010798,52.7692069389515,54.48829287362534,41.68501851648264,43.404104451156485,40
30.7617,57.92580000000001,57.57388556310144,54.17581956256922,55.888338804255824,41.68554675884562,43.398066000532225,40
32.2266,59.24680000000001,58.89058393022853,55.56801843960076,57.21722196044712,41.67336196978141,43.32256549062777,40
33.6914,60.70830000000001,60.35249839867886,56.98743745887853,58.66509086408735,41.687407534591514,43.36506093980033,40
35.1563,62.174499999999995,61.820056468382205,58.389695677187575,60.11203710516227,41.70801936321993,43.43036079119463,40
36.6211,63.5844,63.22967727174664,59.77686720971809,61.51477764638858,41.71489962535806,43.45281006202855,40
38.0859,64.8709,64.51366154140047,61.10238570445671,62.80372871866312,41.70993282273734,43.41127583694376,40
39.5508,66.1538,65.79444628805302,62.401061433092835,64.0839819258761,41.71046436217692,43.39338485496019,40
41.0156,67.5745,67.22109475754131,63.66872162107532,65.47580506385101,41.745289693690296,43.55237313646599,40
42.4805,68.588,68.22480478909922,64.88138602640299,66.51858393922413,41.706220849875095,43.34341876269623,40
43.9453,69.5768,69.21728699162485,65.76963936145273,67.49081202495964,41.72647496666521,43.44764763017211,40
45.4102,70.40039999999999,70.03337215618777,66.71973712848637,68.32106010856326,41.71231204762451,43.313635027701395,40
46.875,71.3873,71.02393182632997,67.6166215448157,69.28221243548458,41.74171939084539,43.40731028151427,40
48.3398,72.6009,72.23490311814011,68.83903666270747,70.4935302619068,41.74137285623331,43.39586645543264,40
51.2695,73.9725,73.60273768686373,70.25199876221869,71.86807621182155,41.73466147504219,43.35073892464504,40
52.7344,74.1962,73.82513692514033,70.47615028637048,72.08794069836343,41.7371962267769,43.348986638769844,40
54.1992,74.4041,74.03208018197066,70.6790069277971,72.28909044363296,41.7429897383377,43.35307325417355,40
55.6641,74.5163,74.14435639605016,70.77207958607312,72.39091968706023,41.75343670898992,43.37227680997704,40
58.5938,74.3483,73.97479562362895,70.59809390753485,72.21529543541966,41.75950018820929,43.376701716094104,40
60.0586,74.32409999999999,73.95092304209348,70.5617248973667,72.18371149936813,41.76721154272535,43.38919814472678,40
62.9883,74.6806,74.30844956339475,70.8401851820949,72.51920050317158,41.78924906022317,43.468264381299846,40
64.4531,74.8483,74.47311405227097,71.07395848885353,72.6990371259552,41.77407692631577,43.39915556341744,40
67.3828,75.7242,75.35862773586676,71.71849705885056,73.5265159772251,41.83211175864166,43.6401306770162,40
68.8477,75.90089999999998,75.53292360473895,71.9401960801454,73.71263162592616,41.82029197881279,43.592727524593556,40
71.7773,76.511,76.14309849112209,72.55447248813323,74.32520765795549,41.8178908331666,43.58862600298886,40
74.707,77.1007,76.73449016708098,73.10370429507526,74.9076579588124,41.826832208268584,43.63078587200572,40
77.6367,77.4363,77.06884701972237,73.4551091390022,75.2457928770558,41.823054142666564,43.613737880720166,40
79.1016,77.44819999999999,77.08000522527654,73.47809715393097,75.2591125779687,41.82089264730784,43.60190807134556,40
82.0313,77.4972,77.12721378228474,73.54737444879686,75.30882094342009,41.81839283886465,43.57983933348788,40
84.9609,77.4743,77.10421073420646,73.49179643289605,75.27331753998452,41.83089319422194,43.61241430131041,40
87.8906,77.429,77.05876469182101,73.41257083042703,75.21494244358217,41.84382224823884,43.64619386139398,40
90.8203,77.3441,76.972313712929,73.3351011701474,75.12522756183779,41.847086151091204,43.6372125427816,40
95.2148,77.1345,76.76060475239902,73.1151091530158,74.89995652100524,41.86064823139378,43.645495599383224,40
98.1445,76.9941,76.61881976807926,72.97052484174219,74.74975763961118,41.86906212846809,43.64829492633707,40
101.074,76.9301,76.553452400098,72.8926874614886,74.6739431720185,41.8795092280795,43.66076493860939,40
105.469,77.0013,76.62315181185816,72.95633263263532,74.73309624105488,41.890055570803284,43.66681917922284,40
108.398,76.9677,76.58757643065093,72.91753480342845,74.68746594013962,41.90011049051131,43.670041627222474,40
112.793,77.0882,76.70921078041935,72.97889011938045,74.78705435742302,41.92215642299634,43.7303206610389,40
117.188,77.2186,76.83780678455338,73.10356775973027,74.90286614976789,41.93494063478549,43.73423902482311,40
120.117,77.43209999999999,77.05028780474626,73.29333875675093,75.0985693502229,41.95171845452336,43.756949047995334,40
124.512,77.90039999999999,77.51815354863044,73.70829924871522,75.54251119329618,41.97564235533426,43.809854299915216,40
128.906,78.3639,77.9776025039873,74.15963722283922,75.98028005113082,41.99732245285648,43.817965281148076,40
133.301,78.5796,78.19081562490993,74.36991330495383,76.1813869567984,42.009428668111525,43.820902319956105,40
139.16,78.6637,78.2724851530152,74.42529923519238,76.24156677029029,42.030918382724906,43.84718591782281,40
143.555,78.7655,78.37439531140578,74.47093185589893,76.31793839839729,42.05645691300849,43.90346345550685,40
147.949,78.6988,78.30711485468308,74.38473329381506,76.23830014805952,42.068814706623556,43.92238156086802,40
153.809,78.8399,78.44587859669329,74.52629239430952,76.35614677424498,42.089731822448314,43.91958620238377,40
159.668,79.416,79.02032665605985,75.05761840246299,76.89779124692603,42.12253540913382,43.96270825359686,40
165.527,80.06639999999999,79.6679993821854,75.67160315547495,77.52833677300697,42.13966260917843,43.996396226710445,40
171.387,80.2497,79.84948199025452,75.81481231273642,77.67623132640118,42.17325066385334,44.034669677518096,40
177.246,80.2842,79.8812367076336,75.82560088217154,77.69365150890356,42.18758519873005,44.05563582546206,40
183.105,80.21459999999999,79.8101728100777,75.70342797654561,77.585471447438,42.224701362639706,44.10674483353209,40
188.965,80.212,79.80479239731267,75.63934781586232,77.5397923290643,42.26500006824837,44.165444581450345,40
196.289,80.2441,79.83072302237593,75.64266129873914,77.53831820016565,42.29240482221029,44.18806172363679,40
203.613,80.20950000000002,79.79243005507206,75.52417474176002,77.45511330557802,42.337316749494036,44.26825531331204,40
210.938,80.1002,79.68011438076282,75.47604423499786,77.37851045747382,42.301603923288994,44.20407014576496,40
218.262,80.2886,79.86693820524331,75.62154852479631,77.52089130073443,42.34604690450888,44.245389680447005,40
225.586,80.6361,80.20821020289569,75.87800396122299,77.80478615818618,42.40342404470951,44.3302062416727,40
232.91,80.93880000000001,80.50320579507601,76.1531392435681,78.05478004852037,42.44842574655564,44.35006655150791,40
241.699,80.9507,80.50835104117813,76.05304682891958,78.00280504556696,42.50554599561117,44.455304212258554,40
250.488,81.2986,80.84890058264739,76.33792905599174,78.3152201326497,42.53368044999769,44.51097152665565,40
259.277,82.2992,81.83583473445384,77.2573858434804,79.2324797831563,42.60335495129755,44.57844889097343,40
268.066,83.3307,82.86731583397915,78.17420434605195,80.19444474372253,42.67287109025662,44.6931114879272,40
276.855,84.3998,83.92241204601005,79.16233301345466,81.2248253002761,42.69758674573396,44.760079032555396,40
287.109,85.2787,84.79495683274962,79.87467952974042,81.96833050496949,42.82662632778013,44.9202773030092,40
297.363,85.42319999999998,84.9312578040443,79.89342447331096,81.97857335042852,42.952684453615774,45.037833330733335,40
307.617,85.71599999999998,85.21123974305844,79.9822854349002,82.1807277637287,43.030511979329745,45.22895430815824,40
319.336,85.6445,85.12812136629837,79.85291374553307,82.00349441377504,43.12462695252333,45.2752076207653,40
329.59,86.08070000000001,85.55861589717242,80.05233224597296,82.29850397084121,43.260111926331206,45.50628365119945,40
341.309,86.5128,85.97906057037198,80.46399197459804,82.68772289991935,43.291337670452634,45.51506859577394,40
353.027,86.7568,86.22578242956686,80.65862929600377,82.85571832280489,43.37006410676197,45.567153133563096,40
366.211,86.2377,85.69876304353338,79.98124053977698,82.21885043214,43.479912611393374,45.7175225037564,40
379.395,85.7011,85.14938761428644,79.43816638232452,81.56025179201083,43.58913582227561,45.711221231961915,40
392.578,85.1745,84.62381912402101,78.88485203557272,81.01151439069551,43.6123047333255,45.73896708844829,40
405.762,84.49360000000001,83.93474255276115,78.37857903040342,80.35286821155628,43.581874341204866,45.556163522357735,40
420.41,85.0823,84.51693335244717,78.83225460819287,80.82600880282929,43.690924549617876,45.6846787442543,40
435.059,84.735,84.15573912080109,78.41930021911999,80.43700353035025,43.718735590450834,45.7364389016811,40
451.172,84.5825,84.00598961252717,78.34577719484196,80.31915303793028,43.686836574596896,45.660212417685216,40
465.82,83.9178,83.3415972990737,77.76379310609872,79.67144565556792,43.670151643505775,45.57780419297498,40
483.398,84.911,84.310172708428,78.48562333890814,80.51390942055377,43.796263287874226,45.82454936951986,40
499.512,85.0198,84.43564662586374,78.61503863849634,80.61048205169803,43.82516457416571,45.820607987367396,40
517.09,85.3083,84.70681550455991,78.60645128840439,80.70193240378765,44.00488310077226,46.100364216155526,40
536.133,85.0911,84.46557614634006,78.22122922707983,80.38851526030564,44.07706088603442,46.244346919260224,40
555.176,85.33260000000001,84.71399102211154,78.55765390996442,80.65806188435322,44.055929137758326,46.15633711214713,40
574.219,84.5584,84.00056886450568,78.14470898489063,80.07998708008533,43.92058178442035,45.85585987961505,40
594.727,84.5881,84.09914097532439,78.51705413528504,80.32840703915723,43.77073393616716,45.58208684003935,40
615.234,83.8176,83.40079190965864,78.12034979078199,79.81158342537213,43.5892084842865,45.28044211887665,40
637.207,84.01680000000002,83.60996535102018,78.2104826740477,79.95403008229775,43.65593526872243,45.39948267697248,40
659.18,82.6652,82.43807853750656,77.40457872676068,79.03052406588029,43.40755447162627,45.03349981074588,40
682.617,82.8042,82.59033722902393,77.4513931968662,79.07729873671852,43.51303849230541,45.138944032157724,40
707.52,83.6639,83.32013888496522,77.91234977919177,79.72828498977643,43.59185389518879,45.407789105773446,40
732.422,83.3294,83.14847758714947,78.01936869369646,79.75353382756087,43.3949437595886,45.12910889345301,40
757.324,82.7123,82.83205362934119,78.1604548026235,79.70076326907899,43.1312903602622,44.671598826717684,40
785.156,84.022,83.89099506574958,78.44634124225922,80.32969781060827,43.56129725514131,45.444653823490356,40
811.523,83.8253,83.7495789167256,78.53859442701716,80.35114854312357,43.398430373602025,45.21098448970844,40
840.82,83.50730000000001,83.64657645414152,78.45741991375291,80.27448920110405,43.37208725303748,45.18915654038861,40
870.117,82.1797,82.7003854447251,77.66121975593467,79.39728168805087,43.30310375667423,45.03916568879043,40
900.879,82.64500000000001,82.88840996460985,77.56674195621403,79.42517128065887,43.463238683950976,45.32166800839582,40
933.105,82.7234,82.98219016294125,77.76002160103799,79.5749124419428,43.40727772099845,45.22216856190326,40
965.332,81.4751,82.39672343153438,77.8199146358166,79.42134141821924,42.97538201331514,44.57680879571778,40
1000.49,82.3785,83.10690943289615,78.12624994168807,79.82401290172373,43.28289653117241,44.98065949120807,40
1035.64,83.1003,83.39693869291247,77.95516058043823,79.85275327360348,43.54418541930899,45.44177811247424,40
1072.27,81.5892,82.409462340325,77.37039039932458,79.11079820430452,43.29866413602049,45.03907194100043,40
1108.89,80.9796,82.29556503883458,77.29965170051233,79.03806105986793,43.25750397896665,44.995913338322254,40
1148.44,80.8906,82.14580855103874,76.92566004948843,78.80507194347402,43.34073660756472,45.22014850155031,40
1189.45,79.4023,81.3276500175847,76.6290173994917,78.30724845793196,43.02040155965274,44.698632618093,40
1230.47,81.7202,82.37896885189753,77.12452203537367,79.06222731735389,43.31674153454364,45.25444681652385,40
1274.41,81.6897,82.1693685034122,76.48793976925103,78.53681571291189,43.63255279050031,45.68142873416117,40
1319.82,82.0427,82.61616721651566,77.03110878131572,79.06770057808777,43.5484666384279,45.58505843519994,40
1366.7,80.7592,82.00324895432855,76.20597978767174,78.3723802544873,43.63086869984126,45.79726916665682,40
1413.57,79.8272,81.08851299417431,76.06608690421884,77.93283325659947,43.15567973757484,45.022426089955474,40
1463.38,83.4449,82.62638462981752,76.59834044291694,78.84446046621618,43.781924163601346,46.02804418690059,40
1516.11,83.7031,82.79627538045345,76.60159674297226,78.88295871571152,43.91331666474193,46.19467863748119,40
1568.85,83.1168,83.22978647701039,76.5945119503453,79.11764327644362,44.11214320056678,46.6352745266651,40
1624.51,81.9792,82.29668673899184,76.10978938485817,78.39116745251465,43.90551928647719,46.18689735413366,40
1681.64,83.2932,82.27492828773782,76.20048980596938,78.54422055813745,43.73070772960037,46.07443848176844,40
1741.7,84.3169,82.95903788198962,76.81887628454285,79.16487102929943,43.79416685269018,46.14016159744676,40
1803.22,83.1335,82.83774191250708,76.23674747248917,78.71158209722117,44.12615981528592,46.600994440017914,40
1866.21,82.8638,82.44956449897565,76.00035537493,78.47285490741044,43.97670959156521,46.44920912404565,40
1932.13,82.6902,82.18818230189903,76.2194604817946,78.46368525779283,43.7244970441062,45.968721820104435,40
1999.51,83.1599,82.25598304604642,76.45772334507052,78.59326445466357,43.662718591382855,45.798259700975905,40
2069.82,82.0668,81.77000131732606,75.81438282446574,78.10736222123165,43.66263909609441,45.955618492860324,40
2143.07,81.4311,81.43097988418529,76.10249121177335,78.12641170439721,43.30456817978808,45.328488672411936,40
2219.24,81.6175,81.49068518643594,76.25212576544084,78.24807231138122,43.24261287505472,45.2385594209951,40
2296.88,80.8006,80.64295340596117,75.82270976547417,77.66556693048287,42.9773864754783,44.82024364048699,40
2378.91,80.7529,80.88697382600566,76.17241198781204,77.96287020562792,42.924103620377736,44.71456183819362,40
2462.4,79.5181,80.15746358065587,76.10423907994864,77.6954032527701,42.462060327885766,44.05322450070723,40
2548.83,78.0094,79.23746091324963,75.55262990876692,76.94022372858645,42.29723718466319,43.68483100448272,40
2639.65,80.20339999999999,80.76629100352442,76.70321182338253,78.20224212838859,42.564048875135825,44.063079180141884,40
2731.93,80.4357,80.76021651036896,76.6761280796154,78.14309342824174,42.61712308212722,44.08408843075357,40
2828.61,80.2501,80.32147610590513,76.29977376054832,77.70916564799097,42.61231045791416,44.021702345356815,40
2928.22,80.94240000000002,80.81953843860776,76.4014394649012,77.95575137968848,42.863787058919286,44.41809897370656,40
3030.76,81.2902,81.0142838234415,76.60132024801582,78.17559689248293,42.83868693095857,44.41296357542568,40
3137.7,80.7359,80.6184701915968,76.66329210894445,78.05367672835017,42.56479346324663,43.95517808265235,40
3249.02,80.8099,80.8353748303079,76.60672056861699,78.12656748951004,42.70880734079786,44.228654261690906,40
3363.28,80.902,80.82660469288942,76.51728375933257,78.0393211005977,42.787283592291715,44.30932093355685,40
3481.93,81.1927,80.78891479400866,76.21244674808875,77.8331886432447,42.955726150763965,44.57646804591991,40
3604.98,81.3781,80.77148171111553,76.15167449522026,77.85398671745845,42.91749499365707,44.619807215895264,40
3732.42,80.75210000000001,80.38084819907259,75.62807957750283,77.3377929053334,43.04305529373919,44.75276862156976,40
3864.26,81.8801,81.40492518496916,76.33162807715621,78.13430039546763,43.270624789501525,45.07329710781295,40
4000.49,82.14599999999999,81.09547419909796,75.72983255969518,77.59670038326418,43.498773815833786,45.36564163940278,40
4141.11,82.76410000000001,81.48535357395212,75.76692549111809,77.81053660059989,43.674816973352236,45.71842808283404,40
4287.6,82.8245,81.57159551775496,75.86092375453805,77.90776527063124,43.66383024712371,45.71067176321691,40
4438.48,83.4675,81.84384062081841,75.71199000843585,77.99146473610533,43.852375884713084,46.131850612382564,40
4595.21,83.33270000000002,81.82977097063656,75.79382249524849,78.06297605089163,43.766794919744925,46.03594847538807,40
4756.35,82.8563,81.80968758770057,75.7888053227395,78.07580315209599,43.73388443560458,46.02088226496106,40
4924.8,82.1516,81.54279594585063,75.33104351748972,77.7055186647722,43.83727728107843,46.21175242836091,40
5097.66,82.014,81.69866271025163,75.3142795610739,77.76699864885646,43.93166406139517,46.38438314917772,40
5277.83,81.6013,81.28292085422152,74.79642720713052,77.3374905045002,43.94543034972132,46.486493647090995,40
5463.87,80.5643,80.1561854056884,73.78586219775758,76.29191221162134,43.86427319406707,46.370323207930824,40
5657.23,81.6745,80.62140717949241,74.05683872921466,76.73081461282543,43.89059256666698,46.56456845027775,40
5856.45,83.337,82.3473544310687,74.49770467656633,77.92501770789549,44.4223367231732,47.849649754502366,40
6062.99,84.5173,83.04633406912896,74.14135132707831,78.16270276901555,44.88363130011341,48.90498274205065,40
6276.86,83.7226,81.1620276929465,73.35900267856807,76.60741696820288,44.55461072474361,47.80302501437842,40
6498.05,81.6555,79.79921774111268,73.26774422332093,75.67297886304578,44.1262388780669,46.53147351779175,40
6726.56,82.89409999999998,81.3567782407687,73.02160375657549,76.71021481607987,44.646563424688836,48.33517448419322,40
6963.87,83.2815,81.91763459733897,73.06831137065286,77.18874254958305,44.72889204775592,48.84932322668611,40
7209.96,83.5559,81.82728154115485,72.47840034063422,76.90021191369303,44.92706962746182,49.34888120052062,40
7464.84,83.84729999999999,81.68845027320982,72.47075086707349,76.73126086808337,44.95718940512646,49.21769940613633,40
7727.05,82.1871,80.22435969530171,72.56999983027043,75.92424621995005,44.300113475351665,47.65435986503128,40
7999.51,80.1876,79.12531034274082,71.69395677963587,74.8944476718345,44.23086267090632,47.43135356310495,40
8282.23,81.3954,79.81873528791012,70.8966605515553,74.82345221722723,44.99528307068289,48.922074736354816,40
8573.73,82.30340000000001,80.31055602188566,70.81408138488229,75.15040755875792,45.16014846312774,49.496474637003374,40
8876.95,83.7098,80.44408971775358,71.04578079606961,75.35718007038923,45.08690964736435,49.39830892168398,40
9188.96,80.8648,79.12628842010872,70.63820541628557,74.27920148271329,44.84708693739543,48.48808300382315,40
9514.16,79.3354,78.42193381414441,69.59778257658513,73.33431897327152,45.08761484087289,48.82415123755928,40
9849.61,80.2246,78.6278398443338,69.42702821252205,73.42997881724635,45.197861027087455,49.20081163181176,40
10196.8,80.8605,78.41770992493409,69.19652237699138,73.51444440206888,44.90326552286521,49.221187547942705,40
10555.7,80.8461,78.06829729450261,68.5189140008821,73.28426769033943,44.78402960416318,49.54938329362051,40
10927.7,81.2489,78.39271901161868,68.74614988054824,73.81818699121145,44.57453202040723,49.646569131070436,40
11313.0,82.1833,78.95694324529792,69.02308161012208,74.42731005667432,44.529633188623606,49.933861635175845,40
11712.9,79.1928,76.93931298448803,68.6171277207731,73.22338399795734,43.715928986530685,48.32218526371493,40
12126.0,78.9678,76.59472966421566,68.12374432501186,72.49958305974921,44.09514660446645,48.47098533920381,40
