Freq,On Axis,Listening Window,Sound Power,Early Reflections,Early Reflections DI,Sound Power DI,DI offset
20.5078,46.62649999999999,46.20393044295818,45.03244863180103,45.198862186552844,41.00506825640534,41.17148181115715,40
21.9727,48.84989999999999,48.481386564104895,46.116807720827325,47.08758889516079,41.3937976689441,42.36457884327757,40
23.4375,50.8861,50.54615255995046,46.98426323982406,48.821510190621126,41.72464236932933,43.5618893201264,40
24.9023,51.41729999999998,51.04091605615059,48.365074894711825,49.54026001546501,41.500656040685584,42.67584116143877,40
26.3672,52.95140000000001,52.57404148555452,49.88471849078374,51.06308760241936,41.51095388313516,42.68932299477078,40
27.832,55.079499999999996,54.7307714633877,51.32226081890454,53.0437439032537,41.687027560134,43.40851064448316,40
29.2969,56.524100000000004,56.17331139010798,52.76920693895147,54.48829287362534,41.68501851648264,43.40410445115651,40
30.7617,57.92580000000001,57.57388556310144,54.17581956256922,55.888338804255795,41.685546758845646,43.398066000532225,40
32.2266,59.24680000000001,58.89058393022853,55.56801843960079,57.21722196044709,41.67336196978144,43.32256549062774,40
33.6914,60.70830000000001,60.352498398678875,56.9874374588785,58.66509086408735,41.68740753459153,43.36506093980037,40
35.1563,62.174499999999995,61.820056468382205,58.389695677187575,60.11203710516227,41.70801936321993,43.43036079119463,40
36.6211,63.58439999999999,63.22967727174665,59.77686720971809,61.514777646388566,41.714899625358086,43.45281006202856,40
38.0859,64.8709,64.51366154140048,61.10238570445671,62.80372871866314,41.70993282273734,43.41127583694377,40
39.5508,66.15379999999999,65.79444628805302,62.401061433092835,64.08398192587612,41.71046436217691,43.39338485496019,40
41.0156,67.5745,67.22109475754131,63.66872162107532,65.475805063851,41.74528969369031,43.55237313646599,40
42.4805,68.588,68.22480478909924,64.881386026403,66.51858393922411,41.70622084987512,43.34341876269623,40
43.9453,69.57680000000002,69.21728699162483,65.76963936145272,67.49081202495964,41.726474966665194,43.44764763017211,40
45.4102,70.4004,70.03337215618778,66.71973712848637,68.32106010856327,41.71231204762451,43.31363502770141,40
46.875,71.38730000000001,71.02393182632997,67.61662154481571,69.28221243548458,41.74171939084539,43.407310281514256,40
48.3398,72.6009,72.23490311814012,68.83903666270747,70.49353026190681,41.74137285623331,43.39586645543265,40
51.2695,73.9725,73.60273768686375,70.25199876221869,71.86807621182156,41.73466147504219,43.35073892464506,40
52.7344,74.1962,73.82513692514034,70.47615028637048,72.08794069836341,41.73719622677693,43.34898663876986,40
54.1992,74.4041,74.03208018197066,70.67900692779712,72.28909044363297,41.742989738337684,43.35307325417354,40
55.6641,74.5163,74.14435639605014,70.77207958607313,72.39091968706023,41.75343670898991,43.37227680997701,40
58.5938,74.3483,73.97479562362896,70.59809390753483,72.21529543541965,41.759500188209316,43.37670171609413,40
60.0586,74.3241,73.95092304209348,70.56172489736669,72.18371149936812,41.76721154272536,43.38919814472679,40
62.9883,74.6806,74.30844956339476,70.8401851820949,72.51920050317156,41.7892490602232,43.46826438129986,40
64.4531,74.8483,74.47311405227099,71.07395848885355,72.69903712595521,41.77407692631577,43.39915556341744,40
67.3828,75.7242,75.35862773586678,71.71849705885057,73.5265159772251,41.83211175864167,43.6401306770162,40
68.8477,75.9009,75.53292360473895,71.94019608014538,73.71263162592618,41.820291978812776,43.59272752459357,40
71.7773,76.511,76.1430984911221,72.55447248813321,74.32520765795547,41.81789083316663,43.58862600298889,40
74.707,77.10069999999999,76.73449016708098,73.10370429507526,74.9076579588124,41.826832208268584,43.63078587200572,40
77.6367,77.43630000000002,77.06884701972237,73.4551091390022,75.24579287705579,41.82305414266658,43.613737880720166,40
79.1016,77.4482,77.08000522527652,73.47809715393097,75.2591125779687,41.82089264730783,43.60190807134555,40
82.0313,77.49720000000002,77.12721378228474,73.54737444879684,75.3088209434201,41.81839283886464,43.5798393334879,40
84.9609,77.4743,77.10421073420648,73.49179643289605,75.27331753998453,41.83089319422194,43.61241430131042,40
87.8906,77.429,77.05876469182101,73.41257083042701,75.21494244358217,41.84382224823884,43.646193861393996,40
90.8203,77.3441,76.97231371292901,73.3351011701474,75.12522756183779,41.84708615109122,43.63721254278161,40
95.2148,77.1345,76.76060475239902,73.1151091530158,74.89995652100525,41.86064823139377,43.645495599383224,40
98.1445,76.9941,76.61881976807928,72.97052484174218,74.74975763961119,41.86906212846809,43.6482949263371,40
101.074,76.93009999999998,76.553452400098,72.89268746148859,74.67394317201848,41.87950922807951,43.660764938609404,40
105.469,77.00129999999999,76.62315181185815,72.95633263263532,74.73309624105488,41.89005557080327,43.66681917922283,40
108.398,76.96769999999998,76.58757643065094,72.91753480342844,74.68746594013962,41.900110490511324,43.6700416272225,40
112.793,77.0882,76.70921078041935,72.97889011938047,74.78705435742302,41.92215642299634,43.73032066103889,40
117.188,77.2186,76.83780678455336,73.10356775973027,74.90286614976789,41.93494063478548,43.7342390248231,40
120.117,77.4321,77.05028780474628,73.29333875675093,75.09856935022292,41.95171845452336,43.75694904799535,40
124.512,77.9004,77.51815354863042,73.70829924871522,75.54251119329616,41.97564235533426,43.8098542999152,40
128.906,78.3639,77.9776025039873,74.15963722283921,75.98028005113082,41.99732245285648,43.81796528114809,40
133.301,78.5796,78.19081562490994,74.36991330495384,76.1813869567984,42.00942866811154,43.820902319956105,40
139.16,78.6637,78.27248515301521,74.4252992351924,76.2415667702903,42.030918382724906,43.84718591782281,40
143.555,78.7655,78.37439531140576,74.47093185589893,76.31793839839727,42.05645691300849,43.90346345550684,40
147.949,78.6988,78.30711485468308,74.38473329381506,76.23830014805952,42.068814706623556,43.92238156086802,40
153.809,78.8399,78.44587859669328,74.52629239430951,76.35614677424499,42.089731822448286,43.91958620238377,40
159.668,79.416,79.02032665605984,75.05761840246299,76.89779124692603,42.1225354091338,43.962708253596844,40
165.527,80.0664,79.6679993821854,75.67160315547494,77.52833677300696,42.139662609178444,43.99639622671046,40
171.387,80.24970000000002,79.8494819902545,75.81481231273644,77.67623132640118,42.173250663853324,44.03466967751807,40
177.246,80.2842,79.88123670763359,75.82560088217153,77.69365150890357,42.18758519873002,44.05563582546206,40
183.105,80.2146,79.81017281007772,75.70342797654563,77.58547144743798,42.224701362639735,44.10674483353209,40
188.965,80.212,79.80479239731268,75.63934781586232,77.53979232906431,42.26500006824837,44.16544458145036,40
196.289,80.2441,79.83072302237593,75.64266129873914,77.53831820016565,42.29240482221029,44.18806172363679,40
203.613,80.2095,79.79243005507206,75.52417474176004,77.45511330557804,42.33731674949402,44.268255313312025,40
210.938,80.1002,79.68011438076282,75.47604423499786,77.37851045747382,42.301603923288994,44.20407014576496,40
218.262,80.2886,79.86693820524331,75.62154852479631,77.52089130073443,42.34604690450888,44.245389680447005,40
225.586,80.6361,80.20821020289569,75.87800396122299,77.80478615818618,42.40342404470951,44.3302062416727,40
232.91,80.9388,80.50320579507601,76.15313924356809,78.05478004852036,42.44842574655566,44.35006655150792,40
241.699,80.9507,80.50835104117814,76.05304682891956,78.00280504556696,42.505545995611186,44.45530421225858,40
250.488,81.2986,80.8489005826474,76.33792905599174,78.3152201326497,42.5336804499977,44.510971526655666,40
259.277,82.2992,81.83583473445384,77.25738584348042,79.2324797831563,42.60335495129755,44.57844889097342,40
268.066,83.3307,82.86731583397915,78.17420434605197,80.19444474372251,42.672871090256635,44.69311148792718,40
276.855,84.3998,83.92241204601004,79.16233301345466,81.22482530027608,42.69758674573396,44.76007903255538,40
287.109,85.2787,84.79495683274962,79.8746795297404,81.9683305049695,42.82662632778012,44.920277303009215,40
297.363,85.4232,84.9312578040443,79.89342447331097,81.9785733504285,42.95268445361579,45.03783333073332,40
307.617,85.716,85.21123974305844,79.9822854349002,82.18072776372871,43.03051197932973,45.22895430815824,40
319.336,85.6445,85.12812136629839,79.85291374553307,82.00349441377504,43.12462695252334,45.275207620765315,40
329.59,86.0807,85.55861589717242,80.05233224597296,82.29850397084121,43.260111926331206,45.50628365119945,40
341.309,86.5128,85.97906057037198,80.46399197459803,82.68772289991935,43.291337670452634,45.515068595773954,40
353.027,86.7568,86.22578242956686,80.65862929600377,82.8557183228049,43.37006410676196,45.567153133563096,40
366.211,86.2377,85.69876304353339,79.98124053977699,82.21885043214002,43.479912611393374,45.7175225037564,40
379.395,85.7011,85.14938761428644,79.43816638232454,81.56025179201082,43.58913582227562,45.7112212319619,40
392.578,85.1745,84.62381912402103,78.88485203557272,81.0115143906955,43.61230473332553,45.738967088448305,40
405.762,84.4936,83.93474255276114,78.3785790304034,80.35286821155628,43.58187434120485,45.556163522357735,40
420.41,85.0823,84.51693335244715,78.83225460819286,80.82600880282928,43.690924549617876,45.6846787442543,40
435.059,84.73499999999999,84.15573912080109,78.41930021911999,80.43700353035024,43.71873559045085,45.7364389016811,40
451.172,84.5825,84.00598961252717,78.34577719484197,80.31915303793028,43.686836574596896,45.6602124176852,40
465.82,83.9178,83.34159729907371,77.7637931060987,79.67144565556791,43.670151643505804,45.57780419297501,40
483.398,84.911,84.31017270842798,78.48562333890813,80.51390942055377,43.79626328787421,45.82454936951986,40
499.512,85.0198,84.43564662586374,78.61503863849634,80.61048205169804,43.8251645741657,45.820607987367396,40
517.09,85.3083,84.7068155045599,78.60645128840439,80.70193240378765,44.00488310077225,46.10036421615551,40
536.133,85.0911,84.46557614634004,78.22122922707983,80.38851526030564,44.0770608860344,46.24434691926021,40
555.176,85.3326,84.71399102211154,78.55765390996442,80.65806188435323,44.05592913775831,46.15633711214713,40
574.219,84.5584,84.00056886450567,78.14470898489064,80.07998708008535,43.92058178442032,45.855859879615025,40
594.727,84.5881,84.09914097532439,78.51705413528504,80.32840703915721,43.770733936167176,45.58208684003935,40
615.234,83.8176,83.40079190965862,78.12034979078199,79.81158342537213,43.58920848428649,45.280442118876636,40
637.207,84.0168,83.60996535102018,78.2104826740477,79.95403008229773,43.655935268722445,45.39948267697248,40
659.18,82.6652,82.43807853750656,77.40457872676068,79.03052406588027,43.407554471626284,45.03349981074588,40
682.617,82.8042,82.59033722902393,77.4513931968662,79.0772987367185,43.51303849230543,45.138944032157724,40
707.52,83.66390000000001,83.3201388849652,77.91234977919177,79.72828498977643,43.59185389518878,45.40778910577343,40
732.422,83.3294,83.14847758714947,78.01936869369646,79.75353382756086,43.394943759588614,45.12910889345301,40
757.324,82.7123,82.83205362934119,78.16045480262349,79.700763269079,43.131290360262184,44.6715988267177,40
785.156,84.022,83.89099506574958,78.44634124225922,80.32969781060825,43.561297255141326,45.444653823490356,40
811.523,83.8253,83.74957891672561,78.53859442701714,80.35114854312356,43.398430373602054,45.210984489708466,40
840.82,83.5073,83.64657645414151,78.45741991375293,80.27448920110403,43.37208725303748,45.18915654038858,40
870.117,82.1797,82.70038544472509,77.66121975593467,79.39728168805087,43.30310375667422,45.03916568879042,40
900.879,82.645,82.88840996460985,77.56674195621402,79.42517128065887,43.463238683950976,45.32166800839583,40
933.105,82.7234,82.98219016294124,77.76002160103798,79.57491244194281,43.40727772099842,45.22216856190326,40
965.332,81.4751,82.3967234315344,77.81991463581659,79.42134141821924,42.975382013315155,44.57680879571781,40
1000.49,82.3785,83.10690943289616,78.12624994168809,79.82401290172373,43.282896531172426,44.98065949120807,40
1035.64,83.1003,83.39693869291247,77.95516058043825,79.8527532736035,43.544185419308974,45.441778112474225,40
1072.27,81.5892,82.409462340325,77.37039039932456,79.11079820430452,43.29866413602049,45.039071941000444,40
1108.89,80.9796,82.29556503883458,77.29965170051233,79.03806105986794,43.25750397896664,44.995913338322254,40
1148.44,80.8906,82.14580855103873,76.92566004948841,78.80507194347402,43.34073660756471,45.22014850155031,40
1189.45,79.4023,81.32765001758469,76.62901739949172,78.30724845793196,43.020401559652726,44.69863261809297,40
1230.47,81.7202,82.37896885189753,77.12452203537369,79.06222731735389,43.31674153454364,45.25444681652384,40
1274.41,81.68969999999999,82.1693685034122,76.48793976925101,78.5368157129119,43.6325527905003,45.68142873416119,40
1319.82,82.0427,82.61616721651565,77.03110878131571,79.06770057808774,43.54846663842791,45.58505843519994,40
1366.7,80.75920000000002,82.00324895432854,76.20597978767174,78.37238025448728,43.63086869984126,45.797269166656804,40
1413.57,79.8272,81.08851299417432,76.06608690421882,77.93283325659948,43.15567973757484,45.0224260899555,40
1463.38,83.4449,82.62638462981752,76.59834044291695,78.84446046621619,43.78192416360133,46.02804418690057,40
1516.11,83.7031,82.79627538045344,76.60159674297228,78.88295871571154,43.9133166647419,46.19467863748116,40
1568.85,83.11680000000001,83.22978647701038,76.5945119503453,79.11764327644363,44.11214320056675,46.635274526665086,40
1624.51,81.97920000000002,82.29668673899184,76.10978938485817,78.39116745251465,43.90551928647719,46.18689735413366,40
1681.64,83.29320000000001,82.27492828773782,76.20048980596937,78.54422055813745,43.73070772960037,46.07443848176845,40
1741.7,84.3169,82.95903788198963,76.81887628454285,79.16487102929945,43.79416685269018,46.14016159744678,40
1803.22,83.1335,82.83774191250708,76.23674747248916,78.71158209722118,44.1261598152859,46.60099444001793,40
1866.21,82.8638,82.44956449897566,76.00035537493,78.47285490741045,43.97670959156521,46.449209124045666,40
1932.13,82.6902,82.18818230189905,76.2194604817946,78.46368525779283,43.724497044106215,45.96872182010445,40
1999.51,83.1599,82.25598304604642,76.45772334507053,78.59326445466357,43.662718591382855,45.79825970097589,40
2069.82,82.0668,81.77000131732606,75.81438282446572,78.10736222123164,43.66263909609442,45.95561849286034,40
2143.07,81.4311,81.43097988418528,76.10249121177334,78.1264117043972,43.30456817978808,45.328488672411936,40
2219.24,81.6175,81.49068518643595,76.25212576544082,78.24807231138124,43.24261287505472,45.23855942099513,40
2296.88,80.8006,80.64295340596118,75.82270976547416,77.66556693048287,42.97738647547831,44.82024364048702,40
2378.91,80.75290000000001,80.88697382600566,76.17241198781203,77.96287020562794,42.92410362037772,44.71456183819363,40
2462.4,79.5181,80.15746358065586,76.10423907994864,77.69540325277009,42.462060327885766,44.053224500707216,40
2548.83,78.0094,79.23746091324963,75.55262990876692,76.94022372858643,42.2972371846632,43.68483100448272,40
2639.65,80.2034,80.76629100352442,76.70321182338252,78.2022421283886,42.56404887513581,44.0630791801419,40
2731.93,80.4357,80.76021651036898,76.6761280796154,78.14309342824176,42.61712308212722,44.08408843075358,40
2828.61,80.2501,80.32147610590515,76.29977376054833,77.70916564799096,42.61231045791419,44.021702345356815,40
2928.22,80.9424,80.81953843860776,76.4014394649012,77.95575137968848,42.863787058919286,44.41809897370656,40
3030.76,81.2902,81.0142838234415,76.60132024801581,78.17559689248293,42.83868693095857,44.41296357542569,40
3137.7,80.73590000000002,80.61847019159681,76.66329210894446,78.05367672835015,42.56479346324666,43.95517808265235,40
3249.02,80.8099,80.8353748303079,76.60672056861699,78.12656748951002,42.708807340797875,44.228654261690906,40
3363.28,80.90200000000002,80.82660469288942,76.51728375933257,78.0393211005977,42.787283592291715,44.30932093355685,40
3481.93,81.1927,80.78891479400868,76.21244674808874,77.83318864324468,42.955726150763994,44.57646804591994,40
3604.98,81.37809999999999,80.77148171111553,76.15167449522028,77.85398671745845,42.91749499365707,44.61980721589525,40
3732.42,80.7521,80.38084819907257,75.62807957750283,77.3377929053334,43.04305529373917,44.75276862156974,40
3864.26,81.8801,81.40492518496916,76.33162807715621,78.13430039546762,43.27062478950154,45.07329710781295,40
4000.49,82.146,81.09547419909798,75.7298325596952,77.59670038326416,43.498773815833815,45.36564163940278,40
4141.11,82.7641,81.48535357395212,75.76692549111807,77.8105366005999,43.67481697335222,45.71842808283405,40
4287.6,82.8245,81.57159551775496,75.86092375453804,77.90776527063126,43.6638302471237,45.71067176321692,40
4438.48,83.4675,81.84384062081841,75.71199000843585,77.99146473610531,43.8523758847131,46.131850612382564,40
4595.21,83.3327,81.82977097063656,75.79382249524849,78.06297605089165,43.76679491974491,46.03594847538807,40
4756.35,82.8563,81.80968758770058,75.78880532273952,78.07580315209599,43.733884435604594,46.02088226496106,40
4924.8,82.1516,81.54279594585063,75.33104351748972,77.70551866477221,43.837277281078414,46.21175242836091,40
5097.66,82.014,81.69866271025163,75.31427956107389,77.76699864885644,43.93166406139518,46.38438314917774,40
5277.83,81.60130000000001,81.28292085422153,74.79642720713052,77.33749050450018,43.94543034972135,46.48649364709101,40
5463.87,80.5643,80.15618540568839,73.78586219775757,76.29191221162132,43.86427319406707,46.370323207930824,40
5657.23,81.6745,80.62140717949242,74.05683872921468,76.73081461282544,43.89059256666698,46.56456845027775,40
5856.45,83.337,82.34735443106868,74.49770467656631,77.92501770789549,44.42233672317319,47.849649754502366,40
6062.99,84.5173,83.04633406912896,74.1413513270783,78.16270276901555,44.88363130011341,48.90498274205066,40
6276.86,83.7226,81.16202769294648,73.35900267856809,76.60741696820288,44.5546107247436,47.80302501437839,40
6498.05,81.65550000000002,79.7992177411127,73.26774422332093,75.6729788630458,44.1262388780669,46.53147351779177,40
6726.56,82.8941,81.35677824076872,73.02160375657547,76.71021481607987,44.64656342468885,48.335174484193246,40
6963.87,83.2815,81.91763459733897,73.06831137065288,77.18874254958304,44.728892047755934,48.849323226686096,40
7209.96,83.5559,81.82728154115486,72.47840034063422,76.90021191369304,44.92706962746182,49.34888120052064,40
7464.84,83.8473,81.68845027320981,72.47075086707349,76.73126086808335,44.95718940512646,49.21769940613632,40
7727.05,82.18709999999999,80.22435969530173,72.56999983027045,75.92424621995005,44.30011347535168,47.65435986503128,40
7999.51,80.1876,79.12531034274082,71.69395677963587,74.8944476718345,44.23086267090632,47.43135356310495,40
8282.23,81.3954,79.8187352879101,70.89666055155529,74.82345221722724,44.99528307068286,48.922074736354816,40
8573.73,82.3034,80.31055602188566,70.81408138488229,75.1504075587579,45.160148463127754,49.496474637003374,40
8876.95,83.7098,80.4440897177536,71.04578079606962,75.35718007038925,45.08690964736435,49.39830892168398,40
9188.96,80.8648,79.12628842010872,70.63820541628556,74.27920148271328,44.847086937395446,48.488083003823164,40
9514.16,79.3354,78.42193381414441,69.59778257658513,73.33431897327152,45.08761484087289,48.82415123755928,40
9849.61,80.22460000000001,78.6278398443338,69.42702821252206,73.42997881724635,45.197861027087455,49.200811631811746,40
10196.8,80.8605,78.4177099249341,69.1965223769914,73.51444440206888,44.903265522865226,49.221187547942705,40
10555.7,80.8461,78.0682972945026,68.51891400088212,73.28426769033945,44.78402960416315,49.54938329362048,40
10927.7,81.2489,78.39271901161867,68.74614988054824,73.81818699121143,44.57453202040723,49.64656913107042,40
11313.0,82.1833,78.95694324529794,69.02308161012209,74.42731005667433,44.529633188623606,49.933861635175845,40
11712.9,79.1928,76.93931298448803,68.61712772077308,73.22338399795734,43.715928986530685,48.32218526371494,40
12126.0,78.9678,76.59472966421568,68.12374432501184,72.49958305974921,44.095146604466464,48.470985339203835,40
