Freq "Listening Window"
20.5078 45.3885046853824
21.9727 47.66596080652914
23.4375 49.730726802374676
24.9023 50.22549029857481
26.3672 51.758615727978736
27.832 53.915345705811916
29.2969 55.3578856325322
30.7617 56.75845980552566
32.2266 58.07515817265275
33.6914 59.53707264110308
35.1563 61.004630710806424
36.6211 62.41425151417086
38.0859 63.698235783824686
39.5508 64.97902053047724
41.0156 66.40566899996553
42.4805 67.40937903152344
43.9453 68.40186123404906
45.4102 69.21794639861199
46.875 70.20850606875419
48.3398 71.41947736056433
51.2695 72.78731192928795
52.7344 73.00971116756455
54.1992 73.21665442439487
55.6641 73.32893063847438
58.5938 73.15936986605317
60.0586 73.1354972845177
62.9883 73.49302380581896
64.4531 73.65768829469519
67.3828 74.54320197829098
68.8477 74.71749784716317
71.7773 75.32767273354631
74.707 75.9190644095052
77.6367 76.25342126214659
79.1016 76.26457946770076
82.0313 76.31178802470896
84.9609 76.28878497663068
87.8906 76.24333893424523
90.8203 76.15688795535321
95.2148 75.94517899482324
98.1445 75.80339401050348
101.074 75.73802664252221
105.469 75.80772605428238
108.398 75.77215067307515
112.793 75.89378502284357
117.188 76.0223810269776
120.117 76.23486204717048
124.512 76.70272779105466
128.906 77.16217674641152
133.301 77.37538986733415
139.16 77.45705939543942
143.555 77.55896955383
147.949 77.4916890971073
153.809 77.63045283911751
159.668 78.20490089848407
165.527 78.85257362460962
171.387 79.03405623267874
177.246 79.06581095005782
183.105 78.99474705250192
188.965 78.98936663973689
196.289 79.01529726480015
203.613 78.97700429749628
210.938 78.86468862318704
218.262 79.05151244766753
225.586 79.3927844453199
232.91 79.68778003750023
241.699 79.69292528360235
250.488 80.03347482507161
259.277 81.02040897687806
268.066 82.05189007640337
276.855 83.10698628843427
287.109 83.97953107517384
297.363 84.11583204646851
307.617 84.39581398548266
319.336 84.31269560872259
329.59 84.74319013959663
341.309 85.1636348127962
353.027 85.41035667199108
366.211 84.8833372859576
379.395 84.33396185671066
392.578 83.80839336644523
405.762 83.11931679518537
420.41 83.70150759487139
435.059 83.3403133632253
451.172 83.19056385495139
465.82 82.52617154149792
483.398 83.49474695085222
499.512 83.62022086828796
517.09 83.89138974698413
536.133 83.65015038876427
555.176 83.89856526453576
574.219 83.1851431069299
594.727 83.28371521774861
615.234 82.58536615208286
637.207 82.7945395934444
659.18 81.62265277993077
682.617 81.77491147144815
707.52 82.50471312738944
732.422 82.33305182957369
757.324 82.01662787176541
785.156 83.0755693081738
811.523 82.93415315914982
840.82 82.83115069656574
870.117 81.88495968714932
900.879 82.07298420703407
933.105 82.16676440536547
965.332 81.5812976739586
1000.49 82.29148367532036
1035.64 82.58151293533669
1072.27 81.59403658274923
1108.89 81.4801392812588
1148.44 81.33038279346296
1189.45 80.51222426000892
1230.47 81.56354309432174
1274.41 81.35394274583642
1319.82 81.80074145893988
1366.7 81.18782319675277
1413.57 80.27308723659853
1463.38 81.81095887224174
1516.11 81.98084962287767
1568.85 82.41436071943461
1624.51 81.48126098141606
1681.64 81.45950253016204
1741.7 82.14361212441383
1803.22 82.0223161549313
1866.21 81.63413874139987
1932.13 81.37275654432325
1999.51 81.44055728847064
2069.82 80.95457555975028
2143.07 80.61555412660951
2219.24 80.67525942886016
2296.88 79.82752764838538
2378.91 80.07154806842988
2462.4 79.34203782308009
2548.83 78.42203515567385
2639.65 79.95086524594863
2731.93 79.94479075279318
2828.61 79.50605034832935
2928.22 80.00411268103198
3030.76 80.19885806586572
3137.7 79.80304443402102
3249.02 80.01994907273212
3363.28 80.01117893531364
3481.93 79.97348903643288
3604.98 79.95605595353975
3732.42 79.5654224414968
3864.26 80.58949942739338
4000.49 80.28004844152218
4141.11 80.66992781637634
4287.6 80.75616976017918
4438.48 81.02841486324263
4595.21 81.01434521306078
4756.35 80.99426183012478
4924.8 80.72737018827485
5097.66 80.88323695267584
5277.83 80.46749509664573
5463.87 79.34075964811262
5657.23 79.80598142191663
5856.45 81.53192867349291
6062.99 82.23090831155318
6276.86 80.34660193537071
6498.05 78.9837919835369
6726.56 80.54135248319292
6963.87 81.1022088397632
7209.96 81.01185578357907
7464.84 80.87302451563404
7727.05 79.40893393772593
7999.51 78.30988458516504
8282.23 79.00330953033433
8573.73 79.49513026430988
8876.95 79.6286639601778
9188.96 78.31086266253294
9514.16 77.60650805656863
9849.61 77.81241408675803
10196.8 77.6022841673583
10555.7 77.25287153692683
10927.7 77.5772932540429
11313.0 78.14151748772214
11712.9 76.12388722691225
12126.0 75.77930390663988
12553.7 76.73008229068344
12996.1 77.70554162238462
13454.6 78.01590117395493
13929.2 77.70027944314698
14419.9 76.75070574674169
14928.2 72.01663674984351
15455.6 65.08743443937875
16000.5 60.76369214553628
16564.5 58.65279244493462
17148.9 58.98584972062733
17752.4 59.57245565476025
18379.4 58.50870892901008
19026.9 58.92229206142366
19697.8 57.479851657199475
19999.5 56.98106613861722
