Freq "Estimated In-Room Response"
22.4 73.84635954083488
23.0 73.64840788081965
23.6 73.43864987461588
24.0 73.27902330574548
25.0 73.10942703984396
25.8 72.92714919797109
26.5 72.77966454849496
27.2 72.60217945204222
28.0 72.43383260494325
29.0 72.28398020353899
30.0 72.0992706640153
30.7 71.98638191038309
31.5 71.90716886510383
32.5 71.87104832270575
33.5 71.84066423038449
34.5 71.87170308480482
35.5 72.04823047109346
36.5 72.43457286377682
37.5 73.17753102257576
38.7 74.5066358789321
40.0 76.49557133488247
41.2 78.96445014459394
42.5 80.70742489983168
43.7 80.41040524265722
45.0 78.96311681442172
46.2 77.60895566714599
47.5 76.58666667602998
48.7 75.83457115560367
50.0 75.30162234758312
51.5 74.92471768633276
53.0 74.62331865237599
54.5 74.4480759173209
56.0 74.33432622413149
58.0 74.26581313366623
60.0 74.24810295603659
61.5 74.26466424828835
63.0 74.31958601835117
65.0 74.41011175108487
67.0 74.53135012355018
69.0 74.6810219123773
71.0 74.83308835162104
73.0 74.9815055540057
75.0 75.14001194317902
77.5 75.31116400291043
80.0 75.44210183906009
82.5 75.57774205040751
85.0 75.68676551857297
87.5 75.7436453812008
90.0 75.75134320286956
92.5 75.73813750836744
95.0 75.68120756519154
97.5 75.58420588287332
100.0 75.45105334763394
103.0 75.30922591212116
106.0 75.12589781910334
109.0 74.97655078953056
112.0 74.86751107082414
115.0 74.76323013712711
118.0 74.68882582899727
122.0 74.6429015685702
125.0 74.64897474397269
128.0 74.64662046927108
132.0 74.64684700406089
136.0 74.66196765813127
140.0 74.68180716665158
145.0 74.70418197013376
150.0 74.74265190773134
155.0 74.81383284188693
160.0 74.93751242032558
165.0 75.03953111757342
170.0 75.19734746310597
175.0 75.4092908078298
180.0 75.62222304791577
185.0 75.85374486093221
190.0 76.10849246795219
195.0 76.37763908507605
200.0 76.64778070310354
206.0 76.92915896322005
212.0 77.17085860307348
218.0 77.35340162927127
224.0 77.36733057677986
230.0 77.10239028193122
236.0 76.56769552736871
240.0 75.96381608314245
250.0 75.5287346246799
258.0 75.42486988313956
265.0 75.59702751886479
272.0 75.9150497602116
280.0 76.20885780210749
290.0 76.23789787743827
300.0 76.27607848907043
307.0 76.3390689585558
315.0 76.32450516932485
325.0 76.47251116863607
335.0 76.94575967556823
345.0 77.54201699033116
355.0 77.4365241144785
365.0 76.27956914424593
375.0 74.75035165696762
387.0 73.66658830313308
400.0 73.35173623834739
412.0 73.84317245587341
425.0 74.8460418218089
437.0 75.19675337237904
450.0 74.9819017077415
462.0 74.71475199665801
475.0 74.36473746432674
487.0 74.0349913528689
500.0 73.8538478312526
515.0 73.832047972661
530.0 73.80294937346746
545.0 73.26012130123023
560.0 72.67624818935725
580.0 72.4372856864415
600.0 72.7556098985961
615.0 74.42518209288183
630.0 76.28082220827922
650.0 75.6557772987922
670.0 72.58762388862895
690.0 71.64069758738727
710.0 71.72404157701229
730.0 70.56932420514342
750.0 69.04254242965055
775.0 67.42863816951254
800.0 66.80384601025037
825.0 67.881521845966
850.0 69.50668958657428
875.0 72.25988582389652
900.0 79.3036135867855
925.0 77.05430882318444
950.0 75.7217521632241
975.0 76.17883489991614
1000.0 78.05647433630294
1030.0 77.602298428094
1060.0 76.1669102810335
1090.0 75.99610554620678
1120.0 74.94882817329785
1150.0 72.34930423325427
1180.0 70.68626758843173
1220.0 71.81074793156596
1250.0 72.65599293622226
1280.0 73.59112284490348
1320.0 75.11884808351806
1360.0 75.95965018614531
1400.0 78.80697402009264
1450.0 75.02068428996078
1500.0 73.48182751124939
1550.0 71.83532825189589
1600.0 66.30921316712735
1650.0 56.41069678363657
1700.0 67.56082529131223
1750.0 71.97232241980176
1800.0 71.7819321262324
1850.0 69.4392742408693
1900.0 68.30555632294232
1950.0 67.24993758527168
2000.0 65.75332622608154
2060.0 62.26178175536667
2120.0 64.58792767755578
2180.0 64.58974775599769
2240.0 64.79427085650354
2300.0 67.35957039467716
2360.0 65.21539464229915
2400.0 62.86519899741755
2500.0 67.25199153597717
2580.0 71.13420904517027
2650.0 72.25765284761208
2720.0 71.23101615744416
2800.0 70.03788700174428
2900.0 66.61861887719657
3000.0 69.26338773423066
3070.0 67.83147812961563
3150.0 75.61452253228349
3250.0 74.37728359571756
3350.0 73.18023636923495
3450.0 72.58817181315868
3550.0 72.30862498935672
3650.0 68.55896998437947
3750.0 71.20123629541733
3870.0 72.37290617834465
4000.0 71.24521701689216
4120.0 68.64449269031154
4250.0 68.15627788486884
4370.0 69.0991531940792
4500.0 72.7996947986976
4620.0 74.40884909262606
4750.0 66.5653956632296
4870.0 66.21215195007866
5000.0 65.56391636032393
5150.0 67.67993844902243
5300.0 64.60404977547442
5450.0 70.84754918702782
5600.0 75.68709880616005
5800.0 74.54175414529115
6000.0 75.4106673576784
6150.0 77.15798639764203
6300.0 71.54374069117856
6500.0 68.08474736089046
6700.0 67.33521681906488
6900.0 63.22413056558871
7100.0 64.77287785487181
7300.0 63.394172983232906
7500.0 68.12404894568883
7750.0 70.46387740711528
8000.0 69.78302983277591
8250.0 76.02308455563103
8500.0 73.55739128497218
8750.0 67.46822565115288
9000.0 69.07484705352869
9250.0 64.89156016631459
9500.0 59.28944157236255
9750.0 65.80564143443176
10000.0 69.1857756455079
10300.0 72.98118117169753
10600.0 70.37103295003635
10900.0 66.09837830921528
11200.0 69.22121779793687
11500.0 70.90963927370402
11800.0 74.82782343120932
12200.0 71.03440180082585
12500.0 66.72748893030186
12800.0 64.92299986334355
13200.0 65.75646790362443
13600.0 68.77293315902962
14000.0 69.08305206708913
14500.0 66.87373427329439
15000.0 65.50230271865044
15500.0 64.9568186858477
16000.0 65.37702675559176
16500.0 63.12792274621479
17000.0 64.18278902222464
17500.0 64.38809980114415
18000.0 65.60380558331973
18500.0 65.03370345352064
19000.0 63.24493999635105
19500.0 62.78386854190606
