Freq "Ceiling Bounce"
20.5078 55.73925202768831
21.9727 60.8014494090684
23.4375 61.75291796835617
24.9023 62.7769561448535
26.3672 64.10006460774318
27.832 64.85003158339768
29.2969 65.98052318645286
30.7617 66.99615570680626
32.2266 67.65986233428562
33.6914 68.56567658348817
35.1562 69.28316943295144
36.6211 69.93394195243337
38.0859 70.6274182297451
39.5508 71.24370963060888
41.0156 71.94901875244993
42.4805 72.55279169917713
43.9453 73.03536717019026
45.4102 73.65797324451462
46.875 74.21914509690689
48.3398 74.68061584429526
51.2695 75.75558073337602
52.7344 76.25990287234828
54.1992 76.74603930393934
55.6641 77.19114385169131
58.5938 78.22931579857448
60.0586 78.78707572121324
62.9883 79.44292567546309
64.4531 79.79876475120354
67.3828 80.58850141927354
68.8477 80.93275702138666
71.7773 81.52226647041613
74.707 82.25250898436013
77.6367 82.86389035731526
79.1016 83.17322075455883
82.0312 83.72954360846634
84.9609 84.22035155495702
87.8906 84.696602603607
90.8203 85.17260852814911
95.2148 85.71797449639742
98.1445 86.01836395253659
101.074 86.25990287947644
105.469 86.53357147963045
108.398 86.6905903858422
112.793 86.86885300444861
117.188 86.89810816534236
120.117 87.02150701302112
124.512 87.23092692989505
128.906 87.13942081792484
133.301 87.04524000564166
139.16 86.88822365130794
143.555 86.8124616459417
147.949 87.04801880670402
153.809 87.16259233213349
159.668 86.81470705181556
165.527 86.64925737101413
171.387 86.73288185607254
177.246 86.47324917094734
183.105 86.26274267567055
188.965 86.08936188855745
196.289 85.8331839146779
203.613 85.69141149346655
210.938 85.65360824665859
218.262 85.70388368566094
225.586 85.25344930927494
232.91 85.22806448282874
241.699 85.03847243893563
250.488 85.92857806596155
259.277 85.77597607212658
268.066 85.16164720553319
276.855 84.6866053560689
287.109 84.73820233078254
297.363 85.208478960954
307.617 85.07906488812665
319.336 85.51936335437739
329.59 85.50309878709302
341.309 85.05558274841495
353.027 84.79697642170795
366.211 85.46048408588031
379.395 86.24448097432487
392.578 86.26568286017076
405.762 86.1927832206403
420.41 85.20758391215111
435.059 84.62123285931493
451.172 84.65795768891235
465.82 84.96606797583868
483.398 86.74877142958995
499.512 86.45664310567301
517.09 85.73632699499153
536.133 85.57549152905929
555.176 85.1653616003134
574.219 84.27660306553197
594.727 85.44133111625013
615.234 86.40654364280476
637.207 84.89290873293643
659.18 84.36051688243153
682.617 85.45878991478882
707.52 85.07067760617724
732.422 87.04290257492681
757.324 87.12422488752597
785.156 86.59155940998272
811.523 87.11900568683176
840.82 87.90583259445498
870.117 87.67994336899662
900.879 88.14286776328373
933.105 87.56160059824279
965.332 88.66823572252945
1000.49 88.80685943747916
1035.64 87.99909613818404
1072.27 87.42198429932881
1108.89 87.98204145682806
1148.44 87.93963552475705
1189.45 87.45639488947343
1230.47 87.40264533865587
1274.41 86.56422673155836
1319.82 86.75439447616601
1366.7 86.61457479406215
1413.57 85.58520391193501
1463.38 86.95332564357989
1516.11 86.8660555783826
1568.85 86.661928852523
1624.51 86.7075216375719
1681.64 86.12282809546585
1741.7 86.9945615668249
1803.22 86.20014682752706
1866.21 87.14629849249908
1932.13 86.6755887316234
1999.51 85.92457604644294
2069.82 85.070220111495
2143.07 84.35107740516267
2219.24 83.88815367253723
2296.88 83.44152791599493
2378.91 83.06280982189281
2462.4 80.31342895577617
2548.83 79.62185016018671
2639.65 79.73189417552351
2731.93 78.25888035198228
2828.61 74.4152298905143
2928.22 74.79616863739689
3030.76 75.8499061498939
3137.7 76.52710939879957
3249.02 77.38519147649602
3363.28 78.42488198998636
3481.93 76.81950747479328
3604.98 76.83427466325965
3732.42 79.0705741336289
3864.26 80.93434395513009
4000.49 81.8385173021265
4141.11 82.84545042331955
4287.6 83.82137577121068
4438.48 84.17301358849906
4595.21 85.00140844310677
4756.35 84.83990089774224
4924.8 84.00472918661612
5097.66 83.85757771517945
5277.83 83.96896685143261
5463.87 84.65345531170139
5657.23 85.10646207600175
5856.45 85.5163052167588
6062.99 85.50129934042286
6276.86 85.3263618966997
6498.05 85.40205396699938
6726.56 85.13619262227101
6963.87 84.23087900461792
7209.96 83.45306913529559
7464.84 82.87865885546424
7727.05 82.85388918235425
7999.51 83.04630167089157
8282.23 83.59401844152846
8573.73 84.1742226800748
8876.95 84.24106684100498
9188.96 83.95698262162894
9514.16 83.75194598141195
9849.61 83.74832100852632
10196.8 83.49070780787126
10555.7 83.2893154743408
10927.7 82.91632131501045
11313.0 82.45745907906016
11712.9 82.11082002077981
12126.0 81.84551326224738
12553.7 81.19958952590433
12996.1 80.66013834811332
13454.6 79.99351577476011
13929.2 79.23732974058217
14419.9 78.21471897881464
14928.2 77.664034661832
15455.6 77.2199747483821
16000.5 76.69391494876434
16564.5 75.97428203935631
17148.9 74.70017063736803
17752.4 73.76741015417312
18379.4 72.31615805693872
19026.9 71.12469516169969
19697.8 69.05915575243161
19999.5 68.59377316352264
