Freq "On Axis"
22.4 20.25696202531644
23.0 21.556962025316423
23.6 22.856962025316435
24.0 24.356962025316435
25.0 25.656962025316446
25.8 26.956962025316457
26.5 28.25696202531644
27.2 29.75696202531644
28.0 31.156962025316446
29.0 32.75696202531644
30.0 34.25696202531644
30.7 35.75696202531644
31.5 37.156962025316446
32.5 38.45696202531646
33.5 39.95696202531646
34.5 41.45696202531646
35.5 42.95696202531646
36.5 44.156962025316446
37.5 45.25696202531644
38.7 46.25696202531644
40.0 47.356962025316435
41.2 48.45696202531646
42.5 49.25696202531644
43.7 50.05696202531642
45.0 50.856962025316435
46.2 51.656962025316446
47.5 52.356962025316435
48.7 52.95696202531646
50.0 53.55696202531642
51.5 54.156962025316446
53.0 54.75696202531644
54.5 55.156962025316446
56.0 55.45696202531646
58.0 55.656962025316446
60.0 55.95696202531646
61.5 56.156962025316446
63.0 56.25696202531644
65.0 56.356962025316435
67.0 56.25696202531644
69.0 56.156962025316446
71.0 55.95696202531646
73.0 55.95696202531646
75.0 55.95696202531646
77.5 56.156962025316446
80.0 57.05696202531645
82.5 58.55696202531642
85.0 60.356962025316435
87.5 62.25696202531644
90.0 64.15696202531645
92.5 66.05696202531642
95.0 67.85696202531643
97.5 69.55696202531645
100.0 71.25696202531644
103.0 72.85696202531643
106.0 74.35696202531643
109.0 75.75696202531644
112.0 76.95696202531644
115.0 77.85696202531643
118.0 78.65696202531645
122.0 79.15696202531645
125.0 79.55696202531645
128.0 79.75696202531644
132.0 80.15696202531645
136.0 80.25696202531644
140.0 80.35696202531643
145.0 80.45696202531644
150.0 80.35696202531643
155.0 80.35696202531643
160.0 80.35696202531643
165.0 80.35696202531643
170.0 80.35696202531643
175.0 80.35696202531643
180.0 80.35696202531643
185.0 80.45696202531644
190.0 80.75696202531644
195.0 80.85696202531643
200.0 80.95696202531646
206.0 80.95696202531646
212.0 80.75696202531644
218.0 80.55696202531644
224.0 80.35696202531643
230.0 79.95696202531643
236.0 79.75696202531644
240.0 79.95696202531643
250.0 79.85696202531643
258.0 79.85696202531643
265.0 79.85696202531643
272.0 80.05696202531644
280.0 80.15696202531645
290.0 80.45696202531644
300.0 80.65696202531645
307.0 80.95696202531646
315.0 81.65696202531645
325.0 82.45696202531643
335.0 83.85696202531643
345.0 84.35696202531643
355.0 84.45696202531644
365.0 85.05696202531644
375.0 85.75696202531644
387.0 86.05696202531642
400.0 86.55696202531644
412.0 86.15696202531645
425.0 87.35696202531643
437.0 87.15696202531645
450.0 86.25696202531644
462.0 85.95696202531646
475.0 85.05696202531644
487.0 84.25696202531644
500.0 83.45696202531646
515.0 84.85696202531643
530.0 83.25696202531644
545.0 82.55696202531644
560.0 83.05696202531644
580.0 82.75696202531644
600.0 82.95696202531644
615.0 82.85696202531643
630.0 83.15696202531645
650.0 83.95696202531644
670.0 82.75696202531644
690.0 82.55696202531644
710.0 82.75696202531644
730.0 80.55696202531644
750.0 79.25696202531644
775.0 81.55696202531644
800.0 82.35696202531643
825.0 81.35696202531643
850.0 79.55696202531645
875.0 78.95696202531644
900.0 78.75696202531644
925.0 79.65696202531645
950.0 79.95696202531643
975.0 79.45696202531644
1000.0 79.05696202531644
1030.0 79.95696202531643
1060.0 79.15696202531645
1090.0 78.75696202531644
1120.0 78.45696202531646
1150.0 78.35696202531643
1180.0 78.05696202531644
1220.0 78.65696202531645
1250.0 77.75696202531644
1280.0 78.95696202531644
1320.0 78.55696202531642
1360.0 79.65696202531645
1400.0 79.35696202531643
1450.0 78.85696202531643
1500.0 78.05696202531644
1550.0 76.75696202531644
1600.0 75.55696202531644
1650.0 74.65696202531645
1700.0 74.35696202531643
1750.0 73.65696202531645
1800.0 72.75696202531644
1850.0 73.25696202531644
1900.0 73.15696202531645
1950.0 74.35696202531643
2000.0 75.75696202531644
2060.0 76.85696202531643
2120.0 76.65696202531645
2180.0 75.05696202531644
2240.0 73.65696202531645
2300.0 72.55696202531644
2360.0 73.15696202531645
2400.0 73.75696202531644
2500.0 75.35696202531643
2580.0 75.05696202531644
2650.0 71.85696202531643
2720.0 69.35696202531643
2800.0 72.75696202531644
2900.0 74.05696202531644
3000.0 73.55696202531642
3070.0 73.55696202531642
3150.0 72.95696202531644
3250.0 72.25696202531644
3350.0 72.25696202531644
3450.0 70.55696202531644
3550.0 72.85696202531643
3650.0 75.95696202531646
3750.0 77.15696202531645
3870.0 77.55696202531644
4000.0 76.85696202531643
4120.0 76.15696202531645
4250.0 76.55696202531644
4370.0 77.75696202531644
4500.0 78.65696202531645
4620.0 78.35696202531643
4750.0 78.15696202531645
4870.0 78.85696202531643
5000.0 80.65696202531645
5150.0 82.65696202531645
5300.0 84.35696202531643
5450.0 82.15696202531645
5600.0 80.75696202531644
5800.0 80.85696202531643
6000.0 81.05696202531642
6150.0 81.85696202531643
6300.0 78.15696202531645
6500.0 77.55696202531644
6700.0 81.15696202531645
6900.0 81.75696202531644
7100.0 80.45696202531644
7300.0 79.25696202531644
7500.0 79.95696202531643
7750.0 79.15696202531645
8000.0 80.05696202531644
8250.0 77.75696202531644
8500.0 76.95696202531644
8750.0 77.75696202531644
9000.0 77.85696202531643
9250.0 79.45696202531644
9500.0 83.45696202531646
9750.0 81.65696202531645
10000.0 84.85696202531643
10300.0 84.75696202531644
10600.0 81.25696202531644
10900.0 84.05696202531644
11200.0 82.85696202531643
11500.0 85.55696202531644
11800.0 86.25696202531644
12200.0 85.75696202531644
12500.0 84.25696202531644
12800.0 82.85696202531643
13200.0 83.75696202531644
13600.0 84.85696202531643
14000.0 81.75696202531644
14500.0 80.75696202531644
15000.0 83.35696202531643
15500.0 84.95696202531643
16000.0 85.75696202531644
16500.0 81.45696202531644
17000.0 77.55696202531644
17500.0 78.15696202531645
18000.0 75.35696202531643
18500.0 75.55696202531644
19000.0 74.05696202531644
19500.0 67.55696202531644
