Freq "Sound Power"
20.1416 67.33038262497307
20.5078 67.66183681688669
21.2402 68.23989139434009
21.9727 68.79251233974898
22.7051 69.23628509580328
23.8037 69.97301014432455
24.5361 70.40703020191751
25.2686 70.83429760060402
26.3672 71.45047773726935
27.0996 71.90757334689789
28.1982 72.5720341692813
29.2969 73.05863669144205
30.0293 73.44458835372399
31.1279 74.08369281276914
32.2266 74.36436436025157
33.3252 75.0152282585687
34.79 75.347208297567
35.8887 75.11677266761407
36.9873 75.4925452282728
38.4521 75.88824862356162
39.917 76.3115245397409
41.3818 77.66277250175439
42.8467 78.12767551546742
44.3115 78.45560729340968
45.7764 78.9075065697561
47.2412 79.31343574098662
49.0723 79.8224231239472
50.9033 80.29953234950366
52.7344 80.69934679303381
54.5654 81.18785025275702
56.3965 81.62762364168866
58.2275 82.01560500289462
60.4248 82.45677150540254
62.6221 82.88386791712878
64.8193 83.2195930041911
67.0166 83.49243985619813
69.2139 83.80159677504291
71.7773 84.15057017546773
74.3408 84.45955322998827
76.9043 84.74538182348839
79.834 85.01505433996257
82.3975 85.21673253123654
85.3271 85.25234962303702
88.2568 85.48610664985846
91.5527 85.3911572991374
94.8486 85.37046899446925
98.1445 85.49042036688012
101.44 85.56971961277955
105.103 85.54825575335643
108.765 85.51159458946549
112.793 85.50731891008527
116.455 85.62042783400156
120.85 85.52440437237638
124.878 85.41365259977249
129.272 85.25847236201646
134.033 85.07226657397214
138.794 84.89686599769027
143.555 84.68645758698959
148.682 84.54097000556155
153.809 84.33907922293746
159.302 84.16009284906676
164.795 84.60755391446907
170.654 85.39261855991487
176.88 85.5069668383886
183.105 85.28156035048522
189.331 84.88213042893281
196.289 84.41510557995142
202.881 84.30263418624924
210.205 84.40371910142014
217.529 84.46312900634022
225.22 84.17611964540552
233.276 83.9439559262564
241.333 84.02064999320211
250.122 83.74681949489016
258.911 83.71803518306166
268.066 83.89147982981324
277.222 83.5097945205449
287.109 83.44108484911105
297.363 83.28622401927751
307.617 83.2703548719805
318.604 83.50473149930191
329.956 83.02688319060084
341.675 82.99728223750459
353.394 82.89955624448838
365.845 82.58379421077183
379.028 82.19435975452669
392.212 82.14311425308442
406.128 82.17926016423813
420.41 82.20598059650287
435.425 82.20002685655247
450.806 82.43392355686355
466.553 82.81420009407975
483.032 82.94139871200088
499.878 83.08518533216865
517.456 83.06664480854852
535.767 82.97521782356712
554.81 83.30207392871615
574.219 83.30828219624084
594.727 83.07858770170886
615.601 82.97796674742646
637.207 82.80371619658449
659.912 82.55430304588057
682.983 82.44834544769677
707.153 82.49021995201917
732.056 82.50660945642898
757.69 82.57996888591829
784.424 82.72021934048314
812.256 82.91857989712982
840.82 83.05148481989804
870.483 83.36499476241248
901.245 83.5950869105501
933.105 83.96970749487801
966.064 83.87020482451987
1000.12 83.8444800912988
1035.28 84.02446171526493
1071.9 84.13645283431097
1109.62 83.96244086906415
1148.8 83.66362981339873
1189.09 83.53997062192884
1231.2 83.48996179214207
1274.41 83.20393899226617
1319.46 82.83325812720562
1365.97 82.73450396945866
1414.31 82.50917796051003
1464.11 81.76008072656809
1515.75 81.29527818570017
1569.21 80.96706875015603
1624.51 80.73616484320543
1681.64 80.78724714288835
1740.97 81.09200626933367
1802.49 80.67387510888405
1866.21 80.14763556484885
1931.76 79.87207517101109
1999.88 80.22495414883595
2070.56 80.91691340340611
2143.43 81.10354721748047
2219.24 80.68841664574205
2297.24 80.40048001719978
2378.54 80.98260889793282
2462.4 81.67529246477028
2549.19 81.87379781356698
2638.92 81.70642278353218
2731.93 81.56548501627891
2828.25 81.81295464398441
2928.22 82.26591109090927
3031.49 82.15692012641541
3138.43 82.32208407727087
3249.02 82.43911160550238
3363.65 82.2442303969791
3482.3 82.22971189463581
3604.98 82.63857411003306
3732.06 82.70438199859916
3863.89 82.35784298856595
4000.12 81.75322996253358
4141.11 81.55768233678178
4287.23 81.35524658415903
4438.11 81.24007551248118
4594.85 81.09498624010332
4756.71 80.8461152732706
4924.44 80.88978411969313
5098.39 80.84553866372025
5278.2 80.64615343607856
5464.23 80.87094532979985
5656.86 80.75481831115783
5856.45 80.8459152659951
6062.99 81.27935505107654
6276.86 81.53907456024481
6498.05 81.79130327072048
6727.29 82.43534931427172
6964.23 82.41583288593158
7209.96 82.49255436617257
7464.11 82.43821974059443
7727.42 81.85708472900588
7999.88 81.6222428806114
8282.23 80.98630942345157
8574.1 80.47975584738894
8876.59 79.59365422903412
9189.7 79.1219863451913
9513.79 78.47941429958723
9849.24 78.0136976124229
10196.4 77.59804615548379
10556.0 77.42907996644806
10928.5 77.36153410622269
11313.7 77.1823228841059
11712.5 76.88091980288279
12125.6 76.59221915338031
12553.3 76.45081354057012
12996.1 76.50925398956322
13454.2 76.51780934634877
13928.8 76.40482792913384
14419.9 76.09888165442588
14928.6 75.51690158708477
15454.8 74.67494995926793
16000.1 73.65882368876845
16564.1 72.79019847527246
17148.2 72.5482375369442
17753.2 71.63830820931597
18379.0 70.51668159681657
19027.2 69.29861755085642
19698.5 68.10111523947315
19999.9 67.71514547951625
