Freq "Estimated In-Room Response"
22.4 38.774132456112824
23.0 39.44382468068454
23.6 40.387917246887326
24.0 42.8246640769155
25.0 44.96836766851558
25.8 46.71270784620651
26.5 48.22475673626232
27.2 49.54842984653834
28.0 50.73878719357896
29.0 51.83627365062128
30.0 52.851759147931176
30.7 53.79462673431024
31.5 54.67725893361873
32.5 55.48935311029746
33.5 56.25258644470017
34.5 56.980603639612596
35.5 57.75245173884791
36.5 59.03003569326458
37.5 60.28589257199208
38.7 61.428907357867104
40.0 62.44241856633951
41.2 63.381127879819246
42.5 64.26219165440585
43.7 65.07431219453024
45.0 65.84041748889989
46.2 66.57500933266726
47.5 67.39098296274685
48.7 68.9582776485036
50.0 70.37726284594952
51.5 71.61005327155031
53.0 72.68931940443747
54.5 73.65027064851533
56.0 74.54427721324059
58.0 75.34701679004074
60.0 75.92857162495815
61.5 76.09201968931441
63.0 76.19323220292772
65.0 76.30017676531136
67.0 76.3833605212791
69.0 76.46314991689088
71.0 76.52162331253118
73.0 76.62979636097147
75.0 76.73013647398284
77.5 76.85448639880349
80.0 76.95793952610043
82.5 77.0876358596833
85.0 77.11017549728395
87.5 77.05256002478322
90.0 76.98935854082112
92.5 76.92279388935928
95.0 76.84993497307488
97.5 76.74931905449695
100.0 76.63429541930363
103.0 76.5358795450102
106.0 76.42103062546394
109.0 76.46400565745682
112.0 76.55182107833784
115.0 76.59507057020261
118.0 76.75501402180963
122.0 77.20226508351759
125.0 77.60885559089844
128.0 77.92659077864258
132.0 78.03500350620789
136.0 78.06964075270244
140.0 78.0873400148493
145.0 77.68249789454796
150.0 77.15137587761436
155.0 76.67116005628318
160.0 76.27791049647037
165.0 75.92665667578551
170.0 75.8700395690507
175.0 76.0090022053505
180.0 76.02439344900941
185.0 75.62369053037602
190.0 75.28423877133007
195.0 75.64094646992494
200.0 76.09511101833525
206.0 76.90628954184035
212.0 77.62367341487513
218.0 77.8405386767626
224.0 77.9724251444979
230.0 78.32123258846087
236.0 78.58734196754169
240.0 78.68519070168055
250.0 78.62486955840325
258.0 78.4245168500508
265.0 78.16726754003896
272.0 77.83311141562565
280.0 77.41575477700044
290.0 77.0073876755466
300.0 76.70078752778657
307.0 76.56091309761214
315.0 76.63300982155079
325.0 76.83966932435922
335.0 76.9723950953803
345.0 77.03471845521369
355.0 77.00916100054783
365.0 76.8848356209756
375.0 76.57681948116468
387.0 76.25440584385636
400.0 76.04562476424816
412.0 76.00434282057492
425.0 75.97833903913794
437.0 76.06333744377103
450.0 76.37555050592566
462.0 76.68684486612767
475.0 76.81458577611079
487.0 77.00458804980991
500.0 77.27107981621296
515.0 77.66894161971163
530.0 78.26304818958972
545.0 78.71249350900723
560.0 78.81976793233251
580.0 78.46139040966393
600.0 77.49436497564994
615.0 76.25254173794028
630.0 75.293001716489
650.0 75.11845048985067
670.0 75.34111509627736
690.0 75.50496720976821
710.0 75.39391380856108
730.0 75.06667964358655
750.0 74.82146803777624
775.0 75.02977904631646
800.0 75.45263186902984
825.0 75.54593662842413
850.0 75.17160446915355
875.0 74.65594194321186
900.0 74.45787368347655
925.0 74.52146533118876
950.0 74.73662650171883
975.0 74.88190442762146
1000.0 74.6869600680423
1030.0 74.4836385631535
1060.0 74.57593788239939
1090.0 74.49865445632238
1120.0 73.61266045771072
1150.0 72.6137807344032
1180.0 72.33968395695348
1220.0 72.36781891262412
1250.0 72.23902261053253
1280.0 72.51693029329184
1320.0 72.76020966153666
1360.0 72.77540695926467
1400.0 73.38915556471781
1450.0 74.5168619460192
1500.0 74.6705364705889
1550.0 74.48779436862768
1600.0 74.18830009091445
1650.0 73.41131977795084
1700.0 73.44964453451757
1750.0 73.50862230642427
1800.0 73.24671562021561
1850.0 73.4973274813818
1900.0 73.20475380181688
1950.0 73.34156883754345
2000.0 74.11257851961176
2060.0 74.61009235099588
2120.0 74.61553315553138
2180.0 74.6148230447005
2240.0 74.43303560133205
2300.0 74.18558126833014
2360.0 73.4278690627431
2400.0 72.63105593611662
2500.0 72.06268706729443
2580.0 72.16195074038076
2650.0 71.48314687764773
2720.0 72.51599763926536
2800.0 73.3243007084034
2900.0 74.68368629457953
3000.0 74.85894273420149
3070.0 74.66183818801537
3150.0 74.59112909079474
3250.0 74.29146967297305
3350.0 73.46587907795242
3450.0 72.54033782289423
3550.0 72.22520833933504
3650.0 73.91439881466644
3750.0 74.8002075752732
3870.0 75.48768174164529
4000.0 75.01903652398994
4120.0 75.84839781152505
4250.0 74.39617910496449
4370.0 73.51615604323258
4500.0 73.71668666158315
4620.0 74.99574975828543
4750.0 74.6751750226062
4870.0 73.22488924519568
5000.0 74.07347313547527
5150.0 72.84636332898828
5300.0 72.2877514609767
5450.0 73.54536729135944
5600.0 74.32390645582721
5800.0 75.04035043055622
6000.0 75.63007101251665
6150.0 75.09684813642812
6300.0 75.3555254269694
6500.0 75.37142950375177
6700.0 74.61496748339408
6900.0 75.77888595231146
7100.0 74.81041688978081
7300.0 75.8631361983997
7500.0 76.25958913650723
7750.0 76.02425942656222
8000.0 74.14604459176631
8250.0 75.1004528008707
8500.0 74.0471291768502
8750.0 74.21927250927945
9000.0 74.43112651600731
9250.0 74.78918766982756
9500.0 74.90466627057934
9750.0 73.23677722608579
10000.0 73.41575409856176
10300.0 74.37518335215792
10600.0 74.8997024347162
10900.0 73.48718303538183
11200.0 73.3175105232144
11500.0 72.75568669486488
11800.0 68.35404700516173
12200.0 71.00388027501057
12500.0 76.40409598345065
12800.0 74.02754630888907
13200.0 72.20559122446997
13600.0 68.59254096713498
14000.0 70.48358619271414
14500.0 73.39515130518917
15000.0 74.74266496797996
15500.0 70.69840960020301
16000.0 69.49246788065011
16500.0 67.66282360078826
17000.0 65.31751952058548
17500.0 64.97371463173405
18000.0 63.157959638696624
18500.0 61.29059477497783
19000.0 57.65327962389762
19500.0 56.210810088536675
