Freq "Floor Bounce"
20.5078 57.939721727459826
21.2402 57.31196576737669
21.9727 59.093546729454275
22.7051 59.974487156285235
23.4375 60.931811848379496
24.1699 62.36728895091552
25.6348 64.62809368293166
26.3672 65.45491792128242
27.0996 66.78261199145794
27.832 68.67703552016208
29.2969 70.28708947666802
30.0293 71.14378886362856
31.4941 72.89222640747819
32.2266 73.97094440027037
33.6914 75.93501522447862
34.4238 76.93051716318769
35.8887 78.32972275868501
37.3535 79.44986551379215
38.8184 80.63491883192418
39.5508 81.24903861313537
41.0156 82.27755900771872
42.4805 83.54077394726053
43.9453 84.44035206651391
45.4102 85.14066479038235
47.6074 86.08347193796361
49.0723 86.57166258732863
50.5371 86.9722121781242
52.7344 87.48511139098778
54.1992 87.81198196607748
56.3965 88.20936610398745
58.5938 88.58304873811424
60.0586 88.683788521037
62.2559 88.91519793766163
64.4531 89.16842633525563
66.6504 89.43776545292006
69.5801 89.68472234504688
71.7773 89.82118364589559
73.9746 89.99454377978482
76.9043 90.17810913566511
79.834 90.27127818512899
82.7637 90.30289174689945
85.6934 90.47675907026569
88.623 90.72339151210724
91.5527 90.68415882383987
94.4824 90.70503876046662
98.1445 90.49673694890953
101.807 90.33315974364965
105.469 90.24929133112437
109.131 90.07941790436169
112.793 89.85185721455719
116.455 89.81275141388424
120.85 89.84375264097676
125.244 89.7616698199995
129.639 89.67060184223574
134.033 89.4598616207005
138.428 89.45528440659633
143.555 89.3165332023322
148.682 89.26616981144193
153.809 89.03466526932894
159.668 88.91688265517332
164.795 88.67847739091906
170.654 88.87818500702053
176.514 88.71460046853016
183.105 88.43163165676293
189.697 88.5018071420984
196.289 88.64267556929808
202.881 88.34760354091875
210.205 88.72145108149813
217.529 88.745307893683
225.586 88.77237758824967
232.91 89.08388278123213
241.699 89.26494447025395
249.756 88.71139163179669
258.545 89.00855649559988
268.066 89.42868702227705
277.588 88.84912117989663
287.109 89.01985744913713
297.363 89.38675205655271
307.617 89.36586347238456
318.604 89.2306046544392
329.59 88.9264987163945
341.309 88.95952756617743
353.76 88.54297018099886
366.211 87.98104721150882
378.662 88.58084962169623
392.578 88.00069608684105
405.762 88.43773383774449
420.41 87.5947760646481
435.059 88.67643590464137
450.439 87.12171499116856
466.553 88.28613647522037
482.666 88.06258628871576
500.244 88.19372665206764
517.822 88.12822715341943
536.133 88.02270710826126
554.443 88.59699991451662
574.219 88.21220201692644
594.727 88.61562200128539
615.234 87.87534332584212
637.207 88.02826530829067
659.912 88.37699421503322
683.35 88.59059571068838
706.787 88.56224890516337
731.689 88.13100767465667
758.057 87.64680700460742
784.424 86.85001807039015
812.256 87.28758566262908
840.82 86.78255268329481
870.85 86.31262331086238
901.611 87.07078818637865
933.105 86.32936764542669
966.064 85.49068832756616
999.756 85.9508355805181
1034.91 84.45049871445669
1071.53 84.80239025884444
1109.62 85.44465729203297
1148.44 85.60395420320319
1189.45 85.27198134736857
1231.2 84.60584159745537
1274.41 84.54011647597302
1319.82 84.80392594724354
1365.97 84.30096726130203
1414.31 83.68185583965415
1464.11 82.9512644241227
1515.38 82.79481894730658
1568.85 83.17066002889644
1624.51 84.14610728848443
1681.64 83.87792948712573
1740.97 83.2919309901772
1802.49 83.38306529209903
1866.21 84.13326587083472
1932.13 84.12514571252323
2000.24 83.65672847233503
2070.56 83.30884483094663
2143.8 82.97872515715808
2219.24 82.29290385299502
2297.61 81.60470571594486
2378.17 81.04229739269535
2462.4 79.9785691278909
2548.83 78.84290723050972
2638.92 78.02756673907595
2731.93 77.84239058090517
2828.61 78.13155617736126
2928.22 78.04955548638587
3031.49 78.14170931509926
3138.43 78.67163973399688
3249.02 78.70402744705747
3363.28 79.26536713563038
3481.93 79.87500314912396
3604.98 80.11941512073236
3732.42 81.00983166311822
3863.53 81.56919754813588
3999.76 82.32896450319933
4141.11 82.39430213636773
4286.87 82.64763353867649
4438.48 82.7897121261578
4594.48 84.34176654548193
4757.08 85.82749606602624
4924.8 87.14341966675669
5098.39 87.41674330862999
5277.83 87.22753116602573
5463.87 87.63003687120825
5656.49 87.48804919566551
5856.45 87.35080248458623
6062.99 87.37120440368307
6276.86 87.27876226010349
6498.05 86.92705238865307
6727.29 86.72190287273499
6964.6 86.43082951838785
7209.96 86.2466434075546
7464.11 86.13789406651013
7727.78 86.61389214235662
8000.24 87.12553831771527
8282.23 88.1903525255846
8574.46 88.83955336234791
8876.22 88.92594282444418
9189.7 89.06831027788316
9513.43 89.0432680640791
9848.88 88.76744570288294
10196.8 88.30831835205869
10556.4 88.09972045318356
10928.5 88.10354815860946
11313.7 88.2462375055854
11712.9 87.9626108117411
12126.0 87.8881333179756
12553.7 87.85092039467885
12996.1 87.73113751106604
13454.6 86.39782726727417
13928.5 83.9751339499819
14419.9 81.25384109215145
14928.2 79.96806879170815
15454.8 79.72699417325659
15999.8 79.68206505825776
16564.5 80.65545684022787
17148.2 81.2931603109821
17753.2 80.71639067932115
18379.4 80.5302895815333
19027.6 80.49003888119776
19698.5 80.39713276418564
19999.5 79.995337299298
