Freq "Side Wall Bounce"
20.5078 55.03164596072894
21.2402 53.95328716536157
21.9727 56.26494800423764
22.7051 57.29442267905061
23.4375 58.53704328197357
24.1699 60.20127700284873
25.6348 62.64967671229424
26.3672 63.50436554158348
27.0996 65.01623783397578
27.832 66.89989801348263
29.2969 68.72545573020692
30.0293 69.53590824228489
31.4941 71.34570761876377
32.2266 72.45234613013777
33.6914 74.40400864567039
34.4238 75.43270577341323
35.8887 76.91038680682792
37.3535 78.10807895999513
38.8184 79.3373726696018
39.5508 80.05987324736932
41.0156 81.12368553486985
42.4805 82.34861644553708
43.9453 83.29688352618224
45.4102 84.01475016867121
47.6074 84.97508164675777
49.0723 85.47942276327518
50.5371 85.8877885843283
52.7344 86.43340759600477
54.1992 86.76809200563444
56.3965 87.16406407995787
58.5938 87.52849847714161
60.0586 87.65577871975104
62.2559 87.95679253735506
64.4531 88.214371113675
66.6504 88.45841233476023
69.5801 88.71505658224744
71.7773 88.8309480660776
73.9746 88.97072246635706
76.9043 89.12129372745952
79.834 89.24092160344846
82.7637 89.2842221189075
85.6934 89.41690350448373
88.623 89.62708408987307
91.5527 89.58029304152276
94.4824 89.61509352700276
98.1445 89.45303714079067
101.807 89.29894964016394
105.469 89.16178795402843
109.131 88.98064595133583
112.793 88.78360468835201
116.455 88.65983103328885
120.85 88.66997051575346
125.244 88.60770354947304
129.639 88.4820828841769
134.033 88.30621218939027
138.428 88.29369315510064
143.555 88.08006821183446
148.682 87.94198476816011
153.809 87.84567279357348
159.668 87.49479630879217
164.795 87.28005213358043
170.654 87.36252888019519
176.514 87.09991964974479
183.105 87.26347897796919
189.697 87.5188070314805
196.289 87.30023720340388
202.881 86.58366259802028
210.205 87.23891321909896
217.529 87.42355215386057
225.586 87.47796174000348
232.91 87.59072440461624
241.699 87.70440391401645
249.756 87.3330974558564
258.545 87.54352147113956
268.066 88.35093027814798
277.588 87.98412623085933
287.109 88.13631135235413
297.363 88.51220533923075
307.617 88.28083054989658
318.604 88.45742342352956
329.59 88.59323258677715
341.309 88.81291490935966
353.76 88.59302674281088
366.211 88.13720006481095
378.662 88.6591360962092
392.578 88.09547445937474
405.762 88.49194878425791
420.41 87.48322557780152
435.059 87.69005248043298
450.439 87.06840389494528
466.553 87.53853128501675
482.666 87.43462080358536
500.244 87.15525924188768
517.822 86.72388050852096
536.133 87.03328527377538
554.443 87.35235387410874
574.219 86.40441414093848
594.727 87.06422887199021
615.234 86.54435915761815
637.207 87.42343741987767
659.912 87.69875931670713
683.35 86.89479307552249
706.787 87.04820552529219
731.689 86.29302676313023
758.057 86.16705446117693
784.424 85.46279373695499
812.256 85.06716676285343
840.82 85.51435446151288
870.85 85.72575486144315
901.611 85.23973569367845
933.105 85.34168774470679
966.064 84.34569247332595
999.756 84.1170066254749
1034.91 83.87895478996768
1071.53 83.60576018821524
1109.62 83.54972350834899
1148.44 83.58351809172362
1189.45 83.56512400377709
1231.2 83.23737959286889
1274.41 83.04098078358774
1319.82 82.49025864120382
1365.97 82.14149939136273
1414.31 82.44196003634079
1464.11 82.2424734484304
1515.38 82.63125399171273
1568.85 82.4843577039199
1624.51 81.70454886449336
1681.64 81.49594063456274
1740.97 81.4419702001028
1802.49 82.31818453051471
1866.21 82.82272091304986
1932.13 82.19588590448735
2000.24 81.85673763886429
2070.56 82.47510586450163
2143.8 82.52719275698522
2219.24 82.12009218174175
2297.61 82.4455217742517
2378.17 82.76622613400696
2462.4 82.42995397784134
2548.83 82.24947753010096
2638.92 82.92796825131958
2731.93 82.81812505435765
2828.61 82.44423258625521
2928.22 82.45380159535259
3031.49 82.47900125524215
3138.43 82.73458680349681
3249.02 82.84219428009513
3363.28 82.66921361932775
3481.93 82.78564632404799
3604.98 82.69427352225118
3732.42 82.30796173766204
3863.53 82.58212293921551
3999.76 82.71416582334784
4141.11 82.72896793367413
4286.87 81.95369584444502
4438.48 82.60349866451413
4594.48 83.79679179064028
4757.08 85.54203757779717
4924.8 86.37831608685883
5098.39 87.02065266564234
5277.83 87.12067444291398
5463.87 86.81157166847031
5656.49 86.77786882277381
5856.45 86.30035399306676
6062.99 85.61911736242732
6276.86 85.51414993599754
6498.05 85.29653319916322
6727.29 85.32162468379303
6964.6 85.27276705565826
7209.96 84.97418362471262
7464.11 85.10962846425245
7727.78 85.08402589022126
8000.24 86.13260858415981
8282.23 86.80463184280212
8574.46 87.15381014764931
8876.22 87.40920651764782
9189.7 87.12223829599564
9513.43 86.73638119017878
9848.88 86.68065623947261
10196.8 86.55078008330861
10556.4 86.35866081647573
10928.5 86.4496462910082
11313.7 86.80349351232263
11712.9 86.75903486755394
12126.0 86.63327415522237
12553.7 86.43494623381936
12996.1 85.81701815270205
13454.6 85.13678315338709
13928.5 83.60803208123083
14419.9 81.55408664939834
14928.2 79.64719106300528
15454.8 78.37485202562098
15999.8 77.89494087398302
16564.5 77.17287496004748
17148.2 76.6612030865863
17753.2 76.79635741820606
18379.4 76.67853799226047
19027.6 75.90876996133039
19698.5 75.70095357865891
19999.5 75.29534153552218
