Freq "Floor Bounce"
20.5078 58.52589745593205
21.9727 59.068458582991056
23.4375 59.57557263978153
24.9023 61.31433677110131
26.3672 62.3314770160455
27.832 65.309101320681
29.2969 67.39845976403349
30.7617 69.75799854180676
32.2266 71.97257448291185
33.6914 74.18723073627541
35.1563 76.22064359777782
36.6211 77.95836960618382
38.0859 79.25693827457135
39.5508 80.11086611077512
41.0156 80.56455178940057
42.4805 80.84227863514957
43.9453 81.02986407817751
45.4102 81.08889611228257
46.875 81.14815449704619
48.3398 81.21284201665542
51.2695 81.43908049664618
52.7344 81.58238306194887
54.1992 81.71401810800874
55.6641 81.85479177317198
58.5938 82.17551417156805
60.0586 82.36163914573784
62.9883 82.77662066485912
64.4531 82.95505148762143
67.3828 83.28278022403963
68.8477 83.47385069037948
71.7773 83.81337777091316
74.707 84.09242463254715
77.6367 84.32943045965116
79.1016 84.46647777412348
82.0313 84.74011711288308
84.9609 85.0230009682183
87.8906 85.23902936372076
90.8203 85.66004712626501
95.2148 85.930897189783
98.1445 86.08730611876014
101.074 86.214630275284
105.469 86.4862167370003
108.398 86.62438719655863
112.793 86.71969584701357
117.188 86.87123407178719
120.117 87.04642279981537
124.512 87.14160593987837
128.906 87.15805715038724
133.301 87.08504299917078
139.16 86.94460499424189
143.555 86.9643458162338
147.949 86.96282770685075
153.809 86.87637255413246
159.668 86.73321326267339
165.527 86.67136796585734
171.387 86.70484212013787
177.246 86.72417662153899
183.105 86.49616964544603
188.965 86.70438583069827
196.289 86.35132296437564
203.613 86.48861812036442
210.938 86.75966379217188
218.262 86.65571952455436
225.586 86.80436467981009
232.91 86.92826574694831
241.699 86.57718978743573
250.488 87.03134345318449
259.277 87.17712744236094
268.066 86.50739425864865
276.855 86.75741062286802
287.109 86.48180815506453
297.363 86.43986646558638
307.617 85.72861571010945
319.336 85.42835435565938
329.59 86.0558302816325
341.309 86.57271779936951
353.027 86.95390815134527
366.211 86.3635767443453
379.395 85.91696807894374
392.578 85.598364662774
405.762 85.74165488044405
420.41 85.59532471888485
435.059 85.66687917328454
451.172 84.93296428613499
465.82 84.7970732766816
483.398 85.58688541238209
499.512 85.17982429443671
517.09 84.93495040126912
536.133 85.18530875464643
555.176 84.6182116898348
574.219 85.16634674399317
594.727 84.74858915995121
615.234 85.58454796008972
637.207 85.06748970221943
659.18 85.05288773502838
682.617 84.83259608412158
707.52 84.78497820800878
732.422 84.34044927174203
757.324 84.69299746702173
785.156 84.56104244782837
811.523 84.12317060185538
840.82 84.65173191708598
870.117 83.97402831778903
900.879 84.34613590505116
933.105 83.8590407853538
965.332 84.05841805535405
1000.49 84.49809601922054
1035.64 85.01151253928354
1072.27 84.49206836882298
1108.89 84.70347605293088
1148.44 84.5024133660578
1189.45 84.02868458260603
1230.47 84.02636554855046
1274.41 83.6321058247819
1319.82 83.62238174271435
1366.7 83.44100628748872
1413.57 83.11410014835464
1463.38 82.94907708492954
1516.11 82.67195372766915
1568.85 82.54117326357833
1624.51 82.52838216091037
1681.64 82.70501650392318
1741.7 83.15491584109411
1803.22 83.30020779906305
1866.21 83.25752389245314
1932.13 83.5456548121219
1999.51 83.8633866715888
2069.82 84.08798028308205
2143.07 84.32842423899433
2219.24 84.42671785134932
2296.88 84.70057560993492
2378.91 85.01931061209508
2462.4 85.1994174263284
2548.83 85.3778841732812
2639.65 85.46916194023903
2731.93 85.53001983223712
2828.61 85.56038060022014
2928.22 85.47447333789837
3030.76 85.37959740183963
3137.7 85.2144619060049
3249.02 85.06783872620505
3363.28 84.96577065153556
3481.93 85.03228162828036
3604.98 84.81332665177911
3732.42 84.80256848162378
3864.26 84.80931570116344
4000.49 84.70111684505174
4141.11 84.49602247234208
4287.6 84.4772729322588
4438.48 84.29927215651823
4595.21 84.34991604805194
4756.35 84.51446024424565
4924.8 84.57040673319837
5097.66 84.55806727208618
5277.83 84.52973841869246
5463.87 84.59157630853478
5657.23 84.64740960866789
5856.45 84.67920321892774
6062.99 84.68356127273915
6276.86 84.61145263374573
6498.05 84.5632442542841
6726.56 84.60562173380548
6963.87 84.54394718533362
7209.96 84.29119938907394
7464.84 83.94892019572598
7727.05 83.76181647425669
7999.51 83.50740359110465
8282.23 83.01307901548556
8573.73 82.79624404575405
8876.95 82.88962746955151
9188.96 83.02146583889369
9514.16 83.12280586659278
9849.61 83.34665856979014
10196.8 83.25507078383721
10555.7 83.24929911976196
10927.7 83.37757910287225
11313.0 83.2751962416988
11712.9 82.88978033088458
12126.0 82.49926806959041
12553.7 82.31859736538414
12996.1 82.70384291877072
13454.6 82.92139176932065
13929.2 82.93106306755692
14419.9 82.97600181564806
14928.2 82.60423430496617
15455.6 82.52139139077772
16000.5 82.37842529099917
16564.5 82.07826885000566
17148.9 82.08064214505247
17752.4 81.74293653483642
18379.4 81.57902587909342
19026.9 81.39171806004937
19697.8 81.0195176530753
19999.5 81.03037130645124
