Freq "Front Wall Bounce"
20.5078 58.0354142470088
21.9727 58.281206179207246
23.4375 58.9239932099688
24.9023 60.76610702821203
26.3672 61.93932045101384
27.832 64.98625719127104
29.2969 67.14396642914738
30.7617 69.53137600063806
32.2266 71.77326693395555
33.6914 74.00298835040697
35.1563 76.04819795944832
36.6211 77.78896457662127
38.0859 79.0868825819342
39.5508 79.93925971162524
41.0156 80.392016772527
42.4805 80.67019853780876
43.9453 80.85135337627715
45.4102 80.90540115638628
46.875 80.96427305661756
48.3398 81.02682962924224
51.2695 81.24433277771773
52.7344 81.38522705969977
54.1992 81.51509724722278
55.6641 81.65330386237284
58.5938 81.97163683276385
60.0586 82.14445869044992
62.9883 82.54328760550973
64.4531 82.73197750551444
67.3828 83.07401228444634
68.8477 83.25435094219053
71.7773 83.58344411751379
74.707 83.85765647330787
77.6367 84.08454320312967
79.1016 84.21512974580914
82.0313 84.48051108526106
84.9609 84.76291686782601
87.8906 84.9884510418468
90.8203 85.40307253314688
95.2148 85.65802962354792
98.1445 85.80403001635786
101.074 85.92969341351291
105.469 86.22109314013156
108.398 86.3417901705001
112.793 86.38600855611786
117.188 86.52133028457062
120.117 86.75958443786311
124.512 86.8158611676863
128.906 86.8004627410864
133.301 86.7235064608069
139.16 86.51254683486279
143.555 86.59891896185
147.949 86.62444889784963
153.809 86.48046804177963
159.668 86.34603482255157
165.527 86.26989150329173
171.387 86.32128562770464
177.246 86.28221324849812
183.105 86.0652442716947
188.965 86.29760724610274
196.289 85.90895218315768
203.613 86.11818401202378
210.938 86.42706561716237
218.262 86.3142425482139
225.586 86.37468900432896
232.91 86.70352452973587
241.699 86.34259805165381
250.488 87.02926249809623
259.277 87.31464787394468
268.066 86.59355628774694
276.855 86.94666907470891
287.109 86.82367644910921
297.363 86.97941191277842
307.617 86.1433820462579
319.336 86.04853769938283
329.59 86.6937341211776
341.309 87.05666834436083
353.027 87.63549687831681
366.211 87.05726658977694
379.395 86.73903613686728
392.578 86.58661659107591
405.762 86.79637583559523
420.41 86.50864620204155
435.059 87.03667934413136
451.172 86.46571343291828
465.82 86.13143326366635
483.398 86.99677226276815
499.512 86.2392278524842
517.09 86.39711009187097
536.133 86.49036240591991
555.176 86.22900449275488
574.219 86.76778783001521
594.727 86.43321707967611
615.234 87.25944913416139
637.207 86.81385676393741
659.18 86.65010836799702
682.617 86.55997760156653
707.52 86.10925874196263
732.422 85.95660603599397
757.324 86.07865451768984
785.156 85.59146879611184
811.523 85.79219428783067
840.82 85.69250843912057
870.117 85.47315102162891
900.879 85.48425313343284
933.105 85.11246065028936
965.332 84.97733904262952
1000.49 85.6499516825563
1035.64 86.06777149843411
1072.27 86.14307505545732
1108.89 85.89639558117496
1148.44 85.77919549060026
1189.45 85.53380156490996
1230.47 85.67734034944648
1274.41 85.73257710799764
1319.82 86.07356373460216
1366.7 85.82201437086754
1413.57 85.54617894020313
1463.38 85.70163712264075
1516.11 85.55792504205768
1568.85 85.14120724074807
1624.51 85.17720438834753
1681.64 85.71464544960635
1741.7 85.85265636192383
1803.22 85.36669444801555
1866.21 85.43416443136827
1932.13 85.57925344973081
1999.51 85.24629795834637
2069.82 85.24757138301588
2143.07 85.49764577746595
2219.24 85.20736462819269
2296.88 85.37151290922363
2378.91 85.37583977026495
2462.4 85.52406291853083
2548.83 85.50621812169264
2639.65 85.70506246156681
2731.93 85.76907012899278
2828.61 85.92048033076013
2928.22 86.07421876517716
3030.76 86.24005146629351
3137.7 86.33183166675789
3249.02 86.33948684817835
3363.28 86.7810524474291
3481.93 86.4236000098027
3604.98 86.88415533544797
3732.42 86.72927804346659
3864.26 86.78924741687479
4000.49 87.02320896883184
4141.11 86.64804575858543
4287.6 86.7163844106175
4438.48 86.68109525298023
4595.21 86.56364388790368
4756.35 86.8484136814891
4924.8 86.80806647316227
5097.66 86.85234922959255
5277.83 86.84609115243354
5463.87 86.7825874522089
5657.23 86.7082711402905
5856.45 86.59209346652746
6062.99 86.55775083622561
6276.86 86.54118478082773
6498.05 86.4928621605585
6726.56 86.50563372437259
6963.87 86.52637473783089
7209.96 86.45785911859663
7464.84 86.31940962087991
7727.05 86.09214487096631
7999.51 85.94200616199275
8282.23 85.62122915668229
8573.73 85.88146960093631
8876.95 86.25149885032963
9188.96 86.47701442604365
9514.16 86.43097136460823
9849.61 86.3731386993097
10196.8 86.24501902142505
10555.7 86.04006684115329
10927.7 85.78024100596808
11313.0 85.81379119903902
11712.9 85.84867401799573
12126.0 85.8249939697488
12553.7 85.7341339392914
12996.1 85.77275595479347
13454.6 85.8078466328114
13929.2 85.52408476236617
14419.9 85.49924655671045
14928.2 85.377818837922
15455.6 84.98922146332121
16000.5 84.39592715082047
16564.5 84.26307421550251
17148.9 84.20906067105452
17752.4 83.87927657313031
18379.4 83.69449736169
19026.9 83.57287394687252
19697.8 82.91682705839229
19999.5 82.92740506089142
