Freq,On Axis,Listening Window,Sound Power,Early Reflections,Early Reflections DI,Sound Power DI,DI offset
22.4,47.177215189873394,49.97755665729058,48.0307978471062,49.51426270815104,50.46329394913954,51.94675881018438,50
23.0,47.477215189873405,50.64050831176287,48.80746958028037,50.174186382181816,50.466321929581056,51.8330387314825,50
23.6,47.977215189873405,51.27745937988571,49.68890230137758,50.855429391500124,50.42202998838559,51.58855707850813,50
24.0,48.477215189873405,51.91624873203516,50.615839837892466,51.49907154418612,50.417177187849035,51.30040889414269,50
25.0,48.977215189873405,52.20554731617362,51.39743412895346,51.8832710431012,50.32227627307242,50.80811318722016,50
25.8,49.5772151898734,52.020043860274214,51.923760278941316,52.03938495404908,49.98065890622513,50.0962835813329,50
26.5,50.27721518987342,51.68088913680056,52.36636557836458,52.1578616496319,49.52302748716866,49.31452355843598,50
27.2,51.0772151898734,51.35203613509877,52.724032626576744,52.29927711113557,49.052759023963205,48.62800350852203,50
28.0,52.0772151898734,51.262116644540285,53.26573455027163,52.70772241688012,48.55439422766017,47.996382094268654,50
29.0,53.0772151898734,51.62156352480345,53.86226079644116,53.27149757067916,48.35006595412429,47.759302728362286,50
30.0,53.87721518987341,52.07133355510503,54.2978146709154,53.729974352131265,48.34135920297376,47.77351888418963,50
30.7,54.77721518987342,52.78986651321385,54.830264651120316,54.33121847757316,48.45864803564069,47.959601862093535,50
31.5,55.77721518987342,53.84501727676549,55.477248686456434,55.09004406581856,48.75497321094693,48.367768590309055,50
32.5,56.87721518987341,55.13547379424425,56.1995536988952,55.97373402744843,49.16173976679582,48.93592009534905,50
33.5,57.977215189873405,56.4646017733328,56.94747838038698,56.91139349855352,49.55320827477928,49.51712339294582,50
34.5,59.0772151898734,57.80800450521467,57.70085278713454,57.85739899307818,49.95060551213649,50.10715171808013,50
35.5,60.177215189873394,59.15705441893461,58.544163053812426,58.89409709269704,50.26295732623757,50.61289136512218,50
36.5,61.27721518987342,60.46864154695619,59.44900176344926,59.96891582707285,50.499725719883344,51.01963978350693,50
37.5,62.477215189873405,61.69577759364272,60.370315451057465,61.03509220405756,50.660685389585154,51.32546214258525,50
38.7,63.5772151898734,62.99675969800664,61.435789057192565,62.211389963760226,50.785369734246416,51.56097064081408,50
40.0,64.77721518987342,64.30982426945205,62.59468493419935,63.46303591954698,50.84678834990507,51.7151393352527,50
41.2,66.1772151898734,65.72499755203707,63.9054196006587,64.82358183806632,50.90141571397075,51.81957795137836,50
42.5,67.1772151898734,66.90082872874102,65.06888264167627,66.00661286499984,50.89421586374118,51.83194608706475,50
43.7,68.37721518987341,68.15392227161756,66.33786307991333,67.26212982985307,50.891792441764494,51.81605919170423,50
45.0,69.4772151898734,69.27496363512178,67.49913916193687,68.40730477927569,50.86765885584609,51.77582447318491,50
46.2,70.5772151898734,70.35079622869536,68.62763362398765,69.50892260564657,50.841873623048784,51.72316260470771,50
47.5,71.6772151898734,71.54953760057725,69.8854176263407,70.74728244352701,50.80225515705024,51.664119974236556,50
48.7,72.77721518987339,72.6935431873968,71.0638038919386,71.90031460569439,50.79322858170241,51.629739295458194,50
50.0,73.77721518987342,73.70398106707752,72.12134859744356,72.91834479576842,50.7856362713091,51.582632469633964,50
51.5,74.67721518987341,74.59099214694376,73.06593707684843,73.847394169849,50.743597977094765,51.525055070095334,50
53.0,75.4772151898734,75.39099214694376,73.93086929506163,74.66599425371827,50.72499789322549,51.46012285188213,50
54.5,76.27721518987342,76.19099214694376,74.75664259764501,75.47208822508057,50.71890392186319,51.434349549298744,50
56.0,77.07721518987341,76.99099214694375,75.58008540907456,76.26162139600915,50.729370750934606,51.4109067378692,50
58.0,77.87721518987341,77.89048783568448,76.52731002695393,77.1829969745408,50.70749086114368,51.363177808730555,50
60.0,78.87721518987341,78.81233987005533,77.49619662335647,78.11651468581913,50.6958251842362,51.31614324669886,50
61.5,79.67721518987341,79.65570538700251,78.37669762724454,78.98008420859031,50.6756211784122,51.279007759757974,50
63.0,80.5772151898734,80.55570538700252,79.2947376763694,79.8823436826673,50.67336170433522,51.260967710633125,50
65.0,81.6772151898734,81.65570538700251,80.42525626288659,80.99907889816613,50.65662648883638,51.23044912411592,50
67.0,82.77721518987339,82.71131275279552,81.51552179978798,82.0573434531552,50.65396929964032,51.195790953007545,50
69.0,83.77721518987342,83.76673008530024,82.60197754235068,83.12446789974804,50.6422621855522,51.16475254294956,50
71.0,84.7772151898734,84.77772686791387,83.64105263306918,84.16296565114727,50.614761216766595,51.13667423484469,50
73.0,85.5772151898734,85.56673008530022,84.46242464793166,84.9658844561017,50.60084562919852,51.104305437368566,50
75.0,86.27721518987342,86.24465263093023,85.16894510030023,85.6589875639003,50.585665067029936,51.07570753063,50
77.5,87.2772151898734,87.22194414045062,86.15429446760466,86.63692098652957,50.58502315392104,51.06764967284596,50
80.0,88.2772151898734,88.20014629235403,87.10735286221443,87.60121228644637,50.598934005907665,51.09279343013961,50
82.5,89.07721518987343,88.97823848567647,87.83429612888399,88.35428448938231,50.62395399629416,51.14394235679248,50
85.0,89.57721518987341,89.47823848567647,88.25036743557045,88.8048005129551,50.67343797272137,51.22787105010602,50
87.5,89.7772151898734,89.67823848567647,88.41179342719725,88.98533821083143,50.692900274845044,51.26644505847922,50
90.0,90.27721518987339,90.17823848567646,88.85697337087139,89.45930077316605,50.71893771251041,51.32126511480507,50
92.5,90.9772151898734,90.85672205999309,89.44680383844887,90.09433559739203,50.76238646260106,51.40991822154422,50
95.0,91.6772151898734,91.50091567258845,90.03033166331855,90.70001074826196,50.80090492432649,51.4705840092699,50
97.5,92.17721518987341,92.01233987005533,90.49217485535003,91.184641601741,50.82769826831432,51.5201650147053,50
100.0,92.77721518987339,92.6567220599931,91.07871845633683,91.80935443599533,50.84736762399777,51.57800360365627,50
103.0,93.2772151898734,93.15672205999309,91.51779774546733,92.2814351632856,50.87528689670749,51.63892431452575,50
106.0,93.57721518987341,93.4567220599931,91.787968893862,92.59172193585816,50.86500012413494,51.6687531661311,50
109.0,93.77721518987342,93.6138626311027,91.91850914610326,92.7184657329194,50.89539689818331,51.695353484999444,50
112.0,93.9772151898734,93.81386263110271,92.12328741949118,92.93901459867317,50.87484803242954,51.69057521161153,50
115.0,94.07721518987343,93.89099214694376,92.20861908616806,93.01381540138573,50.87717674555803,51.6823730607757,50
118.0,94.07721518987343,93.89099214694376,92.24146364381629,93.0437937270603,50.847198419883455,51.64952850312747,50
122.0,94.1772151898734,93.95875523098873,92.27181507005044,93.07615277449305,50.882602456495675,51.68694016093829,50
125.0,94.1772151898734,93.99099214694375,92.31431764958752,93.11697332458714,50.87401882235662,51.67667449735623,50
128.0,94.1772151898734,93.93714182066361,92.20201397773532,93.03363993057168,50.90350189009193,51.73512784292829,50
132.0,94.07721518987343,93.87002848508189,92.07140297526142,92.93090323462651,50.939125250455376,51.79862550982047,50
136.0,93.9772151898734,93.71640027668603,91.84977347045483,92.74981393512941,50.96658634155662,51.866626806231196,50
140.0,93.77721518987342,93.57002848508188,91.58530691260802,92.54705160638959,51.02297687869229,51.98472157247386,50
145.0,93.67721518987341,93.4277838673833,91.29119226320408,92.31657346151688,51.111210405866416,52.136591604179216,50
150.0,93.57721518987341,93.32778386738329,91.08934373126107,92.19633665296463,51.13144721441866,52.23844013612222,50
155.0,93.67721518987341,93.37306990189892,90.94875265013272,92.15933965511172,51.21373024678719,52.4243172517662,50
160.0,93.57721518987341,93.2529689664823,90.65538401606547,91.97464738884253,51.27832157763977,52.59758495041683,50
165.0,93.4772151898734,93.20747173945585,90.39107613160861,91.82680531543336,51.38066642402249,52.81639560784724,50
170.0,93.57721518987341,93.28752976560342,90.28147598921718,91.84188014242915,51.445649623174276,53.00605377638624,50
175.0,93.67721518987341,93.31149418165838,90.10714843600199,91.78438022840417,51.5271139532542,53.20434574565638,50
180.0,93.77721518987342,93.42315572358076,90.04856837689441,91.83927042781657,51.58388529576419,53.374587346686354,50
185.0,93.87721518987341,93.54638528611288,89.99354146910656,91.88358805743452,51.66279722867836,53.55284381700632,50
190.0,93.9772151898734,93.64638528611287,89.9348603305186,91.91385883594266,51.73252645017021,53.71152495559427,50
195.0,93.9772151898734,93.64638528611287,89.80960890011606,91.85795121507688,51.788434071035994,53.836776385996814,50
200.0,94.07721518987343,93.65849807908832,89.70111850010413,91.82477250580543,51.83372557328289,53.95737957898419,50
206.0,93.87721518987341,93.52707248122017,89.45851281113323,91.64033756961864,51.886734911601536,54.06855967008694,50
212.0,93.67721518987341,93.25849807908831,89.0934033889883,91.34632100695805,51.91217707213026,54.165094690100005,50
218.0,93.37721518987341,92.9705771825328,88.70359876098907,91.01884054197834,51.95173664055446,54.266978421543726,50
224.0,93.2772151898734,92.85137189597872,88.43770755374806,90.83169779694158,52.01967409903713,54.41366434223066,50
230.0,93.2772151898734,92.85137189597872,88.28819465755508,90.76394639099334,52.087425504985376,54.563177238423634,50
236.0,93.37721518987341,92.92033580157792,88.17150604212034,90.7533240210641,52.16701178051382,54.74882975945758,50
240.0,93.37721518987341,92.93252136467572,88.00320554166446,90.67384696119255,52.25867440348317,54.929315823011265,50
250.0,93.37721518987341,92.86860595379012,87.76897957231469,90.55754228514876,52.31106366864137,55.09962638147543,50
258.0,93.2772151898734,92.7803830715952,87.4968128664333,90.3847336084557,52.39564946313949,55.283570205161894,50
265.0,93.2772151898734,92.71100372773627,87.23108456444808,90.23419346467536,52.47681026306091,55.47991916328819,50
272.0,93.17721518987341,92.65025853170705,87.01841680049961,90.12431333097858,52.52594520072847,55.631841731207444,50
280.0,93.17721518987341,92.61100372773627,86.81049484526356,90.01130746268193,52.59969626505435,55.80050888247271,50
290.0,93.17721518987341,92.59324934232258,86.60942562700178,89.91040079986364,52.68284854245894,55.983823715320796,50
300.0,93.17721518987341,92.5060880578303,86.35469311779109,89.74544959414668,52.76063846368362,56.15139494003921,50
307.0,93.0772151898734,92.45479152766926,86.14993810130152,89.6196029399338,52.83518858773546,56.30485342636774,50
315.0,93.17721518987341,92.48871893204306,86.02792463623601,89.58024912471316,52.908469807329894,56.46079429580705,50
325.0,93.2772151898734,92.58428707596794,85.95685390027607,89.59058594137015,52.993701134597785,56.62743317569186,50
335.0,93.37721518987341,92.63382097426746,85.85543192258025,89.56331910773436,53.07050186653311,56.77838905168721,50
345.0,93.2772151898734,92.50539130045082,85.5474118531001,89.3333118882788,53.172079412172025,56.95797944735072,50
355.0,92.9772151898734,92.16820862271017,85.04308049300836,88.88713624525552,53.28107237745465,57.12512812970181,50
365.0,92.77721518987339,91.96820862271018,84.66914643916023,88.58346749749656,53.38474112521362,57.29906218354995,50
375.0,92.77721518987339,91.91581690731608,84.42707570493027,88.40119434594023,53.51462256137586,57.48874120238581,50
387.0,92.4772151898734,91.6365612309606,83.96895123792824,87.99704539003089,53.639515840929704,57.66760999303236,50
400.0,92.07721518987341,91.18523080807624,83.32416525442467,87.39015541113497,53.79507539694127,57.86106555365157,50
412.0,91.7772151898734,90.83766027128279,82.78996520803605,86.87115387319602,53.966506398086764,58.047695063246735,50
425.0,91.6772151898734,90.66969319693493,82.50898594348608,86.53536651852068,54.134326678414254,58.16070725344885,50
437.0,91.6772151898734,90.59478584717384,82.37095978042599,86.29337029814829,54.30141554902555,58.22382606674785,50
450.0,91.6772151898734,90.54743473370289,82.34042304863043,86.0932860684652,54.45414866523768,58.20701168507246,50
462.0,91.9772151898734,90.74898911759068,82.69811808305643,86.21375835462895,54.53523076296173,58.050871034534254,50
475.0,92.37721518987341,91.16399059346463,83.34021992747326,86.52337340314541,54.64061719031922,57.823770665991375,50
487.0,92.77721518987339,91.46674282771389,83.89281196155609,86.75565260576538,54.71109022194851,57.573930866157795,50
500.0,92.9772151898734,91.69375087679761,84.2136919590736,86.92069609083707,54.77305478596054,57.48005891772401,50
515.0,93.0772151898734,91.76677149450437,84.31084718696219,87.03905614044118,54.72771535406319,57.455924307542176,50
530.0,93.17721518987341,91.96459634167572,84.42096064178516,87.35882311788826,54.60577322378745,57.54363569989056,50
545.0,93.2772151898734,92.18583838253909,84.54035271240598,87.73111591167307,54.45472247086602,57.64548567013311,50
560.0,93.17721518987341,92.2731935669498,84.50638480893753,87.96718075943957,54.30601280751023,57.766808758012274,50
580.0,92.87721518987341,92.05831873899288,84.29445248795695,87.93835739714979,54.119961341843094,57.763866251035935,50
600.0,92.37721518987341,91.77478289655751,84.16177071384494,87.84560580545589,53.92917709110162,57.613012182712566,50
615.0,91.9772151898734,91.46298763834844,84.10927188619051,87.73127175620694,53.7317158821415,57.353715752157925,50
630.0,91.57721518987343,91.16927729839071,84.12603515963333,87.67319122000448,53.49608607838623,57.04324213875738,50
650.0,91.37721518987341,90.89231683413674,84.07788631265447,87.57452505140992,53.317791782726815,56.814430521482265,50
670.0,91.17721518987341,90.65524150510834,83.95696574519233,87.47769251231354,53.1775489927948,56.698275759916,50
690.0,91.17721518987341,90.53447222630034,83.74665639331897,87.3722116611524,53.16226056514793,56.787815832981366,50
710.0,91.37721518987341,90.4622826503858,83.48364036881911,87.26931876133439,53.19296388905141,56.97864228156669,50
730.0,91.4772151898734,90.43325534238873,83.19566746281143,87.15542808147697,53.277827260911764,57.237587879577305,50
750.0,91.57721518987343,90.4529470812811,82.96824795306806,87.05468230810612,53.39826477317497,57.48469912821304,50
775.0,91.57721518987343,90.42773884443308,82.74369656413235,86.92229840914739,53.50544043528569,57.68404228030073,50
800.0,91.4772151898734,90.3140489836268,82.50402857987727,86.7163653632571,53.59768362036971,57.81002040374953,50
825.0,91.37721518987341,90.20123381556299,82.29517246245922,86.52699548112444,53.67423833443854,57.906061353103766,50
850.0,91.37721518987341,90.20123381556299,82.18981182309959,86.4233091156972,53.77792469986579,58.0114219924634,50
875.0,91.37721518987341,90.20123381556299,82.08168264598812,86.32693646767036,53.87429734789262,58.11955116957486,50
900.0,91.57721518987343,90.3223169271584,82.0672273112006,86.32607963247625,53.996237294682146,58.2550896159578,50
925.0,91.7772151898734,90.49607118323148,82.12999020046448,86.42378507623526,54.072286106996216,58.366080982767,50
950.0,91.87721518987341,90.7272145198559,82.30148011612282,86.58695543748517,54.14025908237073,58.42573440373309,50
975.0,91.9772151898734,90.9095399966494,82.5960958910077,86.84010820804531,54.06943178860409,58.31344410564169,50
1000.0,91.87721518987341,91.04880894681828,82.98181229831825,87.10832359661136,53.94048535020693,58.06699664850004,50
1030.0,91.6772151898734,91.0361038105794,83.30424820079742,87.31321181302164,53.72289199755777,57.73185560978199,50
1060.0,91.37721518987341,90.9708050528509,83.50416937815747,87.40316837199529,53.567636680855614,57.466635674693435,50
1090.0,91.27721518987342,90.85979070725386,83.4673742029034,87.36740407487635,53.49238663237752,57.392416504350464,50
1120.0,91.27721518987342,90.71877659090251,83.16406373278623,87.16457747705243,53.554199113850075,57.554712858116275,50
1150.0,91.37721518987341,90.5118806766866,82.63495846218494,86.81329043643463,53.698590240251974,57.87692221450166,50
1180.0,91.37721518987341,90.22659591919296,81.96705620721933,86.36070012638355,53.86589579280941,58.25953971197363,50
1220.0,91.37721518987341,89.92896820675877,81.37925471495232,85.94470578673759,53.98426242002118,58.54971349180644,50
1250.0,91.27721518987342,89.72599685417511,81.07644111058984,85.72732969250647,53.998667161668635,58.64955574358527,50
1280.0,91.27721518987342,89.7250188040641,81.10376925471186,85.77776254296707,53.94725626109704,58.62124954935224,50
1320.0,91.27721518987342,89.84873741431487,81.30768945307524,85.97412493903956,53.87461247527531,58.54104796123963,50
1360.0,91.37721518987341,90.07700186968529,81.51161384438042,86.19490856609404,53.88209330359125,58.56538802530487,50
1400.0,91.4772151898734,90.27543981753556,81.58812719245928,86.27873547417423,53.99670434336133,58.687312625076274,50
1450.0,91.4772151898734,90.41442008760679,81.58732688173107,86.29193567552024,54.12248441208655,58.82709320587571,50
1500.0,91.27721518987342,90.30904977427129,81.42980221667237,86.10823893691006,54.20081083736123,58.879247557598916,50
1550.0,91.07721518987341,90.05911571505776,81.11474120111887,85.80834783026545,54.25076788479231,58.94437451393888,50
1600.0,91.07721518987341,89.7170686144876,80.61056648366456,85.38828904148988,54.32877957299772,59.106502130823046,50
1650.0,91.17721518987341,89.33553247462238,79.95553990427177,84.81354470951761,54.52198776510477,59.37999257035061,50
1700.0,91.17721518987341,89.00316322051937,79.38720762181205,84.25855085364644,54.74461236687293,59.615955598707316,50
1750.0,91.17721518987341,88.92162300595,79.17429831664133,83.9941521029697,54.9274709029803,59.74732468930867,50
1800.0,91.27721518987342,89.11746067682618,79.41432014241055,84.18224485499583,54.935215821830354,59.70314053441564,50
1850.0,91.07721518987341,89.31683779900119,79.94391321611803,84.60048246243456,54.716355336566636,59.37292458288316,50
1900.0,90.7772151898734,89.38764095539874,80.45294727552317,84.98034998157267,54.407290973826065,58.934693679875565,50
1950.0,90.67721518987341,89.39735431335899,80.66560640215896,85.09228550505482,54.30506880830417,58.73174791120003,50
2000.0,90.87721518987341,89.34529137068337,80.58512394361487,84.97377332434698,54.37151804633639,58.760167427068495,50
2060.0,91.07721518987341,89.32792307215128,80.52596563823386,84.91472657314337,54.41319649900791,58.80195743391742,50
2120.0,91.17721518987341,89.27371623548353,80.4986196585305,84.92879373272798,54.34492250275555,58.77509657695303,50
2180.0,91.17721518987341,89.3045401633163,80.34101707183181,84.90323102936158,54.401309133954726,58.96352309148449,50
2240.0,90.87721518987341,89.3570826293839,80.19472481656877,84.82240736532606,54.53467526405784,59.16235781281513,50
2300.0,90.67721518987341,89.31296784349543,80.05633054713522,84.72596786300586,54.586999980489566,59.25663729636021,50
2360.0,90.7772151898734,89.18583536902426,79.75981487260852,84.52541652816137,54.66041884086289,59.426020496415745,50
2400.0,91.07721518987341,89.06893122743402,79.44290115661103,84.31909735905458,54.74983386837944,59.62603007082299,50
2500.0,91.27721518987342,88.9893990894742,79.12217518796594,84.08594857175432,54.90345051771989,59.86722390150827,50
2580.0,91.4772151898734,89.07203036857995,78.84915492420755,83.92712773113847,55.144902637441476,60.22287544437239,50
2650.0,91.37721518987341,89.08792987306143,78.66441647465787,83.80714705095997,55.28078282210146,60.42351339840356,50
2720.0,91.07721518987341,89.04079244452483,78.61620143024824,83.77928004016529,55.261512404359536,60.42459101427659,50
2800.0,91.07721518987341,88.96756087317057,78.60765179002289,83.73165956691282,55.235901306257745,60.359909083147684,50
2900.0,91.37721518987341,88.97688443598611,78.58101474991773,83.68609714929613,55.29078728668998,60.39586968606838,50
