Freq "Listening Window"
22.4 49.97755665729058
23.0 50.64050831176287
23.6 51.27745937988571
24.0 51.91624873203516
25.0 52.20554731617362
25.8 52.020043860274214
26.5 51.68088913680056
27.2 51.35203613509877
28.0 51.262116644540285
29.0 51.62156352480345
30.0 52.07133355510503
30.7 52.78986651321385
31.5 53.84501727676549
32.5 55.13547379424425
33.5 56.4646017733328
34.5 57.80800450521467
35.5 59.15705441893461
36.5 60.46864154695619
37.5 61.69577759364272
38.7 62.99675969800664
40.0 64.30982426945205
41.2 65.72499755203707
42.5 66.90082872874102
43.7 68.15392227161756
45.0 69.27496363512178
46.2 70.35079622869536
47.5 71.54953760057725
48.7 72.6935431873968
50.0 73.70398106707752
51.5 74.59099214694376
53.0 75.39099214694376
54.5 76.19099214694376
56.0 76.99099214694375
58.0 77.89048783568448
60.0 78.81233987005533
61.5 79.65570538700251
63.0 80.55570538700252
65.0 81.65570538700251
67.0 82.71131275279552
69.0 83.76673008530024
71.0 84.77772686791387
73.0 85.56673008530022
75.0 86.24465263093023
77.5 87.22194414045062
80.0 88.20014629235403
82.5 88.97823848567647
85.0 89.47823848567647
87.5 89.67823848567647
90.0 90.17823848567646
92.5 90.85672205999309
95.0 91.50091567258845
97.5 92.01233987005533
100.0 92.6567220599931
103.0 93.15672205999309
106.0 93.4567220599931
109.0 93.6138626311027
112.0 93.81386263110271
115.0 93.89099214694376
118.0 93.89099214694376
122.0 93.95875523098873
125.0 93.99099214694375
128.0 93.93714182066361
132.0 93.87002848508189
136.0 93.71640027668603
140.0 93.57002848508188
145.0 93.4277838673833
150.0 93.32778386738329
155.0 93.37306990189892
160.0 93.2529689664823
165.0 93.20747173945585
170.0 93.28752976560342
175.0 93.31149418165838
180.0 93.42315572358076
185.0 93.54638528611288
190.0 93.64638528611287
195.0 93.64638528611287
200.0 93.65849807908832
206.0 93.52707248122017
212.0 93.25849807908831
218.0 92.9705771825328
224.0 92.85137189597872
230.0 92.85137189597872
236.0 92.92033580157792
240.0 92.93252136467572
250.0 92.86860595379012
258.0 92.7803830715952
265.0 92.71100372773627
272.0 92.65025853170705
280.0 92.61100372773627
290.0 92.59324934232258
300.0 92.5060880578303
307.0 92.45479152766926
315.0 92.48871893204306
325.0 92.58428707596794
335.0 92.63382097426746
345.0 92.50539130045082
355.0 92.16820862271017
365.0 91.96820862271018
375.0 91.91581690731608
387.0 91.6365612309606
400.0 91.18523080807624
412.0 90.83766027128279
425.0 90.66969319693493
437.0 90.59478584717384
450.0 90.54743473370289
462.0 90.74898911759068
475.0 91.16399059346463
487.0 91.46674282771389
500.0 91.69375087679761
515.0 91.76677149450437
530.0 91.96459634167572
545.0 92.18583838253909
560.0 92.2731935669498
580.0 92.05831873899288
600.0 91.77478289655751
615.0 91.46298763834844
630.0 91.16927729839071
650.0 90.89231683413674
670.0 90.65524150510834
690.0 90.53447222630034
710.0 90.4622826503858
730.0 90.43325534238873
750.0 90.4529470812811
775.0 90.42773884443308
800.0 90.3140489836268
825.0 90.20123381556299
850.0 90.20123381556299
875.0 90.20123381556299
900.0 90.3223169271584
925.0 90.49607118323148
950.0 90.7272145198559
975.0 90.9095399966494
1000.0 91.04880894681828
1030.0 91.0361038105794
1060.0 90.9708050528509
1090.0 90.85979070725386
1120.0 90.71877659090251
1150.0 90.5118806766866
1180.0 90.22659591919296
1220.0 89.92896820675877
1250.0 89.72599685417511
1280.0 89.7250188040641
1320.0 89.84873741431487
1360.0 90.07700186968529
1400.0 90.27543981753556
1450.0 90.41442008760679
1500.0 90.30904977427129
1550.0 90.05911571505776
1600.0 89.7170686144876
1650.0 89.33553247462238
1700.0 89.00316322051937
1750.0 88.92162300595
1800.0 89.11746067682618
1850.0 89.31683779900119
1900.0 89.38764095539874
1950.0 89.39735431335899
2000.0 89.34529137068337
2060.0 89.32792307215128
2120.0 89.27371623548353
2180.0 89.3045401633163
2240.0 89.3570826293839
2300.0 89.31296784349543
2360.0 89.18583536902426
2400.0 89.06893122743402
2500.0 88.9893990894742
2580.0 89.07203036857995
2650.0 89.08792987306143
2720.0 89.04079244452483
2800.0 88.96756087317057
2900.0 88.97688443598611
3000.0 89.0551749215664
3070.0 88.98281207808384
3150.0 88.80711169161343
3250.0 88.74340347535806
3350.0 88.59920593202885
3450.0 88.64941310439515
3550.0 88.7905652767523
3650.0 88.39105205246996
3750.0 87.9098772092148
3870.0 88.3299051740464
4000.0 88.21027513088636
4120.0 87.87963774032214
4250.0 87.7022103997552
4370.0 87.58600205107663
4500.0 87.38095063305015
4620.0 87.01658990837235
4750.0 86.89220012394445
4870.0 86.69391884618084
5000.0 86.5264068043071
5150.0 86.57125731870993
5300.0 86.43270488813899
5450.0 86.2566534556339
5600.0 86.49771002055317
5800.0 86.49641502007454
6000.0 86.40341090284937
6150.0 86.29417431675108
6300.0 85.82769746196838
6500.0 85.61754765745675
6700.0 85.88991711046997
6900.0 85.63367492881925
7100.0 85.01843958544683
7300.0 84.69642755182892
7500.0 84.84222317869695
7750.0 84.9361226157256
8000.0 85.3114664058701
8250.0 85.2571053889141
8500.0 85.39696364671403
8750.0 85.31840673974811
9000.0 85.04711316485201
9250.0 85.0762168086766
9500.0 84.05147154536319
9750.0 83.98440537731553
10000.0 83.7091413064714
10300.0 82.41045418510654
10600.0 83.23182091130822
10900.0 83.73235156079932
11200.0 83.0762453730928
11500.0 82.3310696669905
11800.0 82.69115945431592
12200.0 82.03812882394672
12500.0 81.40739717149522
12800.0 81.94019686536855
13200.0 82.41878396804823
13600.0 81.59012986015571
14000.0 81.77251212554548
14500.0 80.2314339559811
15000.0 78.82009406870314
15500.0 78.49776824904852
16000.0 77.62148518535923
16500.0 77.33171225188688
17000.0 76.49781036734008
17500.0 75.57956835581767
18000.0 74.2005751380367
18500.0 73.31677536719708
19000.0 72.11522643444415
19500.0 70.46088393085597
