Freq "On Axis"
22.4 45.999999999999986
23.0 46.3
23.6 46.8
24.0 47.3
25.0 47.8
25.8 48.39999999999999
26.5 49.10000000000001
27.2 49.89999999999999
28.0 50.89999999999999
29.0 51.89999999999999
30.0 52.7
30.7 53.60000000000001
31.5 54.60000000000001
32.5 55.7
33.5 56.8
34.5 57.89999999999999
35.5 58.999999999999986
36.5 60.10000000000001
37.5 61.3
38.7 62.39999999999999
40.0 63.60000000000001
41.2 64.99999999999999
42.5 65.99999999999999
43.7 67.2
45.0 68.3
46.2 69.39999999999999
47.5 70.49999999999999
48.7 71.59999999999998
50.0 72.60000000000001
51.5 73.5
53.0 74.3
54.5 75.10000000000001
56.0 75.9
58.0 76.7
60.0 77.7
61.5 78.5
63.0 79.39999999999999
65.0 80.49999999999999
67.0 81.59999999999998
69.0 82.60000000000001
71.0 83.6
73.0 84.39999999999999
75.0 85.10000000000001
77.5 86.1
80.0 87.1
82.5 87.90000000000002
85.0 88.4
87.5 88.6
90.0 89.09999999999998
92.5 89.8
95.0 90.49999999999999
97.5 91.0
100.0 91.59999999999998
103.0 92.1
106.0 92.4
109.0 92.60000000000001
112.0 92.8
115.0 92.90000000000002
118.0 92.90000000000002
122.0 92.99999999999999
125.0 92.99999999999999
128.0 92.99999999999999
132.0 92.90000000000002
136.0 92.8
140.0 92.60000000000001
145.0 92.5
150.0 92.4
155.0 92.5
160.0 92.4
165.0 92.3
170.0 92.4
175.0 92.5
180.0 92.60000000000001
185.0 92.7
190.0 92.8
195.0 92.8
200.0 92.90000000000002
206.0 92.7
212.0 92.5
218.0 92.2
224.0 92.1
230.0 92.1
236.0 92.2
240.0 92.2
250.0 92.2
258.0 92.1
265.0 92.1
272.0 92.0
280.0 92.0
290.0 92.0
300.0 92.0
307.0 91.89999999999999
315.0 92.0
325.0 92.1
335.0 92.2
345.0 92.1
355.0 91.8
365.0 91.59999999999998
375.0 91.59999999999998
387.0 91.3
400.0 90.9
412.0 90.6
425.0 90.49999999999999
437.0 90.49999999999999
450.0 90.49999999999999
462.0 90.8
475.0 91.2
487.0 91.59999999999998
500.0 91.8
515.0 91.89999999999999
530.0 92.0
545.0 92.1
560.0 92.0
580.0 91.7
600.0 91.2
615.0 90.8
630.0 90.40000000000002
650.0 90.2
670.0 90.0
690.0 90.0
710.0 90.2
730.0 90.3
750.0 90.40000000000002
775.0 90.40000000000002
800.0 90.3
825.0 90.2
850.0 90.2
875.0 90.2
900.0 90.40000000000002
925.0 90.6
950.0 90.7
975.0 90.8
1000.0 90.7
1030.0 90.49999999999999
1060.0 90.2
1090.0 90.10000000000001
1120.0 90.10000000000001
1150.0 90.2
1180.0 90.2
1220.0 90.2
1250.0 90.10000000000001
1280.0 90.10000000000001
1320.0 90.10000000000001
1360.0 90.2
1400.0 90.3
1450.0 90.3
1500.0 90.10000000000001
1550.0 89.9
1600.0 89.9
1650.0 90.0
1700.0 90.0
1750.0 90.0
1800.0 90.10000000000001
1850.0 89.9
1900.0 89.6
1950.0 89.5
2000.0 89.7
2060.0 89.9
2120.0 90.0
2180.0 90.0
2240.0 89.7
2300.0 89.5
2360.0 89.6
2400.0 89.9
2500.0 90.10000000000001
2580.0 90.3
2650.0 90.2
2720.0 89.9
2800.0 89.9
2900.0 90.2
3000.0 90.2
3070.0 89.9
3150.0 89.6
3250.0 89.5
3350.0 89.39999999999999
3450.0 89.5
3550.0 89.8
3650.0 89.39999999999999
3750.0 88.8
3870.0 89.3
4000.0 89.00000000000001
4120.0 88.7
4250.0 88.4
4370.0 88.3
4500.0 88.3
4620.0 87.8
4750.0 87.5
4870.0 87.5
5000.0 87.3
5150.0 87.4
5300.0 87.4
5450.0 87.0
5600.0 86.89999999999999
5800.0 86.7
6000.0 86.59999999999998
6150.0 86.59999999999998
6300.0 86.2
6500.0 85.8
6700.0 86.0
6900.0 85.8
7100.0 85.2
7300.0 85.0
7500.0 85.0
7750.0 85.10000000000001
8000.0 85.3
8250.0 85.3
8500.0 85.6
8750.0 85.40000000000002
9000.0 85.2
9250.0 85.49999999999999
9500.0 84.7
9750.0 84.7
10000.0 84.39999999999999
10300.0 83.9
10600.0 85.40000000000002
10900.0 85.49999999999999
11200.0 84.5
11500.0 82.60000000000001
11800.0 79.7
12200.0 77.99999999999999
12500.0 81.59999999999998
12800.0 83.3
13200.0 84.2
13600.0 83.6
14000.0 83.7
14500.0 82.0
15000.0 80.6
15500.0 80.0
16000.0 78.7
16500.0 78.2
17000.0 77.3
17500.0 76.7
18000.0 75.8
18500.0 74.8
19000.0 73.6
19500.0 72.1
