Freq "Sound Power"
22.4 48.0307978471062
23.0 48.80746958028037
23.6 49.68890230137758
24.0 50.615839837892466
25.0 51.39743412895346
25.8 51.923760278941316
26.5 52.36636557836458
27.2 52.724032626576744
28.0 53.26573455027163
29.0 53.86226079644116
30.0 54.2978146709154
30.7 54.830264651120316
31.5 55.477248686456434
32.5 56.1995536988952
33.5 56.94747838038698
34.5 57.70085278713454
35.5 58.544163053812426
36.5 59.44900176344926
37.5 60.370315451057465
38.7 61.435789057192565
40.0 62.59468493419935
41.2 63.9054196006587
42.5 65.06888264167627
43.7 66.33786307991333
45.0 67.49913916193687
46.2 68.62763362398765
47.5 69.8854176263407
48.7 71.0638038919386
50.0 72.12134859744356
51.5 73.06593707684843
53.0 73.93086929506163
54.5 74.75664259764501
56.0 75.58008540907456
58.0 76.52731002695393
60.0 77.49619662335647
61.5 78.37669762724454
63.0 79.2947376763694
65.0 80.42525626288659
67.0 81.51552179978798
69.0 82.60197754235068
71.0 83.64105263306918
73.0 84.46242464793166
75.0 85.16894510030023
77.5 86.15429446760466
80.0 87.10735286221443
82.5 87.83429612888399
85.0 88.25036743557045
87.5 88.41179342719725
90.0 88.85697337087139
92.5 89.44680383844887
95.0 90.03033166331855
97.5 90.49217485535003
100.0 91.07871845633683
103.0 91.51779774546733
106.0 91.787968893862
109.0 91.91850914610326
112.0 92.12328741949118
115.0 92.20861908616806
118.0 92.24146364381629
122.0 92.27181507005044
125.0 92.31431764958752
128.0 92.20201397773532
132.0 92.07140297526142
136.0 91.84977347045483
140.0 91.58530691260802
145.0 91.29119226320408
150.0 91.08934373126107
155.0 90.94875265013272
160.0 90.65538401606547
165.0 90.39107613160861
170.0 90.28147598921718
175.0 90.10714843600199
180.0 90.04856837689441
185.0 89.99354146910656
190.0 89.9348603305186
195.0 89.80960890011606
200.0 89.70111850010413
206.0 89.45851281113323
212.0 89.0934033889883
218.0 88.70359876098907
224.0 88.43770755374806
230.0 88.28819465755508
236.0 88.17150604212034
240.0 88.00320554166446
250.0 87.76897957231469
258.0 87.4968128664333
265.0 87.23108456444808
272.0 87.01841680049961
280.0 86.81049484526356
290.0 86.60942562700178
300.0 86.35469311779109
307.0 86.14993810130152
315.0 86.02792463623601
325.0 85.95685390027607
335.0 85.85543192258025
345.0 85.5474118531001
355.0 85.04308049300836
365.0 84.66914643916023
375.0 84.42707570493027
387.0 83.96895123792824
400.0 83.32416525442467
412.0 82.78996520803605
425.0 82.50898594348608
437.0 82.37095978042599
450.0 82.34042304863043
462.0 82.69811808305643
475.0 83.34021992747326
487.0 83.89281196155609
500.0 84.2136919590736
515.0 84.31084718696219
530.0 84.42096064178516
545.0 84.54035271240598
560.0 84.50638480893753
580.0 84.29445248795695
600.0 84.16177071384494
615.0 84.10927188619051
630.0 84.12603515963333
650.0 84.07788631265447
670.0 83.95696574519233
690.0 83.74665639331897
710.0 83.48364036881911
730.0 83.19566746281143
750.0 82.96824795306806
775.0 82.74369656413235
800.0 82.50402857987727
825.0 82.29517246245922
850.0 82.18981182309959
875.0 82.08168264598812
900.0 82.0672273112006
925.0 82.12999020046448
950.0 82.30148011612282
975.0 82.5960958910077
1000.0 82.98181229831825
1030.0 83.30424820079742
1060.0 83.50416937815747
1090.0 83.4673742029034
1120.0 83.16406373278623
1150.0 82.63495846218494
1180.0 81.96705620721933
1220.0 81.37925471495232
1250.0 81.07644111058984
1280.0 81.10376925471186
1320.0 81.30768945307524
1360.0 81.51161384438042
1400.0 81.58812719245928
1450.0 81.58732688173107
1500.0 81.42980221667237
1550.0 81.11474120111887
1600.0 80.61056648366456
1650.0 79.95553990427177
1700.0 79.38720762181205
1750.0 79.17429831664133
1800.0 79.41432014241055
1850.0 79.94391321611803
1900.0 80.45294727552317
1950.0 80.66560640215896
2000.0 80.58512394361487
2060.0 80.52596563823386
2120.0 80.4986196585305
2180.0 80.34101707183181
2240.0 80.19472481656877
2300.0 80.05633054713522
2360.0 79.75981487260852
2400.0 79.44290115661103
2500.0 79.12217518796594
2580.0 78.84915492420755
2650.0 78.66441647465787
2720.0 78.61620143024824
2800.0 78.60765179002289
2900.0 78.58101474991773
3000.0 78.7227477678288
3070.0 78.8653616097037
3150.0 78.8117744445974
3250.0 78.67554527758898
3350.0 78.4798167732454
3450.0 78.43944005083013
3550.0 78.32951712897916
3650.0 77.75607619361944
3750.0 77.16655716352201
3870.0 77.48865074107646
4000.0 77.42584338252091
4120.0 77.09460067359643
4250.0 76.9411081147716
4370.0 76.77755693714815
4500.0 76.45899591307223
4620.0 76.04433399442776
4750.0 75.96019074238117
4870.0 75.79011576438963
5000.0 75.68449246430214
5150.0 75.71827171462392
5300.0 75.53857779746588
5450.0 75.41850328487118
5600.0 75.78746963980946
5800.0 75.83038246466147
6000.0 75.69004626108232
6150.0 75.54914516232695
6300.0 75.03368160978967
6500.0 74.76659593074481
6700.0 75.05714465961717
6900.0 74.85835964145113
7100.0 74.3458848851714
7300.0 74.16266616687106
7500.0 74.32201313722275
7750.0 74.33070461647931
8000.0 74.7252404930802
8250.0 74.58661063686353
8500.0 74.66647413396842
8750.0 74.75501413566853
9000.0 74.5270099349796
9250.0 74.18375617258762
9500.0 73.14751031712261
9750.0 72.78465814717224
10000.0 72.7484362908161
10300.0 70.96071060947453
10600.0 70.65468169425476
10900.0 71.60359657946694
11200.0 71.50276826704005
11500.0 71.86303659412509
11800.0 73.86097770329772
12200.0 75.39879514199214
12500.0 74.6098971429713
12800.0 73.36309831038135
13200.0 72.47223826211122
13600.0 71.51385182591527
14000.0 71.37471706172754
14500.0 69.3565481821429
15000.0 66.74584018036656
15500.0 65.9993731386145
16000.0 65.63232271552447
16500.0 65.58428769194681
17000.0 64.27958980500715
17500.0 63.01649707297436
18000.0 61.869255506619865
18500.0 61.37923079137961
19000.0 60.26120661934864
19500.0 58.68951490420203
