Freq "Front Wall Bounce"
20.5078 53.301624661957604
21.9727 55.260792201720434
23.4375 56.03125061318231
24.9023 58.727567605652
26.3672 60.606380339010784
27.832 62.7194192427102
29.2969 64.52850242146933
30.7617 66.42674624331353
32.2266 68.21631933000758
33.6914 69.9000934402606
35.1562 71.43735006988335
36.6211 72.89415447001561
38.0859 74.28529688418546
39.5508 75.58923365868928
41.0156 76.61625528187243
42.4805 77.49642255749735
43.9453 78.18574165945462
45.4102 78.82468173463765
46.875 79.18944246804186
48.3398 79.51651617069501
51.2695 80.03016905324615
52.7344 80.24300009783205
54.1992 80.44865194877133
55.6641 80.64165058485254
58.5938 81.01698863302158
60.0586 81.15000227776504
62.9883 81.37780222216129
64.4531 81.52632797492176
67.3828 81.85580339277521
68.8477 82.0232461760979
71.7773 82.31513528769521
74.707 82.58388119563851
77.6367 82.89190357359172
79.1016 83.04223892063372
82.0312 83.27736776512033
84.9609 83.64290279614154
87.8906 83.8085523377032
90.8203 84.02631198467033
95.2148 84.58565857046672
98.1445 84.75396261740518
101.074 84.73702277503874
105.469 85.24141027864401
108.398 85.53219968824385
112.793 85.91022813712628
117.188 86.09304219739302
120.117 86.26262685552666
124.512 86.50520552706459
128.906 86.76702872046091
133.301 86.85419165569404
139.16 87.00666588211855
143.555 87.12611788633849
147.949 87.12459302198464
153.809 87.09859280579067
159.668 87.223760494695
165.527 87.45814816317292
171.387 87.3691754679023
177.246 87.28566065241385
183.105 87.04111834319262
188.965 87.17688630284297
196.289 87.16603293680123
203.613 87.08323829017948
210.938 87.05013763101701
218.262 86.65682331661249
225.586 86.64628097355593
232.91 86.48853843056378
241.699 86.11346632640951
250.488 85.95699671444815
259.277 84.94208878091528
268.066 85.11974409390179
276.855 86.69680144347497
287.109 86.68874520664293
297.363 87.14469036055551
307.617 86.63489840765162
319.336 86.66117093929363
329.59 86.6130271006271
341.309 86.28288792437985
353.027 86.02654158541765
366.211 86.48384866583267
379.395 86.18953386795502
392.578 86.02511513042164
405.762 85.69660488008817
420.41 86.16071455711857
435.059 86.69627174176038
451.172 87.75886944903293
465.82 87.31673267841032
483.398 86.6405823710637
499.512 87.29338426514632
517.09 87.16176704990471
536.133 87.20003550295421
555.176 86.99670895043967
574.219 87.40895838475909
594.727 86.80159037765384
615.234 85.79689469649618
637.207 86.3361370649274
659.18 86.1671084935178
682.617 85.37795859150488
707.52 85.3770036880555
732.422 85.31970033263576
757.324 85.47739817478406
785.156 85.52728277719036
811.523 85.49912643609665
840.82 85.29839233820537
870.117 85.11813437096824
900.879 86.38344439360922
933.105 86.10366682717824
965.332 85.27428401974113
1000.49 84.65675747417542
1035.64 84.64010863834075
1072.27 83.76503490388578
1108.89 83.29691891895318
1148.44 84.23995278632886
1189.45 84.92949682498715
1230.47 85.48642578252512
1274.41 86.18277418034563
1319.82 85.45110179674988
1366.7 85.40212676630063
1413.57 85.31288929362269
1463.38 86.37701931728999
1516.11 86.47287711410505
1568.85 85.914330861423
1624.51 84.55172598223758
1681.64 83.73118027814496
1741.7 84.37830183275096
1803.22 85.22990082210787
1866.21 85.4632038658125
1932.13 84.45998011586381
1999.51 84.59612780550147
2069.82 84.91009243550043
2143.07 84.24643871624616
2219.24 83.97080183472636
2296.88 85.0535159746706
2378.91 84.76631190015895
2462.4 82.07006170849621
2548.83 81.57601538172344
2639.65 81.39432060804377
2731.93 80.0498310694739
2828.61 80.08160224452344
2928.22 82.30765278924157
3030.76 83.90751671688673
3137.7 83.0867101558117
3249.02 82.53178917414962
3363.28 81.78116413126457
3481.93 81.91314915650514
3604.98 81.77505166583454
3732.42 83.20077108115142
3864.26 84.29184796462896
4000.49 86.74486803408637
4141.11 87.68611189337976
4287.6 88.77378103227174
4438.48 89.37923500901937
4595.21 89.72133278665963
4756.35 89.79893606154391
4924.8 89.14164491214854
5097.66 88.86236755819827
5277.83 88.29065087568428
5463.87 89.14589103844226
5657.23 88.96821073495296
5856.45 88.8513940442013
6062.99 88.6674956755079
6276.86 88.63939022978361
6498.05 87.85860678775286
6726.56 87.69456450451479
6963.87 87.77443303470832
7209.96 87.41587215882913
7464.84 87.60852452884369
7727.05 87.62809576171581
7999.51 87.57872724346201
8282.23 87.65928447441881
8573.73 87.83576067424384
8876.95 88.01850711002024
9188.96 88.04970440867994
9514.16 88.01532793254448
9849.61 88.11374785683101
10196.8 88.20021544707507
10555.7 87.92166297142975
10927.7 87.38624621707484
11313.0 86.71385928099104
11712.9 86.17681903634112
12126.0 85.90610329211015
12553.7 85.72817555826371
12996.1 86.21129230805529
13454.6 86.84455470467957
13929.2 86.18835696223779
14419.9 85.37655620499673
14928.2 84.34827000216588
15455.6 83.9556850075474
16000.5 84.00542274415746
16564.5 83.76979656399428
17148.9 83.15472343165317
17752.4 82.24044961271021
18379.4 80.89248345018619
19026.9 79.63029956411644
19697.8 78.62295827734869
19999.5 78.09801021680728
