Freq,Floor Bounce,Ceiling Bounce,Front Wall Bounce,Side Wall Bounce,Rear Wall Bounce,Total Early Reflection
20.0,32.214802836952586,34.80404178673599,34.29905792348082,35.1404830981311,34.38349890419103,34.277779184253106
20.2909,32.34268194412378,34.89686318311895,34.43829306725938,35.2354771023043,34.484598154096474,34.38655567034873
20.586,32.438839433241625,34.958631507191015,34.54587534909446,35.297144154493665,34.5577806024197,34.46424290895361
20.8855,32.52846253639082,35.01653447535098,34.64659212971917,35.351364891796564,34.628913400645914,34.53669981772104
21.1893,32.68161510514933,35.14038706809602,34.81084172256256,35.46801752318588,34.76881289198529,34.67410786535321
21.4975,32.94532380249994,35.37800639411928,35.08427118597881,35.695424538912576,35.0251167843855,34.92381815143078
21.8102,33.327993987143046,35.73821056328323,35.47494082327118,36.042126294364536,35.40515834692367,35.29406169588391
22.1274,33.81485470686748,36.2053306517311,35.96723234576267,36.49355281471598,35.894347883923544,35.769771070504746
22.4492,34.37270970920112,36.747376955743604,36.52809748454628,37.01750368165223,36.45933664183856,36.31824741721984
22.7758,34.96293338359358,37.325361667680326,37.117563465940506,37.575217225788165,37.06094086993291,36.900351231235916
23.1071,35.55656231986133,37.91101595075192,37.70742604377155,38.13894851764174,37.66994689355063,37.487662837178746
23.4432,36.13804663490451,38.48863065303682,38.280778905437,38.692882181694,38.269920052763,38.0640654247576
23.7841,36.701281664179376,39.05238618984511,38.83238035725772,39.23328250898176,38.85448206962231,38.62419048775722
24.1301,37.23625774393717,39.592496294101906,39.352345551934675,39.749692211916354,39.41317307593938,39.157907826321875
24.4811,37.73283043721894,40.09737852370698,39.83026608604338,40.232517159111254,39.93289065546308,39.65420256618647
24.8372,38.17293862353189,40.54837255210437,40.248334364804876,40.66235831097596,40.395399606438716,40.09459240997684
25.1984,38.55339183410426,40.943490907936635,40.60543529996316,41.03847393331982,40.79762683429682,40.47717157023688
25.5649,38.892377431517886,41.29978273648767,40.92012812095574,41.37831144036609,41.15658380347641,40.81953086734147
25.9368,39.2359076545704,41.662180892498654,41.238960470543205,41.72671087050607,41.51731047628779,41.16707463770457
26.3141,39.643236259516115,42.09106626746136,41.62350808818145,42.14417371091169,41.93953899462967,41.580167387860755
26.6968,40.16525591726078,42.63609627701102,42.125393955224425,42.680180394714526,42.47320395501323,42.10903808426251
27.0851,40.80858405521174,43.30292810555103,42.75188251004734,43.340591733387654,43.12553431478848,42.76017127051519
27.4791,41.533503798450695,44.05114685949418,43.464707592959016,44.084430622366895,43.855785130237805,43.493461097849305
27.8788,42.26501738792693,44.805519882426765,44.18921645328187,44.83504580429086,44.59037380905569,44.23384269214786
28.2843,42.951461718775775,45.51395754639704,44.874099240887986,45.54057482842428,45.27728718331413,44.92949357187594
28.6957,43.57387180892913,46.15712312038748,45.500280487064444,46.18017653576784,45.89886827540134,45.56118522297972
29.1131,44.145331011339024,46.747037968614066,46.0799472746544,46.76632821283671,46.468751875067014,46.141552331097486
29.5365,44.69722963128639,47.31526768471211,46.643662786324356,47.329132427159564,47.018317598562945,46.70155737094218
29.9661,45.25826117781192,47.8888497542534,47.21779810479801,47.89582436410505,47.576581787248884,47.26878350483132
30.402,45.83977201680811,48.47934175224897,47.81351955338796,48.477814459221875,48.155835142004676,47.854805810491726
30.8442,46.42909224429711,49.073461512735136,48.414740185477584,49.061168182022,48.74314346439867,48.44578790556211
31.2929,47.00652151875853,49.65082392137255,49.000518859913186,49.62678759886607,49.317980894264295,49.02158823263285
31.748,47.55934893703473,50.19910859919443,49.55695235789081,50.16212473349111,49.86837768298375,49.569547951237595
32.2098,48.094541940227586,50.72527492268841,50.09047498999713,50.676282206167286,50.40113403157173,50.0969838030167
32.6783,48.6313991649826,51.249317221643224,50.61763966648394,51.18804730171456,50.93456443549006,50.62248238892667
33.1536,49.18290614364061,51.78531279618022,51.15439379743806,51.714402351099295,51.48352496623225,51.16119011066212
33.6359,49.75338050206314,52.337188013317544,51.702932982018396,52.25928490592686,52.04973087017949,51.71626692571928
34.1251,50.330200424555414,52.895738725502284,52.25477692071141,52.81399625968557,52.62414515248942,52.278372501081876
34.6215,50.906314140226414,53.45250083164022,52.80294322741814,53.37309751377322,53.1983492415218,52.84021478341147
35.125,51.48510520031671,54.01494895440358,53.354488319476516,53.94128239809932,53.77799131950556,53.40763848737406
35.6359,52.07322879231158,54.59041191170084,53.91985330928409,54.52802407672576,54.37121728826067,53.989164049204305
36.1543,52.66902565598309,55.178787732900304,54.49886396501563,55.13120391214525,54.977510372880985,54.58392808077535
36.6802,53.25717039305026,55.76386891569014,55.07724201170237,55.73484462790073,55.581443049177594,55.176440015651536
37.2137,53.81598797852432,56.32592008291371,55.63711530230567,56.31668396690779,56.16233004936096,55.74629826350302
37.755,54.347837238381544,56.86657540666651,56.17904755633107,56.8770163823241,56.72239223524211,56.29484648924394
38.3041,54.8630722298461,57.393838972347396,56.71408470966294,57.422966417403885,57.2703533928408,56.83094310795168
38.8613,55.375674918343876,57.91983925251843,57.250930195067625,57.96468620850244,57.81680883379259,57.36549534843992
39.4265,55.888313415229305,58.44440197730107,57.78989875549294,58.49887793749093,58.360773289678875,57.897883707323714
40.0,56.395891760430715,58.95937646431106,58.32179771050684,59.01897668890439,58.893675243825996,58.42040401826385
40.5818,56.89597360193824,59.457369015893974,58.83729682874581,59.516171494570656,59.406695789342805,58.92525733883767
41.1721,57.386440117804824,59.935435468142316,59.33085019508607,59.98643258392855,59.894771587010425,59.40837017960526
41.771,57.874251148215194,60.39790834085012,59.80592712198077,60.43660224169814,60.361556606536794,59.8746699619104
42.3785,58.363123840553484,60.8481805842212,60.262995856756135,60.868417182909425,60.80849154031662,60.326234479549996
42.9949,58.84827484484525,61.28189830381041,60.69970370861523,61.28173966455972,61.232810931142055,60.76041772759139
43.6203,59.329270967922966,61.70404139862296,61.119287030049676,61.683124724039146,61.63847058683045,61.18134758300944
44.2548,59.82801871494739,62.13895405741897,61.54648646513476,62.096728582653114,62.052499005790736,61.61373486384922
44.8985,60.353928599304425,62.60128664222347,61.999019707764134,62.5413052509909,62.49276282815303,62.07379856423468
45.5515,60.86589653196181,63.056300767865594,62.44300259744584,62.98272130101782,62.92645172022483,62.52665329360775
46.2141,61.3213476926919,63.46491082276792,62.841059331212804,63.38237171929431,63.3183170889823,62.933967961572066
46.8863,61.73296465570992,63.842445562200794,63.21120958911989,63.75632713479031,63.68662748148229,63.31197206619902
47.5683,62.14816741972439,64.23777834986406,63.60400276062822,64.15352776429033,64.08309165960061,63.71023731938632
48.2602,62.52291046439986,64.60520702551774,63.97352253788165,64.52590739685003,64.46053910504511,64.08237657931957
48.9621,62.78066360316576,64.8644904777365,64.24100828366443,64.79409459412615,64.7395864939527,64.34933739319388
49.6743,62.97467532265681,65.06594173528003,64.4541812951284,65.00421736029266,64.96562011022684,64.55935115306013
50.3968,63.24114334168843,65.33740818917474,64.74053324297547,65.28483923731044,65.26412375244446,64.84100979091758
51.1299,63.573843365492394,65.67022373339849,65.08774831336741,65.62346087250754,65.6202693137953,65.18306257046171
51.8736,63.86205282954323,65.94721336984925,65.37742590605647,65.90423386298427,65.91548682998238,65.46895831120513
52.6281,64.0976778197137,66.160751521041,65.599683137173,66.11795539231413,66.138199213254,65.68933545747514
53.3936,64.35534072397094,66.38680771125779,65.82869486489811,66.34026851695577,66.36512557208194,65.91973349004103
54.1702,64.63141622526462,66.62468915712851,66.06486881010024,66.57201225202003,66.596781312281,66.15990173179217
54.9581,64.88428509547556,66.84037591994152,66.27335023593412,66.77969572150647,66.80254758366645,66.37548246774689
55.7575,65.11858540633267,67.04370911330828,66.46761212717155,66.97593345058581,66.99804457288597,66.57817070328583
56.5685,65.32853503202621,67.23388037925372,66.64850975153254,67.16029504879155,67.18532375609537,66.76745928408704
57.3914,65.4973492436016,67.39586074711126,66.80341386576696,67.3191549583659,67.35311301184456,66.92964286923777
58.2261,65.6322951596493,67.53589573069716,66.94142310428553,67.46018055853365,67.50754782620213,67.07194929791162
59.073,65.74476749445562,67.66213373353987,67.07062783007403,67.59026653230022,67.65473306182935,67.20227270514724
59.9323,65.84852324119679,67.78062894524457,67.19704034462943,67.71572144898535,67.79716586758903,67.32704817425581
60.804,65.96327608344502,67.90625585866772,67.33233108089041,67.84872970129112,67.94344986210245,67.45923319620722
61.6884,66.09642441639488,68.03844623689959,67.47408498331902,67.98868315826267,68.08858938339804,67.59801345064257
62.5857,66.2630290688641,68.18956135751154,67.63171516147511,68.14562858277334,68.24258443148197,67.7545105543878
63.496,66.4474788261753,68.34463504429301,67.78827942381068,68.3043507910634,68.38887390041026,67.91288945005499
64.4196,66.60570407003631,68.46250133008664,67.904680167856,68.42520316284822,68.49074247508594,68.03334731783289
65.3566,66.74153505817658,68.55360893183538,67.99194340643129,68.51888833981174,68.56328310853469,68.12662762173089
66.3073,66.86219272083143,68.63241938845182,68.06801846355229,68.60133595262094,68.62734644096275,68.20856079201914
67.2717,66.94804310191527,68.68344973472927,68.12339590907102,68.65851069214871,68.67395265661592,68.26592911172239
68.2502,67.0048852252791,68.71582847878533,68.16753836614834,68.6993941377636,68.71451836986701,68.30786354654424
69.2429,67.05243736883274,68.74866496241432,68.21955308134012,68.7417115708742,68.76659903337104,68.3529021152222
70.2501,67.11635178028634,68.8025875117675,68.29715593798231,68.8047127584235,68.84719214299939,68.42076375249769
71.2719,67.20435860297123,68.87742107578038,68.39742809309368,68.887483922766,68.95160092366152,68.51076774651871
72.3086,67.31521103122455,68.96859261237887,68.50974632456649,68.98415080992268,69.06678510790009,68.6154985290693
73.3603,67.44473677793803,69.06673574368807,68.6243310743163,69.08765627355281,69.18169559760132,68.72640366550608
74.4274,67.57597550441268,69.1564074937128,68.724747008859,69.18271823571887,69.27884692510796,68.82721618554483
75.5099,67.69641313949889,69.2332938947249,68.80984438526892,69.26737069277273,69.35804531487942,68.91445881573827
76.6083,67.7743515686551,69.27662106004568,68.86408952658397,69.32248988571824,69.40400682045701,68.96830296084411
77.7226,67.81913320287119,69.30625221355497,68.90856791095797,69.36521101684328,69.44206302692288,69.00784196567953
78.8531,67.86639465294141,69.36206126853726,68.98376854253418,69.43188716230847,69.51495504382746,69.07228873923755
80.0,67.91276471006215,69.43595133165259,69.07871818773965,69.51182883683869,69.61325712839287,69.15289144964228
81.1636,67.99749172210647,69.54542168699174,69.20611564533387,69.62074306060782,69.74818065157902,69.26773732956501
82.3442,68.12657775732072,69.66781179395002,69.34135402834005,69.73752199509217,69.88929219798233,69.39663494529744
83.5419,68.32818195290143,69.80202281811964,69.48293344843034,69.86865959109049,70.02956516957514,69.54311866342285
84.757,68.6024442630975,69.94088622534089,69.62746399928318,70.01398377961787,70.16128633133944,69.70363792798615
85.9899,68.90542001739381,70.06257230812405,69.75701067894231,70.15768557570102,70.2681279896201,69.85693590856268
87.2406,69.18350689563498,70.16267344403263,69.86637758725057,70.29298083682244,70.35487562739314,69.99253454731115
88.5096,69.39315546896806,70.25025066923247,69.9631028321901,70.42116838825586,70.4425447203747,70.11109693225156
89.797,69.50073533631375,70.33309012971327,70.04884615727728,70.53731377362153,70.54176469875489,70.20940069646322
91.1031,69.48025181525723,70.39337458536355,70.10529365611303,70.61164659198245,70.63037186846701,70.26451812602127
92.4282,69.35278330846796,70.42080444894106,70.12629353755683,70.63205801538761,70.68857590112576,70.27045086091927
93.7726,69.18792487400366,70.42096380754083,70.12683637605677,70.61039950329655,70.71214389301282,70.24483011565475
95.1366,69.08238114229053,70.41379281109985,70.13737589811869,70.58062865045052,70.7160590151443,70.22340685485044
96.5204,69.10751737657348,70.43001259393371,70.18653886659915,70.58437755868157,70.73147994853673,70.24459736142398
97.9243,69.2636517838343,70.48660680552526,70.28370603307299,70.6461337233424,70.78301331434201,70.3246570165233
99.3486,69.46412347232176,70.56105567839045,70.38885686933155,70.73719756250239,70.85165324506762,70.42744311680914
100.794,69.67268172899497,70.67826423569639,70.51877126414801,70.87534540318711,70.96818488090678,70.56626963790305
102.26,69.80482505506448,70.7783921675741,70.61751448827651,70.99219827123883,71.07257396392411,70.67587885855102
103.747,69.89241000177239,70.87458767778531,70.71122905493642,71.09716094089089,71.1774718472965,70.77397344450411
105.256,69.97013811881604,70.9601827611935,70.81083189671635,71.18775764842108,71.27697765836433,70.86518368282644
106.787,70.07874856042095,71.04673075547579,70.92826016131495,71.27928064610569,71.38101796914263,70.96635435594256
108.34,70.21481533841823,71.13379810071207,71.04995507448616,71.37228289830335,71.48416892422024,71.0731251501313
109.916,70.34813005212182,71.21519668617798,71.1545654503258,71.46123947947774,71.57650453799356,71.17172039204289
111.515,70.463258401349,71.29744771879035,71.24273747170727,71.55123022588691,71.66119174046794,71.26279414496582
113.137,70.5647273996678,71.38163744451963,71.32529374306239,71.64403176693811,71.74298885594243,71.35085562109823
114.783,70.64807152419516,71.44681535539816,71.3975775243509,71.71983857636114,71.80887539550581,71.42291224264964
116.452,70.74083015046087,71.50941588492755,71.48199411922026,71.7930542272722,71.87984219241518,71.499010674184
118.146,70.85309713380398,71.58629601909225,71.58608781317278,71.87967498062969,71.97075726381482,71.59242182823259
119.865,70.98639642331175,71.68832122296018,71.70772459872644,71.99231123746263,72.08753461981249,71.70913693791992
121.608,71.10542737341738,71.78525051497769,71.81091083061017,72.10067792302873,72.1940020765888,71.81558827394281
123.377,71.20026211339616,71.86166897653112,71.88645192066907,72.18910109760914,72.27274473024791,71.898036233599
125.171,71.28682107887288,71.92513461571903,71.95725579875612,72.26406803512776,72.3393431031706,71.97004826516095
126.992,71.39282471532158,72.00352991287475,72.0565327118435,72.3511658681433,72.4263584861137,72.06107533706196
128.839,71.5272592324681,72.11010700595745,72.1896985928954,72.46564237784982,72.54724104629234,72.18255540840444
130.713,71.65876735066497,72.21218102095541,72.31427650731256,72.57997526561552,72.66458628386911,72.30014932886955
132.615,71.73608943386103,72.25852493106079,72.37494161976849,72.64183305450085,72.7182876855134,72.35963262303767
134.543,71.77551762637928,72.26726128345534,72.39513835558637,72.66491364304453,72.7280683722171,72.3792880589937
136.5,71.83796068041747,72.30578470148804,72.44585447908226,72.7110909895875,72.77056951940263,72.42692605209922
138.486,71.91260571262104,72.36481989079671,72.51644582402288,72.77179354078137,72.8427480266392,72.49421426721707
140.5,71.98620512130955,72.41929838757393,72.58178482271465,72.82786649729668,72.9161114432852,72.55866103328403
142.544,72.04653309814022,72.45068483726463,72.62329256564836,72.86621673109099,72.95675928875917,72.60065870750489
144.617,72.06294088742787,72.43849552642591,72.62187082426959,72.86566157451911,72.93578410465061,72.59625225362343
146.721,72.09401763423077,72.44783226252527,72.64423270633985,72.89091943757872,72.93222835696277,72.61267296563959
148.855,72.20901584922711,72.5469437230279,72.75640823412348,73.00447656530123,73.02794129614246,72.71959218429224
151.02,72.32365837195567,72.64600748399646,72.86535140114783,73.10836710442577,73.13499614033891,72.82616832316047
153.217,72.35266950452761,72.65283055262394,72.88078364852313,73.10989502496642,73.14907977935621,72.8391200834762
155.445,72.36702206800301,72.64152600761086,72.87793728024828,73.09271896221428,73.1408391988938,72.8335319878528
157.706,72.32303670270323,72.57273195939972,72.81943977156807,73.02936109056853,73.07664481704911,72.77342405382664
160.0,72.21336024772565,72.44318007144885,72.69877272555712,72.91228019407436,72.95226130380075,72.65301048498681
162.327,72.2530325230762,72.46598045752543,72.72610444192351,72.93978678407117,72.97610428907622,72.68100264806458
164.688,72.32604175684111,72.52089970600026,72.78285994956522,72.98759200900308,73.0293369347457,72.73770810630565
167.084,72.46204562774572,72.633968748784,72.90050024331552,73.09628702336622,73.14388344949731,72.85527221090621
169.514,72.56138398629164,72.7120563878873,72.99145816385182,73.18966164795869,73.22492346467132,72.94371292554594
171.98,72.44104902983732,72.57293822712693,72.86825318794827,73.07057997684068,73.08577139856685,72.8154956605526
174.481,72.31369874343973,72.42871810781479,72.73304534537994,72.92532779328268,72.94106025502779,72.6758773752588
177.019,72.26073717779433,72.35725455832022,72.67281473111562,72.84381571692866,72.87647084858672,72.60943829382371
179.594,72.28848420815702,72.3685610572738,72.70300885027962,72.86231848789416,72.89487567266171,72.63064631833198
182.206,72.37279741827845,72.43787506991613,72.77562891775615,72.95302118286783,72.95429134194727,72.70582809826259
184.856,72.47989411538477,72.52983707371709,72.83972057887867,73.04430655974654,73.02515297062735,72.79034491984686
187.545,72.58147609624264,72.6117709086308,72.89908819137818,73.10705055971286,73.10085157704147,72.86601254866581
190.273,72.68427582684537,72.69408224358246,72.98665531997428,73.17930192947694,73.19082159948077,72.95272229049448
193.041,72.7613973721099,72.76687014756699,73.06865875146575,73.25042123805477,73.25900479826086,73.02686085254315
195.849,72.79061768287173,72.81126806848636,73.1055593811965,73.28177448194134,73.28255524497611,73.05974981410992
198.697,72.79150045409716,72.81199427844989,73.10708952354335,73.26510250802131,73.27399955922726,73.05505774154813
201.587,72.75456249991241,72.74742855837512,73.05684695814486,73.19309476097995,73.21574927011007,72.99837412197012
204.52,72.68802002790791,72.66311461542323,72.96994053913035,73.10433894475644,73.12680596642875,72.91500033756752
207.494,72.65271140123524,72.63088363191281,72.92119664429963,73.06472372063193,73.0783810936151,72.87390239077789
210.512,72.63565766399618,72.60585472744727,72.89251319120649,73.03007846694423,73.0405620356489,72.8449655080709
213.574,72.62729503289255,72.58312306218394,72.869095397974,72.99067860700366,73.00542957008952,72.8187740138833
216.681,72.45228154505831,72.40277305050648,72.67592202229075,72.79287951006106,72.81141761690404,72.63037637147063
219.833,72.42987918964803,72.3757697370023,72.63505288438404,72.75447528467811,72.77601187096225,72.59734028543878
223.03,72.35381533841824,72.30177177431214,72.54676324636996,72.66586843669965,72.6874332848921,72.5139984576944
226.274,72.33486266423019,72.29143592754194,72.51919002292122,72.63325623878261,72.64927652237812,72.48813448494296
229.565,72.41261847634061,72.36505806312381,72.57904433607526,72.68721418890135,72.70424855065522,72.55185484999646
232.905,72.44119073140807,72.3833666854968,72.5788761703359,72.68432892945923,72.71181396074174,72.56185022157989
