Freq "Side Wall Bounce"
20.0 35.140483098131085
20.2909 35.23547710230429
20.586 35.29714415449365
20.8855 35.35136489179658
21.1893 35.468017523185864
21.4975 35.69542453891259
21.8102 36.04212629436452
22.1274 36.49355281471597
22.4492 37.017503681652244
22.7758 37.57521722578818
23.1071 38.138948517641694
23.4432 38.69288218169399
23.7841 39.23328250898177
24.1301 39.74969221191637
24.4811 40.23251715911127
24.8372 40.662358310975975
25.1984 41.03847393331981
25.5649 41.378311440366076
25.9368 41.726710870506054
26.3141 42.14417371091167
26.6968 42.68018039471454
27.0851 43.34059173338767
27.4791 44.08443062236691
27.8788 44.83504580429084
28.2843 45.54057482842427
28.6957 46.18017653576783
29.1131 46.766328212836726
29.5365 47.32913242715958
29.9661 47.89582436410507
30.402 48.47781445922189
30.8442 49.06116818202199
31.2929 49.62678759886606
31.748 50.16212473349111
32.2098 50.676282206167286
32.6783 51.18804730171456
33.1536 51.714402351099295
33.6359 52.259284905926876
34.1251 52.81399625968557
34.6215 53.37309751377322
35.125 53.94128239809932
35.6359 54.52802407672576
36.1543 55.13120391214525
36.6802 55.73484462790073
37.2137 56.31668396690779
37.755 56.877016382324115
38.3041 57.422966417403856
38.8613 57.96468620850244
39.4265 58.49887793749093
40.0 59.01897668890439
40.5818 59.516171494570656
41.1721 59.98643258392852
41.771 60.43660224169814
42.3785 60.86841718290944
42.9949 61.28173966455972
43.6203 61.683124724039146
44.2548 62.096728582653114
44.8985 62.5413052509909
45.5515 62.98272130101782
46.2141 63.3823717192943
46.8863 63.75632713479031
47.5683 64.15352776429033
48.2602 64.52590739685003
48.9621 64.79409459412614
49.6743 65.00421736029267
50.3968 65.28483923731045
51.1299 65.62346087250754
51.8736 65.90423386298427
52.6281 66.11795539231413
53.3936 66.34026851695577
54.1702 66.57201225202003
54.9581 66.77969572150647
55.7575 66.97593345058581
56.5685 67.16029504879155
57.3914 67.3191549583659
58.2261 67.46018055853365
59.073 67.59026653230023
59.9323 67.71572144898533
60.804 67.84872970129112
61.6884 67.98868315826269
62.5857 68.14562858277333
63.496 68.3043507910634
64.4196 68.42520316284822
65.3566 68.51888833981174
66.3073 68.60133595262094
67.2717 68.65851069214871
68.2502 68.6993941377636
69.2429 68.7417115708742
70.2501 68.8047127584235
71.2719 68.887483922766
72.3086 68.98415080992268
73.3603 69.08765627355281
74.4274 69.18271823571887
75.5099 69.26737069277274
76.6083 69.32248988571824
77.7226 69.36521101684326
78.8531 69.43188716230847
80.0 69.5118288368387
81.1636 69.62074306060782
82.3442 69.73752199509217
83.5419 69.86865959109049
84.757 70.01398377961787
85.9899 70.15768557570102
87.2406 70.29298083682244
88.5096 70.42116838825586
89.797 70.53731377362155
91.1031 70.61164659198245
92.4282 70.63205801538761
93.7726 70.61039950329655
95.1366 70.5806286504505
96.5204 70.58437755868158
97.9243 70.6461337233424
99.3486 70.73719756250239
100.794 70.8753454031871
102.26 70.9921982712388
103.747 71.09716094089089
105.256 71.18775764842108
106.787 71.27928064610569
108.34 71.37228289830335
109.916 71.46123947947774
111.515 71.55123022588691
113.137 71.64403176693811
114.783 71.71983857636113
116.452 71.7930542272722
118.146 71.87967498062969
119.865 71.99231123746263
121.608 72.10067792302871
123.377 72.18910109760914
125.171 72.26406803512776
126.992 72.3511658681433
128.839 72.46564237784982
130.713 72.57997526561553
132.615 72.64183305450085
134.543 72.66491364304453
136.5 72.71109098958752
138.486 72.77179354078137
140.5 72.82786649729668
142.544 72.86621673109099
144.617 72.86566157451911
146.721 72.89091943757872
148.855 73.00447656530125
151.02 73.10836710442577
153.217 73.10989502496642
155.445 73.09271896221428
157.706 73.02936109056853
160.0 72.91228019407436
162.327 72.93978678407117
164.688 72.98759200900308
167.084 73.09628702336622
169.514 73.18966164795869
171.98 73.07057997684069
174.481 72.92532779328269
177.019 72.84381571692866
179.594 72.86231848789416
182.206 72.95302118286784
184.856 73.04430655974656
187.545 73.10705055971286
190.273 73.17930192947694
193.041 73.25042123805477
195.849 73.28177448194134
198.697 73.26510250802131
201.587 73.19309476097995
204.52 73.10433894475642
207.494 73.06472372063193
210.512 73.03007846694423
213.574 72.99067860700366
216.681 72.79287951006106
219.833 72.75447528467811
223.03 72.66586843669965
226.274 72.63325623878261
229.565 72.68721418890135
232.905 72.68432892945924
236.292 72.7559013044863
239.729 72.80170699005697
243.216 72.78191768721825
246.754 72.7572903711351
250.343 72.65069745125078
253.984 72.6256902708199
257.678 72.7298654746352
261.426 72.70327881144732
265.229 72.59266259607917
269.087 72.42103423367043
273.001 72.33581848613184
276.972 72.37962707043306
281.0 72.35667210437626
285.088 72.3106898519822
289.234 72.38428568106723
293.441 72.38350524083118
297.709 72.26270580673548
302.04 72.25734248335058
306.433 72.0032737542149
310.89 71.99540761337758
315.412 71.95274781737926
320.0 71.88395085077669
324.655 71.63639237912905
329.377 71.6166099306645
334.168 71.5148638288144
339.028 71.47163970132198
343.959 71.46439619546261
348.962 71.3477413017398
354.038 71.17902391852826
359.188 71.15775566051023
364.412 71.00470881671279
369.713 70.89664111582935
375.09 70.62829727852431
380.546 70.67249791057907
386.081 70.62291879339033
391.697 70.63854981421701
397.394 70.60034806704608
403.175 70.53566308599329
409.039 70.52053271703899
414.989 70.57483711657501
421.025 70.60147922233935
427.149 70.64136714334413
433.362 70.68751613823568
439.665 70.7480559765458
446.06 70.76854932583586
452.548 70.79935417339343
459.131 70.82448863612194
465.809 70.83978871351079
472.584 70.84239887754734
479.458 70.82606242749114
486.432 70.801504866134
493.507 70.76239536392467
500.686 70.71052143190423
507.968 70.65537686368305
515.357 70.5875174788606
522.853 70.51410327483674
530.458 70.43699129960022
538.174 70.36506251026904
546.002 70.29417020816436
553.943 70.23213833630925
562.001 70.18389882376995
570.175 70.15008013720211
578.469 70.13858881078899
586.883 70.14283487376208
595.419 70.17107973957802
604.08 70.22179188645427
612.866 70.29002220579477
621.78 70.36983167598986
630.824 70.45782344305921
640.0 70.54545933259257
649.309 70.62856755363012
658.753 70.70539801247061
668.335 70.76630687231093
678.056 70.8093847036778
687.919 70.83110955308109
697.925 70.82244360032382
708.077 70.79388463349191
718.376 70.73827992018879
728.825 70.65701211940728
739.426 70.56222529416675
750.181 70.4581866228712
761.093 70.34846438562558
772.163 70.25227792296079
783.394 70.1757936648512
794.789 70.13408303434443
806.349 70.1323120785045
818.078 70.178507277411
829.977 70.27187793431357
842.05 70.40182786855142
854.298 70.56273329500272
866.724 70.7353932263133
879.33 70.91313514416143
892.12 71.07639012773011
905.097 71.21439562357037
918.262 71.31723745496683
931.618 71.38078410541621
945.169 71.39906677239169
958.917 71.37055729771372
972.864 71.30167561142515
987.015 71.1988040185415
1001.37 71.0624448888822
1015.94 70.91506921341544
1030.71 70.7725471802712
1045.71 70.64023919399833
1060.92 70.53833835120021
1076.35 70.47129684119642
1092.0 70.4342431180586
1107.89 70.43130601639396
1124.0 70.44432464890858
1140.35 70.46431445151835
1156.94 70.48037792083173
1173.77 70.48316730339214
1190.84 70.47450045579942
1208.16 70.44757625049118
1225.73 70.41453617248978
1243.56 70.37712159519846
1261.65 70.3450121852077
1280.0 70.32080691554891
1298.62 70.30322946821737
1317.51 70.28357274355395
1336.67 70.25836768587747
1356.11 70.20720244505719
1375.84 70.12634707988738
1395.85 70.00475076480735
1416.15 69.84153305216923
1436.75 69.64539638360048
1457.65 69.42211255189066
1478.85 69.18991494276233
1500.36 68.95814316045738
1522.19 68.74781822230713
1544.33 68.55744141895671
1566.79 68.39825907487989
1589.58 68.27071117463372
1612.7 68.18705833468613
1636.16 68.15759510436578
1659.95 68.1970900626103
1684.1 68.2963728087881
1708.6 68.44419881208056
1733.45 68.60511606549147
1758.66 68.73646182954589
1784.24 68.80393077874268
1810.19 68.78628679642016
1836.52 68.6940570626754
1863.24 68.56325839208279
1890.34 68.45834485722506
1917.83 68.4540766443865
1945.73 68.58091727860918
1974.03 68.81244042465119
2002.74 69.06897596709636
2031.87 69.2702489796345
2061.43 69.3535799487829
2091.41 69.31271147189914
2121.83 69.18161942922052
2152.69 69.04351594360494
2184.01 68.99093023185813
2215.77 69.07792184941614
2248.0 69.2777149722897
2280.7 69.49455408943611
2313.87 69.63193825476485
2347.53 69.63461976881447
2381.68 69.50560668058758
2416.32 69.31734005638899
2451.46 69.1899911702808
2487.12 69.21365713109803
2523.3 69.38847646688434
2560.0 69.60621030648613
2597.24 69.73288270121617
2635.01 69.69012560273622
2673.34 69.48820275302859
2712.23 69.2415212512295
2751.68 69.11174997111392
2791.7 69.19028200720132
2832.31 69.38553834708789
2873.5 69.51240147969895
2915.3 69.42502273296176
2957.7 69.13188014997164
3000.72 68.80792676356555
3044.37 68.69036531507807
3088.65 68.82510735999648
3133.58 68.99613425032187
3179.16 68.96884014276242
3225.4 68.71815700428631
3272.31 68.46842009809673
3319.91 68.5020543983281
3368.2 68.7998315189217
3417.19 69.09071803203167
3466.89 69.19371072715941
3517.32 69.16245268145109
3568.48 69.13876209411006
3620.39 69.18417579850905
3673.05 69.25573321880896
3726.47 69.3132513094279
3780.67 69.32409632888482
3835.67 69.25213995360073
3891.46 69.13726343785186
3948.06 69.13381187707999
4005.49 69.24841512913206
4063.75 69.24217549397176
4122.86 68.99528460022242
4182.82 68.80205248778945
4243.66 68.96684463801284
4305.39 69.23582575413016
4368.01 69.2372940057422
4431.55 69.0714482432091
4496.01 69.13597503928118
4561.4 69.45033793230205
4627.75 69.60179368901117
4695.06 69.42673902176921
4763.35 69.30273059978347
4832.64 69.53872485561736
4902.93 69.69359139738388
4974.24 69.42924901860587
5046.6 69.19530298291457
5120.0 69.30702230471121
5194.47 69.28124719843734
5270.03 68.96316886071654
5346.68 68.81781318150439
5424.45 68.92615735382978
5503.35 68.90289234059837
5583.4 68.71755482264624
5664.61 68.71921318986546
5747.01 68.90459610327397
5830.6 68.83726961238077
5915.41 68.59797342410464
6001.45 68.66001522433362
6088.74 68.69830169128818
6177.3 68.44426179242001
6267.15 68.43488419702302
6358.31 68.47762775196296
6450.8 68.23671521370915
6544.62 68.36674809946547
6639.82 68.80614199605384
6736.4 69.04797428783826
6834.38 69.35140597081852
6933.79 69.43076922636436
7034.64 69.05753393393671
7136.96 68.8743312658884
7240.77 68.33908990670206
7346.09 67.67766761956622
7452.94 67.60394489991305
7561.35 67.148563302333
7671.33 67.40782004401576
7782.91 67.6053739314498
7896.12 67.95911572766207
8010.97 68.38579230477978
8127.49 68.21388514419486
8245.71 68.46374371025507
8365.65 68.39561967947456
8487.33 68.5068008630726
8610.78 68.37646266195185
8736.03 68.37205286229008
8863.09 68.23942613589983
8992.01 68.57845456823692
9122.8 68.74151981959392
9255.5 69.11407870930108
9390.12 68.79901093017719
9526.7 68.99943765499819
9665.27 68.51442989862664
9805.86 68.74943789975508
9948.49 68.30825393103174
10093.2 68.4888789723513
10240.0 68.00342667457339
10388.9 67.99061482672671
10540.1 67.51787073551017
10693.4 67.20659835223822
10848.9 66.95373187359846
11006.7 67.22560020782538
11166.8 67.16995758971952
11329.2 67.29392017712024
11494.0 67.02983014912323
11661.2 66.7007258478493
11830.8 66.35376289752226
12002.9 65.89977731470124
12177.5 65.95775326222497
12354.6 65.6782836231012
12534.3 65.5616748169474
12716.6 65.66148158839837
12901.6 65.34787782075162
13089.2 65.21500551441198
13279.6 65.19497121698451
13472.8 64.81897867200028
13668.8 64.70432211380815
13867.6 64.40711582722585
14069.3 63.88555348456397
14273.9 63.73443400959013
14481.5 64.39838300165601
14692.2 65.19797296612407
14905.9 65.82774571085983
15122.7 65.87395265227921
15342.7 65.57037283326252
15565.8 65.11033015258911
15792.2 64.38606005392228
16021.9 63.568750092567086
16255.0 62.87862446462441
16491.4 62.75079944257402
16731.3 62.281060231524776
16974.7 61.04491321348121
17221.6 59.58750559872078
17472.1 58.217816082958606
17726.2 57.46387494180479
17984.0 56.634372337059546
18245.6 55.88354400534183
18511.0 55.41281024303895
18780.2 55.253058920749595
19053.4 55.4704596677541
19330.5 55.73118667830062
19611.7 55.67751461733019
19897.0 55.48457298976962
