Freq "Listening Window"
20.5078 52.431923699256274
21.9727 54.18715558251033
23.4375 55.30294402033623
24.9023 57.899191902686695
26.3672 60.433235240664104
27.832 62.696285242655065
29.2969 64.56282102148603
30.7617 66.65414669172846
32.2266 68.9494083185701
33.6914 70.89926019542868
35.1562 72.65089122269967
36.6211 74.24059487062425
38.0859 75.68883416001343
39.5508 77.01134040742856
41.0156 78.25402453451669
42.4805 79.15884579153463
43.9453 79.72189958529417
45.4102 80.17165233368156
46.875 80.52526975061718
48.3398 80.82115568131347
51.2695 81.48448591955616
52.7344 81.72254198025013
54.1992 81.87790817786255
55.6641 82.10243059037104
58.5938 82.41508590837685
60.0586 82.58104886080741
62.9883 82.91159862501624
64.4531 83.03392887432675
67.3828 83.33600232587219
68.8477 83.50180267143409
71.7773 83.90190489191406
74.707 84.27908691267956
77.6367 84.56632836393196
79.1016 84.70183918852204
82.0312 84.95462782374392
84.9609 85.1217879766093
87.8906 85.41491766164448
90.8203 85.68354557058889
95.2148 85.91049011815034
98.1445 86.01479376697826
101.074 86.07490312995826
105.469 86.52049935328955
108.398 86.85820631749047
112.793 86.98819064894121
117.188 87.09107422423754
120.117 87.16621543967665
124.512 87.17460361913443
128.906 87.22349411493094
133.301 87.20596804318798
139.16 87.20043239573808
143.555 87.12960887495936
147.949 87.10834522621589
153.809 87.09776972278556
159.668 87.03775124452845
165.527 87.07152995490733
171.387 87.15403031466504
177.246 86.82238776990302
183.105 86.53833343159509
188.965 86.52956207253335
196.289 86.67141754188333
203.613 86.69066171114795
210.938 86.51496950294319
218.262 86.25216649745664
225.586 86.17577628070828
232.91 86.20474962062981
241.699 85.94622675219841
250.488 85.66045078380495
259.277 85.55512905363341
268.066 85.01667154823427
276.855 85.0786846648568
287.109 86.64298058035453
297.363 87.76270912745817
307.617 86.89891069757384
319.336 85.73868952706422
329.59 85.61848100373827
341.309 85.50681635605721
353.027 85.27858365323256
366.211 85.44572060218738
379.395 86.34610778310413
392.578 85.58069055128593
405.762 85.76935075294183
420.41 86.00276688497249
435.059 85.77845823512565
451.172 86.02053534684214
465.82 86.23104263696621
483.398 85.75116361168564
499.512 85.86171500152786
517.09 86.45838324487937
536.133 86.22405798086102
555.176 86.6684060650743
574.219 86.7832724962936
594.727 86.47799446443523
615.234 87.01461741396139
637.207 87.1331721642769
659.18 87.30716219621033
682.617 86.87677733618919
707.52 86.53841897845372
732.422 86.42500558368562
757.324 86.79450948199292
785.156 85.98871495275486
811.523 88.22554169436636
840.82 87.57458847379749
870.117 86.542676905427
900.879 85.69309796996093
933.105 86.54303537370646
965.332 87.14729234795477
1000.49 86.13003787001611
1035.64 87.0542734122537
1072.27 85.80221377545715
1108.89 86.34433491325858
1148.44 85.40053605931767
1189.45 85.47536591295118
1230.47 84.8256160382517
1274.41 85.51701533631852
1319.82 86.26788813423568
1366.7 86.76578199351574
1413.57 86.967367051448
1463.38 86.69943472547178
1516.11 86.15878142480237
1568.85 85.47223291897745
1624.51 85.10629174438117
1681.64 86.19445410375049
1741.7 87.17590130633711
1803.22 86.92104771222421
1866.21 86.28330846280652
1932.13 85.12039800662744
1999.51 84.84180628075316
2069.82 85.19226550930306
2143.07 85.74414650481994
2219.24 85.50540308018087
2296.88 84.57284910405009
2378.91 84.17229716620358
2462.4 85.57876804615572
2548.83 86.51419668369886
2639.65 85.840650566545
2731.93 84.68726497188455
2828.61 84.58230862713462
2928.22 85.5491725666054
3030.76 85.9184384689487
3137.7 85.71722800983822
3249.02 84.98662072778569
3363.28 84.52704074716573
3481.93 84.71858944223743
3604.98 84.46990472108793
3732.42 84.42104530771398
3864.26 84.37108713067471
4000.49 83.42059081342923
4141.11 83.68114083241511
4287.6 84.27516481218838
4438.48 84.38219960089349
4595.21 84.09376238730597
4756.35 84.18801884001233
4924.8 84.69712132387573
5097.66 84.40099325332392
5277.83 84.0752213491827
5463.87 84.60707966085447
5657.23 84.32387039263325
5856.45 84.22244029857626
6062.99 84.53812647722101
6276.86 84.331341503624
6498.05 84.28781991270291
6726.56 84.85348154714981
6963.87 84.52524763375318
7209.96 85.17604402760061
7464.84 84.99640804951306
7727.05 84.71482319665422
7999.51 85.16601571960116
8282.23 84.8287245097604
8573.73 85.06586941606281
8876.95 84.850893052054
9188.96 84.89693640906825
9514.16 84.79452490037887
9849.61 84.98595937885806
10196.8 85.26891848519443
10555.7 85.35883787783528
10927.7 85.59896197254876
11313.0 85.84916380857786
11712.9 86.03735947920906
12126.0 85.8993473583075
12553.7 86.1547622393302
12996.1 86.46198497052826
13454.6 86.84189259413566
13929.2 86.99801667101191
14419.9 86.96805546423077
14928.2 86.74724351358078
15455.6 86.50490158670452
16000.5 86.33894820137525
16564.5 86.21707581502645
17148.9 86.24132433718682
17752.4 85.9920325326096
18379.4 85.72634240725837
19026.9 84.45893667778216
19697.8 82.39694505979128
19999.5 81.2235380980714
