Freq "Estimated In-Room Response"
22.4 35.90628071670541
23.0 37.01822191858089
23.6 38.12391236877063
24.0 39.201108991266395
25.0 40.29839780266191
25.8 41.36413033787515
26.5 42.42696200651507
27.2 43.46290228290921
28.0 44.50692819803761
29.0 45.558959993796904
30.0 46.59982975022986
30.7 47.63639960023629
31.5 48.72336339472629
32.5 49.8423910305775
33.5 50.97912764213346
34.5 52.15582812230424
35.5 53.37998730317484
36.5 54.637741390374615
37.5 55.90740190533866
38.7 57.20170355694505
40.0 58.479860651193235
41.2 59.7304136964712
42.5 60.94800411673286
43.7 62.127091506839704
45.0 63.257127467981675
46.2 64.31229238933865
47.5 65.31588316237936
48.7 66.21560534622361
50.0 67.06565540403507
51.5 67.83309092727555
53.0 68.54630137513352
54.5 69.22892202624732
56.0 69.88181206151945
58.0 70.56832773681782
60.0 71.29086045602877
61.5 72.08445978178837
63.0 72.93011537285896
65.0 73.8036646062571
67.0 74.62718731677995
69.0 75.40645631870412
71.0 76.09253821691182
73.0 76.63119783718331
75.0 77.07420522825957
77.5 77.40043340040266
80.0 77.64615916168054
82.5 77.80208458414425
85.0 77.95066662422921
87.5 78.106231771947
90.0 78.3312556195241
92.5 78.68209837106612
95.0 79.20349486779249
97.5 79.73255699846358
100.0 80.11680932316419
103.0 80.17155183895723
106.0 79.81533244376872
109.0 79.13574536577518
112.0 78.46110866899771
115.0 78.03739157259783
118.0 78.19919998710233
122.0 78.88571779019826
125.0 79.56854374552441
128.0 79.9400184895687
132.0 79.94154743485154
136.0 79.86619950202608
140.0 80.06040156241833
145.0 80.55689326548261
150.0 80.88646006744071
155.0 80.58647650191152
160.0 79.81829679271674
165.0 79.16021195626574
170.0 78.36222609128127
175.0 77.27409625671781
180.0 76.72897713161133
185.0 76.75907696228784
190.0 76.7731461201783
195.0 77.01247385456148
200.0 77.60904233038403
206.0 78.96819379331016
212.0 80.34024926112474
218.0 81.30035057656018
224.0 82.42026766827259
230.0 83.01893225649174
236.0 82.35234892106197
240.0 80.97737047549255
250.0 79.39318080576479
258.0 76.83881025870927
265.0 74.92579633547065
272.0 74.00345009156699
280.0 74.04697914061265
290.0 75.79195945109561
300.0 77.02253750719815
307.0 78.64856101122963
315.0 79.11217497176091
325.0 78.43150503040319
335.0 77.45717581603529
345.0 77.07175360139325
355.0 77.39727802132109
365.0 78.09384253906907
375.0 78.38627519767785
387.0 78.20287630587899
400.0 77.45640411681913
412.0 77.10278237988
425.0 76.8804118927669
437.0 76.78577959590247
450.0 76.6961429211741
462.0 76.48163930533833
475.0 76.40606926687003
487.0 76.74842873935128
500.0 77.25991768219045
515.0 77.7361604508513
530.0 78.04800593087457
545.0 78.06692269759169
560.0 77.88339438041169
580.0 77.33415957436128
600.0 76.16832880898004
615.0 74.7111016630886
630.0 72.92270705192655
650.0 71.91999407804148
670.0 72.6246124888585
690.0 73.77309883733223
710.0 74.79558502590716
730.0 75.88705735290466
750.0 76.96340170271829
775.0 77.29961550282697
800.0 77.34902371867724
825.0 77.73264561629496
850.0 77.5678025856209
875.0 76.84609926906751
900.0 76.45094370864277
925.0 75.7163093406283
950.0 74.64299869710521
975.0 73.91383963551705
1000.0 73.45044631680489
1030.0 73.64030540022426
1060.0 75.4089583487905
1090.0 77.13596720316886
1120.0 77.45970094001535
1150.0 76.63906848668412
1180.0 75.69759066767821
1220.0 72.89640317535964
1250.0 70.60360664137443
1280.0 69.86908492539767
1320.0 69.13672363597338
1360.0 69.01517463318366
1400.0 68.91851807936872
1450.0 69.8347772619106
1500.0 70.87494099347033
1550.0 71.80405566533226
1600.0 72.9583738884861
1650.0 74.10712795981632
1700.0 75.006251774143
1750.0 75.75573524944478
1800.0 76.58000014643613
1850.0 77.55635469339076
1900.0 77.90250623217725
1950.0 77.66469046013553
2000.0 77.2404056644428
2060.0 77.00652662115309
2120.0 75.98948603301048
2180.0 74.30167860501305
2240.0 74.87811704873006
2300.0 75.52468318077837
2360.0 74.55376726476653
2400.0 73.31902287266261
2500.0 73.55626098715625
2580.0 74.51503601420443
2650.0 74.67386208703938
2720.0 74.19456451672902
2800.0 73.69109358770751
2900.0 74.08424884089744
3000.0 75.18073951300103
3070.0 75.70672891924261
3150.0 76.19800966522945
3250.0 76.88383611742289
3350.0 78.04206353105675
3450.0 78.57730282180304
3550.0 77.6264912119448
3650.0 76.29766850953169
3750.0 73.63422457379657
3870.0 74.6296259737799
4000.0 76.36575317355869
4120.0 75.46355115794341
4250.0 74.61830058697278
4370.0 74.83741123318494
4500.0 74.32705335934249
4620.0 76.1198666159755
4750.0 77.23760286854248
4870.0 76.91998268587155
5000.0 76.05021767563444
5150.0 77.12455817599091
5300.0 73.4413035261566
5450.0 68.68242137717662
5600.0 74.69908322920016
5800.0 74.36130621298189
6000.0 70.17293386321835
6150.0 72.25415497725204
6300.0 76.67528972753745
6500.0 75.68028166870924
6700.0 73.0328510670383
6900.0 76.1160376754645
7100.0 77.4913867530238
7300.0 76.10870375381235
7500.0 74.75671548525
7750.0 77.95200092526052
8000.0 76.65777284968028
8250.0 72.41115864641364
8500.0 79.34733175211089
8750.0 77.1832727442507
9000.0 74.44211188616204
9250.0 77.22095408509496
9500.0 75.34119137688216
9750.0 73.96663260273053
10000.0 73.13926966137204
10300.0 75.78253259305787
10600.0 73.01542685339699
10900.0 72.72630496463748
11200.0 74.51761649527175
11500.0 70.7129601191432
11800.0 72.24249027525111
12200.0 72.80947778056606
12500.0 74.75576503036116
12800.0 70.45990368558286
13200.0 70.14258488026215
13600.0 67.5296020207825
14000.0 66.15728834724057
14500.0 65.2912598822269
15000.0 66.36933725863177
15500.0 68.50540643307198
16000.0 68.65719549190032
16500.0 66.18734381027987
17000.0 66.4649046358776
17500.0 70.37668159845929
18000.0 69.9544148203767
18500.0 69.88824674882252
19000.0 67.38418475024632
19500.0 68.94390057889325
