Freq "Listening Window"
20.5078 57.099972255432675
23.4375 59.39636392168981
26.3672 63.21871972811249
29.2969 66.87349341395412
32.2266 70.70518002530221
35.1563 74.49149823967404
38.0859 77.79543626774829
41.0156 80.53061154230016
43.9453 82.38173574299134
46.875 83.4176957548278
49.8047 83.9099211819259
52.7344 84.19272075721048
55.6641 84.38295399853844
58.5938 84.5726215423774
61.5234 84.71239967400103
64.4531 84.90752628013922
67.3828 85.18217890771757
70.3125 85.33379328265953
73.2422 85.62404896460147
76.1719 85.88347841395449
79.1016 86.0139261926299
82.0313 86.35581792688882
84.9609 86.74628407011721
87.8906 86.65968495336602
90.8203 86.7339690024217
93.75 87.0425852763052
96.6797 87.35674511741601
102.539 87.59007461267477
105.469 87.6962005720076
108.398 87.84038161105991
111.328 88.05053427109125
117.188 88.35756884122101
120.117 88.50267194278463
125.977 88.62843103267376
128.906 88.61010086216912
134.766 88.58299532889453
137.695 88.58516677001717
143.555 88.61179579635792
149.414 88.75031935525816
155.273 88.9562912594029
158.203 88.94678743826509
164.063 88.90981589380823
169.922 88.74354520750973
175.781 88.58198585785787
181.641 88.52685378609848
190.43 88.46660959709754
196.289 88.3550330708312
202.148 88.56345120266906
210.938 88.51908920878836
216.797 88.24569561206366
225.586 88.3074809217088
234.375 88.22960435126903
240.234 88.07289791133523
249.023 88.16973078445946
257.813 88.23561415125143
266.602 87.54336565567544
278.32 87.34372484680752
287.109 87.47050025335676
295.898 87.53239278471797
307.617 87.11089274952074
319.336 88.42219708072292
331.055 87.67299110331588
342.773 88.99522949320045
354.492 88.86416895422681
366.211 88.60957273651161
377.93 88.23766167014861
392.578 87.78424224804867
407.227 87.54572127406652
421.875 86.65842374065443
436.523 87.51347630015053
451.172 88.84959166966131
465.82 88.65943314357082
483.398 88.5086746275726
500.977 88.36325236464572
518.555 88.14012538215566
536.133 88.68235801679003
553.711 88.31584164235868
574.219 88.51962189036175
594.727 88.5593993101533
615.234 88.93915495723017
638.672 90.48450048979002
659.18 90.256172627375
682.617 90.00827243991344
706.055 90.44436176366129
732.422 89.0871730608742
758.789 90.16394024604753
785.156 90.71476969126567
811.523 90.40185744776679
840.82 89.98886964166532
870.117 89.9040068394448
902.344 89.86098816536295
931.641 89.88209698375465
966.797 89.61473693823295
999.023 88.88328845542138
1034.18 88.06026779080082
1072.27 87.51544372167353
1110.35 87.09031379947551
1148.44 87.36190605692101
1189.45 87.42246983047526
1230.47 86.80557532479459
1274.41 86.39659142366345
1318.36 85.69439383325187
1365.23 85.03449197502732
1415.04 84.41281381643516
1464.84 84.42578997882502
1514.65 84.49412055044026
1570.31 84.1901410674478
1623.05 83.30820067572655
1681.64 83.13135943891312
1740.23 83.76009092224862
1801.76 83.82682992592986
1866.21 83.15610385663422
1930.66 82.43325545001952
2000.98 83.46815886655656
2071.29 84.2329643188697
2144.53 84.01186803201558
2217.77 83.8326274060805
2296.88 85.2717012496872
2378.91 85.7351775271344
2460.94 85.90539196536932
2548.83 86.20995204050445
2639.65 86.95984562866916
2733.4 87.2397755606753
2827.15 87.56357653717072
2926.76 87.38976207433174
3032.23 87.37189639231717
3137.7 87.6610023287751
3249.02 87.52254935301353
3363.28 87.24808034823417
3483.4 87.63342672796458
3606.45 87.43038585645095
3732.42 87.29361257837932
3864.26 87.66249686692016
3999.02 87.94184928237878
4139.65 88.00578809879038
4286.13 88.72256731746549
4438.48 88.62007626577858
4593.75 89.14401551823617
4757.81 88.89526136686005
4924.8 89.02093883213291
5097.66 88.8949468254732
5279.3 88.4691014836537
5463.87 88.88243659325047
5657.23 88.503063262322
5856.45 88.61835013762257
6061.52 88.90444919643119
6275.39 89.10520677270621
6498.05 89.1128817765753
6726.56 89.1228458029838
6963.87 89.09708798731174
7209.96 88.87661111041727
7464.84 88.72090855129362
7728.52 88.58329840631613
8000.98 88.7696500004256
8282.23 89.02913237395038
8575.2 88.85580539299528
8876.95 88.50385843132047
9190.43 88.2366074434386
9512.7 88.22869960207318
9849.61 88.45776888525918
10195.3 88.91728217643613
10555.7 89.29144370316115
10927.7 89.47529139103314
11314.5 89.46659200078156
11712.9 89.29435090041108
12126.0 89.50931470534428
12553.7 89.49749204756426
12996.1 89.82686543706362
13453.1 89.99144106834872
13927.7 89.67143285103776
14419.9 89.17887658642466
14929.7 88.91486540842469
15454.1 88.69970149197954
15999.0 88.50888221150518
16564.5 88.5529124429065
17147.5 88.64066477456649
17753.9 88.76134211248588
18377.9 87.94352430954893
19028.3 86.44431287218823
19699.2 84.38496783798362
19998.0 83.13972267161242
