Freq,On Axis,Listening Window,Sound Power,Early Reflections,Early Reflections DI,Sound Power DI,DI offset
22.4,23.035443037974687,22.500308460904705,21.40751587321509,21.819220225544086,20.68108823536062,21.092792587689615,20
23.0,22.935443037974665,22.487866108106346,21.399116986414043,21.817588535508094,20.670277572598252,21.088749121692302,20
23.6,23.13544303797468,22.687866108106363,21.605332757875857,22.01596604353557,20.671900064570792,21.082533350230506,20
24.0,24.63544303797468,24.187866108106334,23.14060166939987,23.54685353492664,20.641012573179694,21.047264438706463,20
25.0,26.035443037974687,25.598458524606258,24.565998642255806,24.97646656232041,20.621991962285847,21.03245988235045,20
25.8,27.235443037974676,26.753373303057913,25.71142514127888,26.123525973263156,20.629847329794757,21.041948161779032,20
26.5,28.13544303797468,27.7190868373809,26.683652744058747,27.099406566365758,20.61968027101514,21.035434093322152,20
27.2,28.935443037974665,28.551789265299703,27.539115031195195,27.939765807090623,20.61202345820908,21.01267423410451,20
28.0,29.735443037974676,29.309270991741812,28.303671391091314,28.69800913527311,20.6112618564687,21.0055996006505,20
29.0,30.435443037974665,30.03131606594252,29.007707029694927,29.40634619548456,20.62496987045796,21.023609036247592,20
30.0,31.235443037974676,30.90768376678247,29.925237940432908,30.33443603408199,20.57324773270048,20.98244582634956,20
30.7,32.63544303797468,32.262718402813334,31.273895106267787,31.676795031983346,20.58592337082999,20.988823296545547,20
31.5,33.735443037974676,33.36271840281333,32.4134906676442,32.816921734694404,20.545796668118925,20.94922773516913,20
32.5,34.63544303797468,34.29609873982014,33.354468693321536,33.755047559007664,20.541051180812474,20.941630046498602,20
33.5,35.435443037974665,35.09609873982015,34.161141654112015,34.561248646963975,20.534850092856175,20.934957085708135,20
34.5,36.13544303797468,35.80742626444862,34.880259627325245,35.27709723219931,20.530329032249313,20.927166637123378,20
35.5,36.83544303797467,36.50742626444864,35.58534878925357,35.97721714409187,20.530209120356773,20.922077475195067,20
36.5,37.83544303797467,37.561919483756895,36.65359265104996,37.04792122327319,20.513998260483703,20.908326832706933,20
37.5,38.735443037974676,38.49556416031672,37.63162127343463,38.00969380657,20.48587035374672,20.863942886882086,20
38.7,39.53544303797469,39.32774374727495,38.45000330663623,38.83477310125332,20.492970646021632,20.877740440638718,20
40.0,40.235443037974676,40.02774374727494,39.18737144692378,39.55435988347608,20.47338386379886,20.840372300351163,20
41.2,40.83544303797467,40.63951840110707,39.84573220209734,40.20848727824156,20.431031122865505,20.79378619900973,20
42.5,41.63544303797468,41.48420561340731,40.70135804798292,41.04696539936302,20.437240214044294,20.78284756542439,20
43.7,42.435443037974665,42.328012126489426,41.56637181709789,41.915829683428,20.412182443061425,20.761640309391538,20
45.0,43.235443037974676,43.11673823765233,42.340431670871766,42.69133804470491,20.42540019294742,20.776306566780562,20
46.2,43.83544303797467,43.74005992363939,43.0082866083211,43.343401275812255,20.396658647827138,20.731773315318293,20
47.5,44.43544303797468,44.36245822045855,43.6623405999014,43.995372674908666,20.367085545549884,20.70011762055715,20
48.7,45.235443037974676,45.17468899284974,44.476208863732325,44.80141995773164,20.3732690351181,20.698480129117414,20
50.0,46.03544303797469,45.940059923639396,45.26300909338029,45.581628900223976,20.35843102341542,20.677050830259105,20
51.5,46.63544303797468,46.59543024682162,45.92669713064673,46.225044153442184,20.370386093379437,20.66873311617489,20
53.0,47.235443037974676,47.195430246821616,46.54528759232892,46.847715906731594,20.347714340090022,20.650142654492697,20
54.5,47.93544303797468,47.96204475150955,47.320520255194,47.6196546031378,20.34239014837175,20.641524496315554,20
56.0,48.63544303797468,48.650858976441015,48.03440633322438,48.31575255301868,20.33510642342233,20.616452643216633,20
58.0,49.235443037974676,49.26204475150955,48.675685958724216,48.95500802984503,20.307036721664517,20.586358792785333,20
60.0,49.83544303797467,49.86204475150956,49.29882109769491,49.56105774222807,20.300987009281485,20.563223653814646,20
61.5,50.63544303797468,50.59443224273703,50.02432558601282,50.28495223056463,20.3094800121724,20.570106656724207,20
63.0,51.235443037974676,51.25085897644101,50.67420070517311,50.938827086990045,20.312031889450964,20.576658271267902,20
65.0,51.83544303797467,51.85085897644102,51.26543076206252,51.52642035182174,20.324438624619276,20.585428214378496,20
67.0,52.53544303797469,52.49443224273702,51.949813375111574,52.20461650499011,20.289815737746906,20.544618867625445,20
69.0,53.13544303797468,53.161547716427805,52.58708589784396,52.835906242628965,20.32564147379884,20.574461818583842,20
71.0,53.735443037974676,53.7615477164278,53.17480516208654,53.42815699713927,20.33339071928853,20.586742554341257,20
73.0,54.33544303797467,54.38332968158426,53.819533900983814,54.06500291292903,20.318326768655226,20.563795780600444,20
75.0,55.03544303797469,54.99443224273702,54.4333923089407,54.680603686972916,20.313828555764104,20.561039933796323,20
77.5,55.53544303797469,55.54927982660722,54.98727223290524,55.22250588345602,20.326773943151196,20.562007593701978,20
80.0,56.235443037974676,56.21605030723394,55.6185323854299,55.86706317475881,20.34898713247513,20.59751792180404,20
82.5,56.735443037974676,56.74927982660721,56.17024478555089,56.41753719844722,20.331742628159986,20.579035041056315,20
85.0,57.33544303797467,57.37112325344512,56.752540627412856,56.99700201053031,20.37412124291481,20.618582626032264,20
87.5,57.93544303797468,57.91524275611812,57.30601444964199,57.560091650565184,20.355151105552935,20.609228306476126,20
90.0,58.53544303797469,58.49362066144113,57.85225937601952,58.11381607183071,20.379804589610416,20.64136128542161,20
92.5,59.03544303797469,59.05916144023328,58.40015922681384,58.67235025030496,20.386811189928324,20.65900221341944,20
95.0,59.63544303797468,59.57032587917412,58.912376781150826,59.18297030499015,20.38735557418397,20.657949098023295,20
97.5,60.13544303797468,60.11574511868733,59.42348062374033,59.71000526842437,20.40573985026296,20.692264494946997,20
100.0,60.63544303797468,60.603905745483246,59.89094405733634,60.18005455467036,20.423851190812883,20.712961688146905,20
103.0,61.13544303797468,61.103905745483246,60.37901446575745,60.66969188090299,20.434213864580258,20.724891279725796,20
106.0,61.63544303797468,61.603905745483246,60.82833467834058,61.13059773342067,20.473308012062574,20.775571067142664,20
109.0,62.03544303797469,62.00390574548324,61.259153918471824,61.56344294802338,20.44046279745986,20.744751827011413,20
112.0,62.53544303797466,62.448709877603335,61.67317518803041,61.98964013118666,20.459069746416674,20.775534689572922,20
115.0,62.93544303797468,62.87106372206037,62.0545149381323,62.387216294308644,20.483847427751726,20.81654878392807,20
118.0,63.335443037974684,63.248709877603346,62.41526698517555,62.73420883796612,20.514501039637224,20.833442892427797,20
122.0,63.63544303797468,63.5923046035051,62.736577284591064,63.08395399021798,20.50835061328712,20.855727318914035,20
125.0,63.935443037974665,63.892304603505096,63.01234893228158,63.37781387557578,20.514490727929314,20.879955671223513,20
128.0,64.23544303797468,64.15964083098382,63.25651436075988,63.62231855011274,20.53732228087108,20.90312647022394,20
132.0,64.43544303797468,64.3923046035051,63.472166840678526,63.84952775203453,20.542776851470563,20.92013776282657,20
136.0,64.63544303797468,64.55964083098381,63.63535640355333,64.02325537722056,20.536385453763245,20.92428442743048,20
140.0,64.83544303797468,64.72622843420389,63.75087607908377,64.14731641180612,20.578912022397773,20.975352355120123,20
145.0,64.9354430379747,64.7923046035051,63.82435277087376,64.22661169939465,20.56569290411045,20.967951832631343,20
150.0,64.9354430379747,64.82649079606898,63.82731867964931,64.23969606667586,20.58679472939312,20.999172116419672,20
155.0,64.9354430379747,64.82649079606898,63.80015429204498,64.21987544870865,20.606615347360332,21.026336504024002,20
160.0,64.83544303797468,64.75964083098383,63.724758065908105,64.16017213297056,20.59946869801327,21.03488276507572,20
165.0,64.73544303797468,64.64844885462877,63.586894313084656,64.03674837487692,20.611700479751846,21.061554541544112,20
170.0,64.63544303797468,64.4938197633445,63.429870686362776,63.879570821433504,20.614248941911,21.06394907698173,20
175.0,64.43544303797468,64.34844885462877,63.267052865972204,63.723794421495526,20.624654433133244,21.081395988656567,20
180.0,64.33544303797468,64.20541686403838,63.105721192387634,63.57453846058293,20.630878403455455,21.09969567165075,20
185.0,64.23544303797468,64.10541686403839,62.990286523234744,63.45506756695539,20.650349297082997,21.115130340803645,20
190.0,64.23544303797468,64.05990118217585,62.95874166596876,63.4304824369823,20.629418745193547,21.10115951620709,20
195.0,64.23544303797468,64.14844885462878,63.03512678713324,63.509283260884246,20.639165593744536,21.113322067495545,20
200.0,64.43544303797468,64.32649079606898,63.18788804593575,63.662869800077544,20.663620995991437,21.13860275013323,20
206.0,64.73544303797468,64.59434238492724,63.45288858494453,63.93787278378463,20.656469601142618,21.141453799982713,20
212.0,65.03544303797466,64.89434238492723,63.73854286002614,64.23310189289,20.661240492037223,21.155799524901084,20
218.0,65.33544303797467,65.19434238492722,64.03127534573521,64.5276505723069,20.66669181262033,21.163067039192015,20
224.0,65.63544303797468,65.48271563429918,64.29169342972075,64.79357872730766,20.68913690699152,21.19102220457843,20
230.0,65.83544303797468,65.61698307908999,64.42628840674793,64.9231103142389,20.693872764851093,21.19069467234206,20
236.0,65.83544303797468,65.69434238492724,64.45713695992121,64.97450907622303,20.71983330870421,21.237205425006024,20
240.0,65.83544303797468,65.61698307908999,64.3340166722341,64.8800785835291,20.736904495560893,21.28296640685589,20
250.0,65.53544303797467,65.37307079811238,64.04552400667774,64.6077254475689,20.765345350543484,21.327546791434642,20
258.0,65.23544303797468,65.01672014220712,63.629235312546086,64.21638058350757,20.800339558699548,21.387484829661034,20
265.0,64.83544303797468,64.56294840479859,63.08908913616578,63.735074600292734,20.827873804505856,21.473859268632808,20
272.0,64.33544303797468,64.09634474758346,62.485547031218516,63.19860993684949,20.897734810733965,21.610797716364942,20
280.0,63.8354430379747,63.62878690391172,61.91960691721583,62.70087330635155,20.927913597560163,21.709179986695887,20
290.0,63.53544303797469,63.329848132181155,61.48363683663885,62.35036857597672,20.97947955620444,21.846211295542304,20
300.0,63.43544303797468,63.2190868373809,61.230933728418435,62.198915759533946,21.020171077846953,21.988153108962464,20
307.0,63.43544303797468,63.309372309839546,61.15793629339845,62.223913278763945,21.0854590310756,22.151436016441096,20
315.0,63.53544303797469,63.399047304012015,61.1544622954045,62.321770292756,21.077277011256015,22.244585008607515,20
325.0,63.63544303797468,63.55471599283911,61.20604226025584,62.43912997124298,21.11558602159613,22.348673732583265,20
335.0,63.735443037974676,63.60957269192086,61.20400898261745,62.499935143349845,21.109637548571015,22.405563709303408,20
345.0,63.63544303797468,63.59825077164979,61.14088202331746,62.470626973085004,21.127623798564784,22.45736874833233,20
355.0,63.43544303797468,63.41753421106813,60.966901879632644,62.30255231741647,21.11498189365166,22.450632331435486,20
365.0,63.13544303797468,63.140048682371415,60.691234226916805,62.032930058964766,21.10711862340665,22.44881445545461,20
375.0,62.735443037974676,62.705423675392026,60.27330032230083,61.60789262680561,21.09753104858642,22.4321233530912,20
387.0,62.235443037974676,62.215733550993164,59.79038488641096,61.099608276733875,21.11612527425929,22.425348664582202,20
400.0,61.83544303797467,61.836978026885916,59.393481791067686,60.705934572680746,21.13104345420517,22.44349623581823,20
412.0,61.93544303797468,61.84819956497745,59.33750818994761,60.65202668190041,21.19617288307704,22.510691375029836,20
425.0,62.53544303797466,62.39307387773897,59.779469113732105,61.137537673886456,21.255536203852515,22.613604764006865,20
437.0,63.43544303797468,63.25098225638564,60.475429655653215,61.87956628951318,21.371415966872462,22.775552600732425,20
450.0,64.23544303797468,63.98524708084565,61.04503451826665,62.50423552174138,21.481011559104275,22.940212562579006,20
462.0,64.63544303797468,64.35400780505998,61.24234510521542,62.7605425171497,21.593465287910277,23.11166269984456,20
475.0,64.53544303797467,64.24498585820254,60.96463511512394,62.546766823102075,21.698219035100465,23.2803507430786,20
487.0,64.03544303797467,63.71596041307194,60.227572410317435,61.89076464313693,21.825195769935007,23.488388002754505,20
500.0,63.335443037974684,62.99225048153127,59.27466059397172,61.02638984333964,21.96586063819163,23.717589887559555,20
515.0,62.83544303797467,62.44999188149252,58.49739981829062,60.37440160371693,22.07559027777559,23.952592063201905,20
530.0,62.63544303797468,62.34576964311583,58.18864612396655,60.169519156728626,22.176250486387204,24.15712351914928,20
545.0,62.83544303797467,62.52001445259933,58.23483263399176,60.3194104508311,22.200604001768227,24.28518181860757,20
560.0,62.93544303797468,62.77461644705532,58.45089080301506,60.57552573517343,22.199090711881894,24.323725644040266,20
580.0,63.335443037974684,63.16267046603507,58.827386046137605,60.95830161132504,22.204368854710026,24.335284419897462,20
600.0,63.935443037974665,63.70920501705159,59.33312488965855,61.46136240022203,22.24784261682956,24.37608012739304,20
615.0,64.53544303797467,64.27868084424347,59.811251781002596,61.95040076047941,22.328280083764056,24.46742906324087,20
630.0,65.13544303797468,64.72252934818408,60.0350888491716,62.22543770622916,22.497091641954924,24.68744049901248,20
650.0,65.43544303797468,64.92340252421067,59.96099832731177,62.239107506535504,22.68429501767517,24.962404196898902,20
670.0,65.43544303797468,64.92439771188214,59.70185596687615,62.07128598804185,22.853111723840286,25.222541745005984,20
690.0,65.43544303797468,64.86889091989306,59.4704833188393,61.91625486019335,22.952636059699714,25.398407601053762,20
710.0,65.53544303797467,64.85239953614902,59.406466208520456,61.88332976898205,22.96906976716697,25.445933327628566,20
730.0,65.13544303797468,64.5186361622308,59.24513475520973,61.709238377636254,22.80939778459455,25.273501407021072,20
750.0,63.63544303797468,63.15186282033531,58.19569789525228,60.61892354753721,22.532939272798103,24.95616492508303,20
775.0,60.53544303797469,60.37913975096835,55.591318025999456,58.008844367618224,22.370295383350125,24.787821724968893,20
800.0,59.83544303797467,60.05409818484189,55.05265805475622,57.50253298179295,22.551565203048938,25.00144013008567,20
825.0,62.43544303797469,62.80293771092235,57.64380707950792,60.00352942898964,22.799408281932713,25.159130631414428,20
850.0,62.83544303797467,62.950499095086684,58.33634744270712,60.39028860146006,22.560210493626627,24.61415165237956,20
875.0,60.53544303797469,60.02337209953038,56.4742211417916,58.319851965506004,21.703520134024373,23.549150957738775,20
900.0,60.83544303797467,60.109003514620326,56.658682673971114,58.67212183808681,21.436881676533517,23.450320840649212,20
925.0,64.9354430379747,64.45373613942806,60.21822304745103,62.52859613782563,21.92514000160243,24.235513091977026,20
950.0,66.93544303797468,66.61882589098988,61.691473429735055,64.23640918259716,22.382416708392725,24.927352461254827,20
975.0,66.83544303797468,66.6013812083996,61.2491208932381,63.970885268102734,22.630495940296868,25.3522603151615,20
1000.0,65.43544303797468,65.09515786448361,59.560448752959985,62.42684281185291,22.668315052630703,25.534709111523625,20
1030.0,63.735443037974676,63.217955313236516,57.56624011909432,60.48662242716867,22.731332886067847,25.6517151941422,20
1060.0,64.23544303797468,63.56236673171715,57.67244805159204,60.47009414604082,23.092272585676326,25.889918680125106,20
1090.0,65.63544303797468,65.1011135501446,58.72452974377347,61.40022618954393,23.700887360600674,26.37658380637113,20
1120.0,65.73544303797468,65.3777933320474,58.43160513084614,61.170742244734186,24.207051087313218,26.946188201201267,20
1150.0,65.53544303797467,65.09811341123503,57.56380883646564,60.44639885521785,24.651714556017183,27.534304574769394,20
1180.0,65.43544303797468,64.82434742800487,56.91543042073624,59.777480660175925,25.046866767828945,27.908917007268627,20
1220.0,64.43544303797468,63.61896675356377,55.99329153256525,58.53326713535402,25.085699618209745,27.625675220998517,20
1250.0,63.53544303797469,62.56524820474044,55.798913156251686,58.10371281005992,24.461535394680524,26.766335048488756,20
1280.0,64.73544303797468,63.86027735236718,57.72108098692948,60.14675667066231,23.713520681704864,26.139196365437698,20
1320.0,65.93544303797468,65.2541295057311,59.45004698065799,62.125111229612614,23.129018276118487,25.804082525073113,20
1360.0,65.43544303797468,64.75818816168217,59.27240068809104,62.30593034354291,22.45225781813926,25.48578747359113,20
1400.0,65.83544303797468,65.09246832701336,59.92658751738148,63.205005767984375,21.88746255902899,25.165880809631886,20
1450.0,67.83544303797467,67.13348512821344,62.06037720826991,65.27525344389537,21.85823168431807,25.073107919943524,20
1500.0,68.8354430379747,68.34318262362322,63.24712508919875,66.39424549181804,21.94893713180518,25.096057534424475,20
1550.0,69.63544303797468,69.16896588066174,64.02474967626367,67.30247567555514,21.8664902051066,25.144216204398077,20
1600.0,70.33544303797467,69.81710334638693,64.34495661932327,67.87154541770747,21.945557928679463,25.47214672706366,20
1650.0,71.03544303797469,70.30683708919427,64.599314299009,68.31794966755271,21.988887421641564,25.70752279018528,20
1700.0,71.43544303797466,70.60613770244981,64.81158213583754,68.50550606149645,22.100631640953367,25.794555566612274,20
1750.0,71.53544303797467,70.69557768960154,64.88743135941252,68.48818557790725,22.20739211169429,25.808146330189018,20
1800.0,70.93544303797468,70.2555252911639,64.37572023249066,67.95770519925631,22.297820091907596,25.87980505867324,20
1850.0,71.13544303797468,70.63246832275078,64.64936121698052,68.21150224696493,22.420966075785856,25.98310710577026,20
1900.0,70.63544303797468,70.4040596742507,64.32055482516793,67.7302938746376,22.673765799613108,26.08350484908277,20
1950.0,70.53544303797467,70.43130901394187,64.21971074282318,67.5359549686501,22.895354045291768,26.21159827111869,20
2000.0,70.03544303797466,69.94106399298666,63.28072663651426,66.683094479929,23.25796951305766,26.660337356472397,20
2060.0,70.73544303797468,70.63360873290154,63.943464939463354,67.18587313284148,23.447735600060057,26.69014379343818,20
2120.0,70.83544303797468,70.48377569237377,63.615592772841396,66.71331012148644,23.770465570887325,26.868182919532373,20
2180.0,71.13544303797468,70.62699059170441,63.339165762885656,66.59459569468183,24.032394897022584,27.287824828818756,20
2240.0,68.93544303797466,69.04350953176663,62.443629782398176,65.62074925209824,23.422760279668395,26.599879749368455,20
2300.0,68.53544303797469,68.91726843925142,62.61737395198345,65.761957883278,23.155310555973415,26.299894487267963,20
2360.0,66.83544303797468,67.41503981080606,60.50935054747613,63.8370295900972,23.57801022070886,26.905689263329933,20
2400.0,64.9354430379747,65.45945322233389,58.11061895604958,61.58951753486488,23.86993568746901,27.348834266284314,20
2500.0,65.33544303797467,65.68172267931823,57.93476297382507,61.52632069013778,24.155401989180447,27.746959705493154,20
2580.0,65.33544303797467,65.2748647505503,57.20236890882383,60.875172755460866,24.399691995089427,28.072495841726465,20
2650.0,65.03544303797466,64.69945463114647,56.456625942358514,60.12363847756605,24.57581615358042,28.242828688787952,20
