Freq "Early Reflections"
22.4 21.819220225544086
23.0 21.817588535508094
23.6 22.01596604353557
24.0 23.54685353492664
25.0 24.97646656232041
25.8 26.123525973263156
26.5 27.099406566365758
27.2 27.939765807090623
28.0 28.69800913527311
29.0 29.40634619548456
30.0 30.33443603408199
30.7 31.676795031983346
31.5 32.816921734694404
32.5 33.755047559007664
33.5 34.561248646963975
34.5 35.27709723219931
35.5 35.97721714409187
36.5 37.04792122327319
37.5 38.00969380657
38.7 38.83477310125332
40.0 39.55435988347608
41.2 40.20848727824156
42.5 41.04696539936302
43.7 41.915829683428
45.0 42.69133804470491
46.2 43.343401275812255
47.5 43.995372674908666
48.7 44.80141995773164
50.0 45.581628900223976
51.5 46.225044153442184
53.0 46.847715906731594
54.5 47.6196546031378
56.0 48.31575255301868
58.0 48.95500802984503
60.0 49.56105774222807
61.5 50.28495223056463
63.0 50.938827086990045
65.0 51.52642035182174
67.0 52.20461650499011
69.0 52.835906242628965
71.0 53.42815699713927
73.0 54.06500291292903
75.0 54.680603686972916
77.5 55.22250588345602
80.0 55.86706317475881
82.5 56.41753719844722
85.0 56.99700201053031
87.5 57.560091650565184
90.0 58.11381607183071
92.5 58.67235025030496
95.0 59.18297030499015
97.5 59.71000526842437
100.0 60.18005455467036
103.0 60.66969188090299
106.0 61.13059773342067
109.0 61.56344294802338
112.0 61.98964013118666
115.0 62.387216294308644
118.0 62.73420883796612
122.0 63.08395399021798
125.0 63.37781387557578
128.0 63.62231855011274
132.0 63.84952775203453
136.0 64.02325537722056
140.0 64.14731641180612
145.0 64.22661169939465
150.0 64.23969606667586
155.0 64.21987544870865
160.0 64.16017213297056
165.0 64.03674837487692
170.0 63.879570821433504
175.0 63.723794421495526
180.0 63.57453846058293
185.0 63.45506756695539
190.0 63.4304824369823
195.0 63.509283260884246
200.0 63.662869800077544
206.0 63.93787278378463
212.0 64.23310189289
218.0 64.5276505723069
224.0 64.79357872730766
230.0 64.9231103142389
236.0 64.97450907622303
240.0 64.8800785835291
250.0 64.6077254475689
258.0 64.21638058350757
265.0 63.735074600292734
272.0 63.19860993684949
280.0 62.70087330635155
290.0 62.35036857597672
300.0 62.198915759533946
307.0 62.223913278763945
315.0 62.321770292756
325.0 62.43912997124298
335.0 62.499935143349845
345.0 62.470626973085004
355.0 62.30255231741647
365.0 62.032930058964766
375.0 61.60789262680561
387.0 61.099608276733875
400.0 60.705934572680746
412.0 60.65202668190041
425.0 61.137537673886456
437.0 61.87956628951318
450.0 62.50423552174138
462.0 62.7605425171497
475.0 62.546766823102075
487.0 61.89076464313693
500.0 61.02638984333964
515.0 60.37440160371693
530.0 60.169519156728626
545.0 60.3194104508311
560.0 60.57552573517343
580.0 60.95830161132504
600.0 61.46136240022203
615.0 61.95040076047941
630.0 62.22543770622916
650.0 62.239107506535504
670.0 62.07128598804185
690.0 61.91625486019335
710.0 61.88332976898205
730.0 61.709238377636254
750.0 60.61892354753721
775.0 58.008844367618224
800.0 57.50253298179295
825.0 60.00352942898964
850.0 60.39028860146006
875.0 58.319851965506004
900.0 58.67212183808681
925.0 62.52859613782563
950.0 64.23640918259716
975.0 63.970885268102734
1000.0 62.42684281185291
1030.0 60.48662242716867
1060.0 60.47009414604082
1090.0 61.40022618954393
1120.0 61.170742244734186
1150.0 60.44639885521785
1180.0 59.777480660175925
1220.0 58.53326713535402
1250.0 58.10371281005992
1280.0 60.14675667066231
1320.0 62.125111229612614
1360.0 62.30593034354291
1400.0 63.205005767984375
1450.0 65.27525344389537
1500.0 66.39424549181804
1550.0 67.30247567555514
1600.0 67.87154541770747
1650.0 68.31794966755271
1700.0 68.50550606149645
1750.0 68.48818557790725
1800.0 67.95770519925631
1850.0 68.21150224696493
1900.0 67.7302938746376
1950.0 67.5359549686501
2000.0 66.683094479929
2060.0 67.18587313284148
2120.0 66.71331012148644
2180.0 66.59459569468183
2240.0 65.62074925209824
2300.0 65.761957883278
2360.0 63.8370295900972
2400.0 61.58951753486488
2500.0 61.52632069013778
2580.0 60.875172755460866
2650.0 60.12363847756605
2720.0 60.8583907602025
2800.0 60.97498007165481
2900.0 60.795951580512025
3000.0 60.46438867233023
3070.0 60.511632211026196
3150.0 60.268843262794064
3250.0 61.393839595244714
3350.0 61.22571341776727
3450.0 61.03534409669872
3550.0 60.68789833430354
3650.0 61.486599395791075
3750.0 61.67240347492796
3870.0 62.42600434962806
4000.0 62.479195113995445
4120.0 63.25895382002304
4250.0 62.923880300618436
4370.0 63.66322346083983
4500.0 63.14798940290419
4620.0 62.39806167154771
4750.0 60.97741205757515
4870.0 62.02688261661959
5000.0 61.86479002883138
5150.0 62.80932501273753
5300.0 61.65575845432886
5450.0 59.23072619240857
5600.0 63.025787494957115
5800.0 64.19430995528622
6000.0 63.39399913455915
6150.0 63.97735477165385
6300.0 64.89634711643373
6500.0 63.42039738502939
6700.0 62.821650920844476
6900.0 62.78719140008903
7100.0 62.439004103006056
7300.0 62.99809529243656
7500.0 62.46151628083118
7750.0 61.6356447125429
8000.0 61.630928090791045
8250.0 60.77928313114792
8500.0 62.03759811695656
8750.0 60.66196347593524
9000.0 63.681371725811175
9250.0 67.02140534208564
9500.0 64.85300310348362
9750.0 62.9654886438104
10000.0 63.6739165581393
10300.0 65.1838122887556
10600.0 65.90241033668293
10900.0 62.88398543655714
11200.0 65.4811560645294
11500.0 64.33927754210909
11800.0 61.07629707783619
12200.0 62.847576372298406
12500.0 62.16615099954673
12800.0 59.175095448216894
13200.0 54.004993158630114
13600.0 53.736016361916
14000.0 55.39980963620481
14500.0 56.776148161024395
15000.0 57.975915871484915
15500.0 60.07301847446307
16000.0 57.09135175517517
16500.0 55.991263649462496
17000.0 52.41394948913532
17500.0 51.1213520067637
18000.0 48.33519372531654
18500.0 43.580896007098616
19000.0 44.98670093056643
19500.0 45.702896960838615
