Freq "Listening Window"
22.4 24.064865422930012
23.0 24.05242307013168
23.6 24.25242307013167
24.0 25.75242307013167
25.0 27.163015486631565
25.8 28.31793026508325
26.5 29.283643799406235
27.2 30.11634622732504
28.0 30.873827953767147
29.0 31.595873027967826
30.0 32.472240728807805
30.7 33.82727536483864
31.5 34.927275364838664
32.5 35.860655701845474
33.5 36.660655701845485
34.5 37.37198322647396
35.5 38.07198322647395
36.5 39.1264764457822
37.5 40.060121122342025
38.7 40.89230070930026
40.0 41.592300709300275
41.2 42.204075363132375
42.5 43.04876257543262
43.7 43.89256908851475
45.0 44.681295199677635
46.2 45.304616885664714
47.5 45.927015182483856
48.7 46.73924595487506
50.0 47.5046168856647
51.5 48.15998720884694
53.0 48.75998720884692
54.5 49.52660171353487
56.0 50.21541593846635
58.0 50.826601713534885
60.0 51.426601713534865
61.5 52.15898920476235
63.0 52.81541593846633
65.0 53.41541593846635
67.0 54.05898920476234
69.0 54.72610467845311
71.0 55.32610467845312
73.0 55.94788664360958
75.0 56.55898920476234
77.5 57.113836788632526
80.0 57.780607269259264
82.5 58.31383678863254
85.0 58.93568021547043
87.5 59.47979971814344
90.0 60.05817762346646
92.5 60.6237184022586
95.0 61.13488284119944
97.5 61.68030208071265
100.0 62.16846270750857
103.0 62.66846270750857
106.0 63.16846270750855
109.0 63.56846270750857
112.0 64.01326683962867
115.0 64.4356206840857
118.0 64.81326683962865
122.0 65.15686156553042
125.0 65.45686156553042
128.0 65.72419779300913
132.0 65.9568615655304
136.0 66.12419779300915
140.0 66.2907853962292
145.0 66.35686156553042
150.0 66.3910477580943
155.0 66.3910477580943
160.0 66.32419779300913
165.0 66.2130058166541
170.0 66.05837672536981
175.0 65.91300581665409
180.0 65.7699738260637
185.0 65.6699738260637
190.0 65.62445814420117
195.0 65.71300581665409
200.0 65.89104775809429
206.0 66.15889934695255
212.0 66.45889934695255
218.0 66.75889934695256
224.0 67.04727259632452
230.0 67.18154004111531
236.0 67.25889934695255
240.0 67.18154004111531
250.0 66.93762776013772
258.0 66.58127710423244
265.0 66.12750536682391
272.0 65.66090170960878
280.0 65.19334386593704
290.0 64.89440509420648
300.0 64.78364379940624
307.0 64.87392927186487
315.0 64.96360426603732
325.0 65.11927295486441
335.0 65.17412965394618
345.0 65.1628077336751
355.0 64.98209117309347
365.0 64.70460564439672
375.0 64.26998063741735
387.0 63.780290513018485
400.0 63.40153498891124
412.0 63.412756527002784
425.0 63.95763083976429
437.0 64.81553921841098
450.0 65.54980404287099
462.0 65.91856476708531
475.0 65.80954282022788
487.0 65.28051737509728
500.0 64.55680744355661
515.0 64.01454884351784
530.0 63.910326605141165
545.0 64.08457141462466
560.0 64.33917340908064
580.0 64.72722742806039
600.0 65.27376197907692
615.0 65.8432378062688
630.0 66.28708631020942
650.0 66.48795948623601
670.0 66.48895467390747
690.0 66.4334478819184
710.0 66.41695649817433
730.0 66.08319312425613
750.0 64.71641978236062
775.0 61.94369671299367
800.0 61.6186551468672
825.0 64.36749467294767
850.0 64.51505605711199
875.0 61.5879290615557
900.0 61.67356047664563
925.0 66.0182931014534
950.0 68.18338285301522
975.0 68.16593817042494
1000.0 66.65971482650892
1030.0 64.78251227526182
1060.0 65.12692369374247
1090.0 66.66567051216992
1120.0 66.94235029407274
1150.0 66.66267037326034
1180.0 66.3889043900302
1220.0 65.1835237155891
1250.0 64.12980516676578
1280.0 65.42483431439251
1320.0 66.81868646775642
1360.0 66.32274512370749
1400.0 66.65702528903867
1450.0 68.69804209023876
1500.0 69.90773958564854
1550.0 70.73352284268708
1600.0 71.38166030841225
1650.0 71.87139405121961
1700.0 72.17069466447514
1750.0 72.26013465162687
1800.0 71.82008225318921
1850.0 72.19702528477609
1900.0 71.96861663627602
1950.0 71.99586597596718
2000.0 71.50562095501196
2060.0 72.19816569492686
2120.0 72.0483326543991
2180.0 72.19154755372972
2240.0 70.60806649379197
2300.0 70.48182540127672
2360.0 68.97959677283137
2400.0 67.02401018435923
2500.0 67.24627964134356
2580.0 66.83942171257561
2650.0 66.26401159317177
2720.0 67.21475095162769
2800.0 67.26632983192042
2900.0 67.33019850706974
3000.0 67.01290188288274
3070.0 67.20079680378896
3150.0 66.89347073400778
3250.0 68.39522941116064
3350.0 68.01311381543883
3450.0 67.7362837681678
3550.0 67.01878571699298
3650.0 68.14520524852662
3750.0 68.03546935835774
3870.0 68.51101211944464
4000.0 68.44823948079775
4120.0 69.15002464529552
4250.0 68.93040093727475
4370.0 69.51213998710992
4500.0 69.30217064284138
4620.0 68.54053548994436
4750.0 67.5647274095202
4870.0 68.65114021149833
5000.0 68.35851585775225
5150.0 69.18615062104543
5300.0 68.06324304357751
5450.0 65.66790245923677
5600.0 69.52779427811569
5800.0 70.80494072046535
6000.0 69.90845245314539
6150.0 70.43119509669498
6300.0 71.34302600470497
6500.0 69.83609289394539
6700.0 69.14690871455662
6900.0 69.29230581404157
7100.0 68.93495092624322
7300.0 69.41682319769835
7500.0 68.90588202369997
7750.0 68.28544183087452
8000.0 68.28528624986028
8250.0 67.1670038257543
8500.0 68.50353565986154
8750.0 67.49054881603253
9000.0 70.8489519064132
9250.0 73.53232062462085
9500.0 70.7566984517542
9750.0 68.74240287186063
10000.0 69.4558872795654
10300.0 70.44529168869666
10600.0 70.20046060196152
10900.0 66.68092526839807
11200.0 68.52764680669928
11500.0 68.31913686562513
11800.0 66.33905750659743
12200.0 67.63429222882561
12500.0 66.22356038885827
12800.0 61.144152470936845
13200.0 55.37760426822848
13600.0 56.348281062609374
14000.0 58.9597356383468
14500.0 61.5403984669442
15000.0 63.24282266269962
15500.0 63.2695522254368
16000.0 59.10920344467604
16500.0 58.48905725358145
17000.0 56.109752637695465
17500.0 52.87036052652189
18000.0 48.40980644045588
18500.0 42.87257196387692
19000.0 46.11449542056869
19500.0 49.66736439753447
