Freq "Sound Power"
22.4 21.40751587321509
23.0 21.399116986414043
23.6 21.605332757875857
24.0 23.14060166939987
25.0 24.565998642255806
25.8 25.71142514127888
26.5 26.683652744058747
27.2 27.539115031195195
28.0 28.303671391091314
29.0 29.007707029694927
30.0 29.925237940432908
30.7 31.273895106267787
31.5 32.4134906676442
32.5 33.354468693321536
33.5 34.161141654112015
34.5 34.880259627325245
35.5 35.58534878925357
36.5 36.65359265104996
37.5 37.63162127343463
38.7 38.45000330663623
40.0 39.18737144692378
41.2 39.84573220209734
42.5 40.70135804798292
43.7 41.56637181709789
45.0 42.340431670871766
46.2 43.0082866083211
47.5 43.6623405999014
48.7 44.476208863732325
50.0 45.26300909338029
51.5 45.92669713064673
53.0 46.54528759232892
54.5 47.320520255194
56.0 48.03440633322438
58.0 48.675685958724216
60.0 49.29882109769491
61.5 50.02432558601282
63.0 50.67420070517311
65.0 51.26543076206252
67.0 51.949813375111574
69.0 52.58708589784396
71.0 53.17480516208654
73.0 53.819533900983814
75.0 54.4333923089407
77.5 54.98727223290524
80.0 55.6185323854299
82.5 56.17024478555089
85.0 56.752540627412856
87.5 57.30601444964199
90.0 57.85225937601952
92.5 58.40015922681384
95.0 58.912376781150826
97.5 59.42348062374033
100.0 59.89094405733634
103.0 60.37901446575745
106.0 60.82833467834058
109.0 61.259153918471824
112.0 61.67317518803041
115.0 62.0545149381323
118.0 62.41526698517555
122.0 62.736577284591064
125.0 63.01234893228158
128.0 63.25651436075988
132.0 63.472166840678526
136.0 63.63535640355333
140.0 63.75087607908377
145.0 63.82435277087376
150.0 63.82731867964931
155.0 63.80015429204498
160.0 63.724758065908105
165.0 63.586894313084656
170.0 63.429870686362776
175.0 63.267052865972204
180.0 63.105721192387634
185.0 62.990286523234744
190.0 62.95874166596876
195.0 63.03512678713324
200.0 63.18788804593575
206.0 63.45288858494453
212.0 63.73854286002614
218.0 64.03127534573521
224.0 64.29169342972075
230.0 64.42628840674793
236.0 64.45713695992121
240.0 64.3340166722341
250.0 64.04552400667774
258.0 63.629235312546086
265.0 63.08908913616578
272.0 62.485547031218516
280.0 61.91960691721583
290.0 61.48363683663885
300.0 61.230933728418435
307.0 61.15793629339845
315.0 61.1544622954045
325.0 61.20604226025584
335.0 61.20400898261745
345.0 61.14088202331746
355.0 60.966901879632644
365.0 60.691234226916805
375.0 60.27330032230083
387.0 59.79038488641096
400.0 59.393481791067686
412.0 59.33750818994761
425.0 59.779469113732105
437.0 60.475429655653215
450.0 61.04503451826665
462.0 61.24234510521542
475.0 60.96463511512394
487.0 60.227572410317435
500.0 59.27466059397172
515.0 58.49739981829062
530.0 58.18864612396655
545.0 58.23483263399176
560.0 58.45089080301506
580.0 58.827386046137605
600.0 59.33312488965855
615.0 59.811251781002596
630.0 60.0350888491716
650.0 59.96099832731177
670.0 59.70185596687615
690.0 59.4704833188393
710.0 59.406466208520456
730.0 59.24513475520973
750.0 58.19569789525228
775.0 55.591318025999456
800.0 55.05265805475622
825.0 57.64380707950792
850.0 58.33634744270712
875.0 56.4742211417916
900.0 56.658682673971114
925.0 60.21822304745103
950.0 61.691473429735055
975.0 61.2491208932381
1000.0 59.560448752959985
1030.0 57.56624011909432
1060.0 57.67244805159204
1090.0 58.72452974377347
1120.0 58.43160513084614
1150.0 57.56380883646564
1180.0 56.91543042073624
1220.0 55.99329153256525
1250.0 55.798913156251686
1280.0 57.72108098692948
1320.0 59.45004698065799
1360.0 59.27240068809104
1400.0 59.92658751738148
1450.0 62.06037720826991
1500.0 63.24712508919875
1550.0 64.02474967626367
1600.0 64.34495661932327
1650.0 64.599314299009
1700.0 64.81158213583754
1750.0 64.88743135941252
1800.0 64.37572023249066
1850.0 64.64936121698052
1900.0 64.32055482516793
1950.0 64.21971074282318
2000.0 63.28072663651426
2060.0 63.943464939463354
2120.0 63.615592772841396
2180.0 63.339165762885656
2240.0 62.443629782398176
2300.0 62.61737395198345
2360.0 60.50935054747613
2400.0 58.11061895604958
2500.0 57.93476297382507
2580.0 57.20236890882383
2650.0 56.456625942358514
2720.0 56.89450018330656
2800.0 56.83590911511888
2900.0 56.37825868570198
3000.0 55.91272548036578
3070.0 56.12387178493712
3150.0 55.76642526314268
3250.0 57.21741486807382
3350.0 57.36167353835512
3450.0 57.51920993885895
3550.0 57.25615143780816
3650.0 57.80227157582493
3750.0 57.72736411253349
3870.0 58.32940885336642
4000.0 58.40512365561483
4120.0 58.94219556066925
4250.0 58.429882242924975
4370.0 59.13626836696062
4500.0 58.59404363807033
4620.0 57.86202306764092
4750.0 56.517464328382815
4870.0 57.606275913889476
5000.0 57.62898063850673
5150.0 58.8104750128072
5300.0 57.68715861755355
5450.0 55.10164506724092
5600.0 58.88449200130299
5800.0 60.05258112918216
6000.0 59.24383193463186
6150.0 59.86583890682485
6300.0 60.80460474648088
6500.0 59.40676873236632
6700.0 58.90600046290743
6900.0 58.68044023391269
7100.0 58.18403605503954
7300.0 58.71401842382275
7500.0 57.99570879708769
7750.0 57.263959127649244
8000.0 57.4020310575026
8250.0 56.52916487544249
8500.0 57.57042356376502
8750.0 56.30174505280792
9000.0 59.375295714108034
9250.0 62.49439764840446
9500.0 60.361833449734874
9750.0 58.62045581159644
10000.0 59.45544335859191
10300.0 60.96859175634063
10600.0 61.45671099220385
10900.0 58.57273080975938
11200.0 61.23375930343657
11500.0 60.298766728732105
11800.0 57.1756988716748
12200.0 59.03938066320109
12500.0 58.40938321710354
12800.0 55.20384734233241
13200.0 49.66505621196143
13600.0 49.85091891609507
14000.0 51.245955117740436
14500.0 52.154213738137486
15000.0 53.53359899529487
15500.0 56.57759802690899
16000.0 53.683203946288984
16500.0 52.20140926400808
17000.0 47.815101069278484
17500.0 48.218893646549944
18000.0 44.789599548976355
18500.0 38.962351657075914
19000.0 40.3099663974499
19500.0 40.77973023623099
