Freq,Floor Bounce,Ceiling Bounce,Front Wall Bounce,Side Wall Bounce,Rear Wall Bounce,Total Early Reflection
22.4,79.69312786887124,42.828756376651626,53.85620580332602,46.21520831679018,50.65872978054301,72.72297830019363
23.0,79.89312786887125,41.74709921144972,53.771643239114184,45.72248100570741,50.649046837218464,72.92149477991168
23.6,80.09312786887126,40.72647614916352,53.65944296844401,45.33796105142869,50.68609528350194,73.12020142142073
24.0,80.29312786887124,39.71805928741307,53.547494312058234,44.98989424761274,50.691177101863644,73.31900881987202
25.0,80.4576179369833,38.95139265983573,53.412407550975956,44.65562815082737,50.80399947870575,73.48262087105056
25.8,80.59312786887125,38.28188613593528,53.27940497171315,44.46575151371414,50.868995287192234,73.61740892609161
26.5,80.75761793698328,37.85081528908938,53.14837727641884,44.24696488964045,50.94823002965674,73.78115888820382
27.2,80.89312786887126,38.101235726266395,52.90989770091653,44.05701753215956,51.04157702685566,73.91594167648326
28.0,80.99312786887124,39.43370960332717,52.501552327587575,44.05183522113663,51.14583511183392,74.01523820841403
29.0,81.14050140145677,42.43314187104866,52.004121110105984,44.883818783223546,51.43474977157996,74.16234495831999
30.0,81.24050140145677,44.93186494426746,51.757091229997286,46.15778283447449,51.76615672752641,74.26294113672384
30.7,81.34050140145679,46.85356791445054,51.84352079249945,47.5839045109754,52.18641926506368,74.3643076570225
31.5,81.44050140145679,48.6555042702812,52.18892700618969,49.07639920120576,52.68355967066853,74.46652170472888
32.5,81.54050140145677,50.7268113883801,53.127133672126604,50.99860472831273,53.434536890038316,74.57116334371725
33.5,81.60455675702813,52.884933415315004,54.67566992963839,53.11062612861542,54.46286543621213,74.64392993112344
34.5,81.64050140145679,54.32926676879421,55.947510405288085,54.579773417415964,55.259450093727054,74.6889450809248
35.5,81.64050140145679,55.75260953202218,57.38387651163387,56.03732875930507,56.16606054022421,74.7022522238656
36.5,81.69312786887124,57.242830304719746,58.97655289940042,57.59474414939774,57.2286551365618,74.77410862501422
37.5,81.69312786887124,58.57001488257475,60.40121627446405,58.90984026374562,58.25192531867765,74.79833937587688
38.7,81.69312786887124,59.80231994589775,61.65628853013703,60.15201094906817,59.22723707485315,74.82786120801046
40.0,81.62916683784601,60.967695213052934,62.881642407546195,61.330939770042164,60.21577054603978,74.80348347804004
41.2,81.5819300013409,62.100767494455596,64.0225149636949,62.42574001143356,61.19314115821351,74.80452969961615
42.5,81.57095906309065,63.20076749445562,65.04865957364794,63.462890450062304,62.156495254711274,74.84957017261411
43.7,81.37095906309065,64.56692185116049,66.34865957364795,64.78209141193506,63.38325728274674,74.7561694667834
45.0,81.26021101193608,65.79999999999998,67.61998423401442,66.02048569155912,64.59200910199436,74.77490259981909
46.2,81.13936765015181,66.9,68.61998423401442,67.09983077918483,65.58473507951706,74.79776916590737
47.5,80.88324786563174,68.20000000000002,69.87525122642455,68.39834978331822,66.81629988819458,74.78846295943535
48.7,80.51869877934085,69.7669218511605,71.34675150375355,69.91957448032306,68.29352182965232,74.83919034040636
50.0,80.19149834886483,70.93435140868502,72.44675150375355,71.09891522347635,69.4270304825553,74.9448252876463
51.5,79.56286727264083,72.4669218511605,73.91739302852534,72.65532836349671,70.93853026275586,75.14709029564719
53.0,78.56435116421898,74.10076749445562,75.4739725389237,74.2735085121021,72.57472917962124,75.50649751170783
54.5,77.3528581954999,75.46845083805431,76.7739725389237,75.65214086596889,73.99774901119926,75.9991477566627
56.0,76.23902905187782,76.56845083805433,77.77397253892372,76.69252803247764,75.08939021518017,76.5573502690096
58.0,74.26704250415027,77.93663575667186,79.14479812098769,78.13115754388926,76.56772643818746,77.50385339033518
60.0,72.79096022540008,79.33663575667187,80.50165212437172,79.56806684659543,78.10649396619326,78.71910608412072
61.5,74.35648313414828,80.40306957104252,81.50165212437172,80.64986385633657,79.25632677207985,79.81096989519655
63.0,76.26194729184085,81.03821129888743,82.17266367710968,81.32934852351543,79.97698788130802,80.56516680773981
65.0,78.53257218046556,81.70690501035459,82.82979499755905,82.02934852351544,80.70811402870493,81.39000163958417
67.0,80.77928732607432,82.40690501035459,83.57331062323637,82.71140111290818,81.46917016868639,82.29603533446998
69.0,82.4778308059457,83.10690501035458,84.18850980857525,83.31140111290816,82.00644018382057,83.08280793922414
71.0,84.24136150423585,83.90690501035459,85.01739302852533,84.07680320017617,82.71337323365375,84.05296951509418
73.0,85.44283030471976,84.64283030471974,85.68850980857525,84.77680320017618,83.33495854338672,84.85124603467297
75.0,86.61227178315617,85.37609175449222,86.34479812098769,85.53441685017131,84.0678584064365,85.67496436085506
77.5,87.98219967332305,86.27609175449221,87.2447981209877,86.53441685017133,85.03817843086395,86.72489577524621
80.0,89.61592692226706,87.4760917544922,88.40099441428072,87.75444294255581,86.328316518294,88.05126468381255
82.5,91.08656646311246,88.57609175449221,89.4726636771097,88.89117509502738,87.5246236315172,89.27431809108066
85.0,91.9234968506598,89.27609175449223,90.14479812098769,89.57131805304421,88.2814207242405,90.01456065839584
87.5,92.75768127821954,89.87609175449221,90.7447981209877,90.19117509502739,88.9597122641573,90.70254549090187
90.0,93.55768127821953,90.57609175449221,91.34479812098769,90.80920611180409,89.69436037489501,91.40527659054212
92.5,94.15768127821953,91.04283030471974,91.84479812098769,91.20920611180408,90.18343601360056,91.91429555323245
95.0,94.59238562216105,91.37609175449221,92.16009724486703,91.50920611180409,90.54728057975261,92.27682580549254
97.5,94.95768127821954,91.6760917544922,92.44848694339564,91.6713180530442,90.84793484688879,92.57433414345404
100.0,95.02104166298749,91.71227178315618,92.52046532703957,91.67464101495956,90.90273393187728,92.62410709003495
103.0,94.95768127821954,91.6760917544922,92.52046532703957,91.6568801862013,90.91805061349503,92.59554157803822
106.0,94.95017075212571,91.61227178315617,92.54848694339563,91.62070188121241,90.94381144576221,92.58592524008574
109.0,94.85017075212572,91.61227178315617,92.54848694339563,91.54222438693196,90.90438413613984,92.53370223568169
112.0,94.75017075212571,91.4489851487955,92.49353504913479,91.46516840337088,90.8244171875289,92.43904440315814
115.0,94.55017075212572,91.24898514879551,92.44848694339564,91.24817140149625,90.6611250532728,92.27322999743738
118.0,94.34415774934853,91.01916705502754,92.2935350491348,91.02043663028579,90.37595079528377,92.05990965864967
122.0,94.04415774934851,90.6566725593005,92.17763667454645,90.69092537618934,89.92931695629743,91.76563275507309
125.0,93.74415774934852,90.26588846059687,91.95105966851945,90.28932256876641,89.3869881049609,91.42120383239279
128.0,93.37449351030438,89.80963256681619,91.72305470064504,89.86781203523978,88.73092415712617,91.02822777210524
132.0,92.93964531976,89.34898359150841,91.52492954673289,89.49130985335836,87.98673493534119,90.62031864885616
136.0,92.6053180676647,88.89506458035831,91.38086845464632,89.19772752574556,87.16106920132735,90.27191800491417
140.0,92.23663575667186,88.57641629732152,91.2652871599955,88.98308817160245,86.24404560605947,89.95173637904702
145.0,91.87071732495409,88.35062128010364,91.15000634017072,88.79441306229307,85.30695797320722,89.65914120938712
150.0,91.50228461396019,88.292378988098,90.97848478147017,88.69441306229308,84.38687665555561,89.40101070843133
155.0,91.1022846139602,88.32526453928848,90.77848478147017,88.57054643404955,83.58726096158367,89.15213331858673
160.0,90.93663575667186,88.45062128010363,90.67848478147017,88.48463808338924,83.05188744637806,89.04942078576829
165.0,90.9053180676647,88.73546263134682,90.70489499373622,88.64751170738178,82.87801630114551,89.11880836232383
170.0,91.10531806766471,89.09506458035828,90.87525122642455,88.96511489611382,83.12654627808865,89.36354082607869
175.0,91.5053180676647,89.52179738688895,91.27525122642457,89.49607828419951,83.75925112679778,89.80402535745549
180.0,91.96845083805432,89.92179738688895,91.77525122642457,90.0941049676779,84.65645244028599,90.31377584481089
185.0,92.30076749445563,90.32179738688895,92.23278882757177,90.68418758905331,85.60759687414274,90.77873499302795
190.0,92.43358982687998,90.68219812790055,92.54848694339563,91.0705775918328,86.4219028472252,91.09774479444756
195.0,92.30306957104251,90.92179738688895,92.66449218932271,91.24052714270637,86.99348034833832,91.21486280057984
200.0,91.90690501035459,90.98219812790056,92.58080941118425,91.19147205224289,87.31145210924396,91.1199165728957
206.0,91.37928732607432,90.90963256681621,92.3709877822289,90.89147205224288,87.34833671148195,90.86640618421534
212.0,90.78623512455238,90.70963256681621,92.0999873807021,90.47336710275492,87.16059238156863,90.51769543429732
218.0,90.22402487026022,90.4096325668162,91.91162431850864,90.02669501426713,86.80442453085354,90.16205845460466
224.0,89.75380974359446,89.90963256681619,91.79366590096782,89.71291440077744,86.30591830224432,89.82166872866925
230.0,89.3840783937255,89.34898359150841,91.83925847878706,89.47710642408279,85.63518755480145,89.55059258120426
236.0,89.20934661896388,88.86194867563766,91.97187541720464,89.50254443783369,84.92175232995527,89.42508925664347
240.0,89.1054240073266,88.55062128010364,92.19098577944874,89.68832234879008,84.27463351078006,89.4295722756964
250.0,89.27001488257477,88.3672655885961,92.42635439407024,89.87550352616175,83.84854391133919,89.53722630415781
258.0,89.50542400732661,88.48538710465897,92.68822691290593,90.11541918620564,83.61519079948664,89.74216900155281
265.0,89.6778308059457,88.76136837622764,92.8226274879859,90.21541918620564,83.51951708189041,89.886935936627
272.0,89.79188145404554,89.06136837622765,92.85918843861872,90.14743308705646,83.49578479328447,89.95515334311996
280.0,89.7523764150643,89.48538710465897,92.91149769117393,90.10414901088993,83.57071018187118,90.03431775516508
290.0,89.60724699916733,89.94258273663014,92.9136552205943,90.02783218957028,83.76458574162147,90.08663990032696
300.0,89.39215915969808,90.60034112939826,93.042705578128,90.11688368394078,84.02603924383308,90.26336594777707
307.0,89.23546091849047,91.36726558859611,93.31399076850363,90.31688368394077,84.48926441707357,90.57688778315656
315.0,89.18888377963458,92.22526453928849,93.62803746687196,90.56937424959432,84.94206736006299,90.973777559086
325.0,89.38910480561006,93.12526453928848,94.07430496796474,90.85177059280181,85.31702312507214,91.48264541828729
335.0,89.82909084157254,93.92526453928849,94.4039559049176,90.97371209932268,85.28781473209466,91.91808755838706
345.0,90.64283030471974,94.58382334167594,94.61119947007664,90.89240190627704,84.89188642428827,92.2844610418692
355.0,91.63663575667186,95.08382334167595,94.61387927014442,90.54164491548582,84.19476368707014,92.53841449506841
365.0,92.63513059177984,95.35866027600835,94.41940929013491,90.1324756725436,83.45928523560552,92.68967270977876
375.0,93.66769521305294,95.48382334167596,94.19343859806335,89.74861554577771,82.95376702530137,92.84623312895607
387.0,94.6,95.58382334167595,94.08076138457223,89.41633325731708,82.77683314745707,93.06387510942395
400.0,95.53435140868501,95.62526453928848,94.17122699521555,89.2315779936127,82.87521788070936,93.37374657889711
412.0,96.34044167945493,95.60034112939826,94.49311893233612,89.04726811741358,82.99582110513363,93.71180425776711
425.0,97.01592692226706,95.37584607527145,94.75986963702978,88.84823241688406,82.80736798271593,93.95449326949316
437.0,97.23257218046558,94.71832544184971,94.67427862387387,88.57449954325516,82.24952396770935,93.82849174290203
450.0,96.8552196930838,93.5944886893229,94.24442441667941,88.1686912901596,81.21620361991232,93.25560240651362
462.0,95.94293979360191,91.99448868932288,93.38699295935444,87.74553022545447,80.02689556664947,92.24734032014541
475.0,94.65866027600833,89.8944886893229,92.49021770269654,87.23652447910519,78.91345408386519,90.99033346976256
487.0,93.35177437534742,87.70962251076206,91.68419957184392,86.8030272268918,78.07338899560034,89.79605170209557
500.0,92.2361070797735,85.49257011413609,91.18364755793118,86.42832541628326,77.62707820273143,88.85160717824284
515.0,91.30921140720403,83.48239860760773,91.03842054300756,86.25581201061625,77.52509549182965,88.22655346718179
530.0,90.54577223479653,81.81916705502752,91.114672417413,86.19238821614472,77.66384234058448,87.85767720830826
545.0,90.0412305303684,80.68915630129642,91.35951159274236,86.3008289200269,77.90194469587323,87.75633561774715
560.0,89.59533257014982,80.0705443089483,91.66142639654585,86.54900466372078,78.14288959376006,87.77522036715627
580.0,89.31172975410158,80.15226263077501,91.9457750666374,86.7647049315196,78.25179463780286,87.8729803461458
600.0,89.06882143514854,80.84019355535908,92.14577506663738,86.80351571974717,78.03890839858617,87.93795424360619
615.0,88.97657938317681,82.00076244127189,92.30568417516392,86.58870464376182,77.46725690840759,88.00820657719696
630.0,89.10095746985175,83.50284429324418,92.32399441343809,86.20952745673137,76.6645941435244,88.07380689929315
650.0,89.43090041982178,85.1555042702812,92.28317516021497,85.84993338104395,75.94739284336369,88.22237802711038
670.0,90.08354649534125,86.85411829185205,92.32914789453235,85.81401455725455,75.72762785113525,88.6124087154488
690.0,90.84812097851898,88.31007799780292,92.48820046338577,86.17966688805829,76.00554504942677,89.16090766002374
710.0,91.6908297035973,89.42761355743555,92.80862113746653,86.85197345015808,76.78936410651609,89.81718321178866
730.0,92.24302103107541,90.12699787697726,93.22941854274865,87.55063827751361,77.73782595719157,90.36438475104849
750.0,92.5392575253357,90.3708338338135,93.50862113746652,87.96630447260311,78.4245322547917,90.6613140101877
775.0,92.49040221489247,90.17825745704101,93.58820046338576,88.02028641090628,78.67335469367681,90.65093552567467
800.0,92.33012177221653,89.6903788404772,93.42910191492605,87.78420782525093,78.45099749562942,90.42504325658473
825.0,92.01638770313008,89.05905592381313,93.19064436625223,87.38148480222988,77.96764837990067,90.0780911987371
850.0,91.48161208533422,88.18067853625087,92.87330292929262,86.89049704150653,77.24678646853484,89.58466677195369
875.0,90.692378988098,87.19723594431542,92.56873793965273,86.36873251178343,76.3010644737015,89.00914489150693
900.0,89.59723682439923,86.29689984743689,92.33903521587384,85.90308987571538,75.40308674186562,88.42022652356113
925.0,88.27377663616933,85.73209919948374,92.17930487147197,85.5130641564141,74.53910288727234,87.89908129991709
950.0,86.99192787953052,85.70432912249856,92.16723217737282,85.41608394541034,73.969737669673,87.62264691574464
975.0,85.94942636664186,86.2625132206552,92.2100477929426,85.37649655641778,73.59814546921942,87.55509994672883
1000.0,85.42165173158813,86.9625132206552,92.16758545395501,85.3909761218133,73.45091708293585,87.57509701612533
1030.0,85.5543335710674,87.64197022557482,92.02093228243581,85.32445992020888,73.4503613644913,87.62790985661564
1060.0,86.15721290186293,88.19727311966743,91.8298842174998,85.22793815434562,73.34659733155489,87.71139253757657
1090.0,86.97814603037486,88.47301209244411,91.92678906915313,85.5026945271975,73.62896016936254,87.97783553416005
1120.0,87.87617418613407,88.4328809265652,92.1341756684839,85.91965679554191,74.11690446505352,88.27569236761559
1150.0,88.53088317154634,88.18397949702585,92.66544923908417,86.5183682058142,74.87164647273515,88.68981551332016
1180.0,88.71153589924147,87.43937186872665,93.31684629263415,87.16031540301263,75.78570476955831,89.03309964062396
1220.0,88.57093249231426,86.22657098507088,93.78074727409367,87.46646678179965,76.26326008091101,89.16724229953466
1250.0,88.15243652821502,84.62140017381348,94.08885961523953,87.48544197527062,76.2448831872485,89.1484170631498
1280.0,87.45119501300417,83.17912566073852,94.01766771568673,87.01490112591507,75.67781856125156,88.83773265929149
1320.0,86.83031973423253,82.11153589924146,93.53750218258122,86.16533726792879,74.53790875086904,88.25389586801205
1360.0,86.2189585316929,81.65086653771837,92.89626296298914,85.22350355256734,73.29282255084854,87.5851523144905
1400.0,85.71895853169292,81.72997587926382,92.05685877015273,84.29722465046922,72.00609461575173,86.83538367916003
1450.0,85.5545103139124,81.90258201738351,91.39017935395462,83.60870069861852,71.01244736020226,86.30164689634091
1500.0,85.63907858744406,81.84206794355481,90.93416418708972,83.30439623122338,70.46078602611153,85.98638691385786
1550.0,85.82673328105513,81.46345350228151,90.66865970764248,83.2269368226398,70.01469525247194,85.81908706476283
1600.0,86.04412887807499,80.67149632823799,90.7455457676933,83.31447675825022,69.86288744608825,85.86672203827825
1650.0,86.13966428643985,79.93885478274063,90.90352002985205,83.43954950314918,69.89289712122829,85.95831223776045
1700.0,86.06597401860917,79.29882313929859,91.04329663334434,83.5997823153997,69.73348667719057,86.01910298772995
1750.0,85.99736051976008,78.83841347846598,91.24078192033114,83.6745485872517,69.62181057232837,86.12213620051803
1800.0,85.52672208916906,78.52933043421359,91.33375885426251,83.68764367853575,69.31968668120271,86.08541884938283
1850.0,85.0137899675559,78.25218761292408,91.31656811586105,83.5186317443196,68.74135727939435,85.95615056179628
1900.0,84.24583147157398,77.97269145322595,91.22408443289343,83.21578532433362,68.03136104426443,85.72906622621424
1950.0,83.37001488257476,77.8210416629875,91.07928432097253,82.66311681129982,67.24611304135485,85.44037481443318
2000.0,82.88098490550679,77.61007799780292,90.78093929731281,81.76466913936876,66.17048672123599,85.05985176981059
2060.0,82.72247649965568,77.41916705502754,90.33541553523074,80.49449558265809,64.73846292978396,84.58698945575868
2120.0,82.98368325669531,77.38656646311247,89.76745434158471,78.9737738113937,63.26259866745329,84.09087129495965
2180.0,83.41317125706968,77.63647412390416,89.1305086185063,77.43123084958155,61.835509581673534,83.62824389948635
2240.0,83.94746976708663,78.34314683892157,88.53820081422197,76.29486088700942,61.03983781055041,83.32248714470168
2300.0,84.76423540208854,79.52326477625992,88.04919772600839,75.92240503742033,61.196110980348294,83.29475431059745
2360.0,85.51657454846321,80.9987463754729,87.90956977035981,76.15703003237077,62.031117361793775,83.5902085729461
2400.0,86.05080615918105,82.63546263134683,88.12358143947931,76.91674722202514,63.3024571239047,84.10517319747066
2500.0,86.15934271306732,84.13752777300027,88.76899189482725,77.81039732600006,64.6532124765404,84.73853515742769
2580.0,85.7412772730039,85.39393259456332,89.5924887277408,78.32095274803847,65.4604180300968,85.32301286436241
2650.0,85.28554142467918,86.31595200332335,90.15387482154503,78.33369117451603,65.60917846317497,85.73731590911933
2720.0,85.02867294051362,86.65522280896298,90.30076728130882,78.12015535833304,65.49659216058748,85.84643177136165
2800.0,85.15949678590117,86.5927276533821,89.89064667385865,77.84005857914843,65.2489702427875,85.61978324541022
2900.0,85.54179512101427,86.15905592381314,89.30920877128756,78.07801992833777,65.36059522005888,85.29384776187709
3000.0,85.76304766852371,85.22294362715996,88.85915717788698,78.80765778680086,65.84148180402639,84.93782655368037
3070.0,85.9024182664754,84.16688340325045,88.67308802377582,79.35275754444729,66.15949516581722,84.70500280725614
3150.0,85.78576162791491,83.20879341872708,88.5219962036587,79.53098688564855,66.17710848901737,84.45214441158981
3250.0,85.60488297686828,82.7092030381973,88.35280382193179,79.2704596284694,65.8540810007969,84.22534005963823
3350.0,85.39985839331695,82.67369832718529,88.16256787910933,78.99701070315007,65.40430819991883,84.04725057283733
