Freq,Floor Bounce,Ceiling Bounce,Front Wall Bounce,Side Wall Bounce,Rear Wall Bounce,Total Early Reflection
22.4,79.60452027393453,42.74014878171491,53.7675982083893,46.126600721853464,50.570122185606294,72.6343707052569
23.0,79.80452027393453,41.658491616513004,53.683035644177465,45.63387341077069,50.560439242281745,72.83288718497496
23.6,80.00452027393455,40.6378685542268,53.57083537350729,45.249353456491974,50.597487688565224,73.03159382648401
24.0,80.20452027393452,39.62945169247635,53.458886717121516,44.90128665267602,50.602569506926926,73.2304012249353
25.0,80.36901034204658,38.862785064899015,53.32379995603924,44.56702055589065,50.71539188376903,73.39401327611384
25.8,80.50452027393453,38.19327854099856,53.19079737677643,44.37714391877742,50.780387692255516,73.5288013311549
26.5,80.66901034204656,37.762207694152664,53.05976968148212,44.158357294703734,50.85962243472002,73.6925512932671
27.2,80.80452027393454,38.01262813132968,52.82129010597981,43.968409937222845,50.952969431918945,73.82733408154654
28.0,80.90452027393452,39.345102008390455,52.41294473265086,43.96322762619991,51.0572275168972,73.92663061347731
29.0,81.05189380652006,42.34453427611194,51.915513515169266,44.79521118828683,51.34614217664324,74.07373736338327
30.0,81.15189380652005,44.84325734933074,51.66848363506057,46.06917523953777,51.67754913258969,74.17433354178712
30.7,81.25189380652006,46.76496031951382,51.75491319756273,47.49529691603868,52.09781167012696,74.27570006208576
31.5,81.35189380652007,48.56689667534448,52.10031941125297,48.98779160626904,52.59495207573181,74.37791410979216
32.5,81.45189380652006,50.63820379344338,53.038526077189886,50.90999713337601,53.3459292951016,74.48255574878053
33.5,81.51594916209142,52.796325820378286,54.58706233470167,53.022018533678704,54.37425784127541,74.55532233618672
34.5,81.55189380652007,54.240659173857495,55.85890281035137,54.491165822479246,55.170842498790336,74.60033748598808
35.5,81.55189380652007,55.66400193708546,57.295268916697154,55.94872116436835,56.07745294528749,74.61364462892888
36.5,81.60452027393453,57.15422270978303,58.8879453044637,57.50613655446102,57.14004754162508,74.6855010300775
37.5,81.60452027393453,58.481407287638035,60.31260867952733,58.821232668808904,58.16331772374093,74.70973178094016
38.7,81.60452027393453,59.71371235096103,61.567680935200315,60.06340335413145,59.13862947991643,74.73925361307374
40.0,81.5405592429093,60.879087618116216,62.79303481260948,61.242332175105446,60.12716295110306,74.71487588310332
41.2,81.49332240640418,62.01215989951888,63.933907368758184,62.33713241649684,61.10453356327679,74.71592210467944
42.5,81.48235146815394,63.1121598995189,64.96005197871122,63.374282855125585,62.067887659774556,74.76096257767739
43.7,81.28235146815393,64.47831425622377,66.26005197871123,64.69348381699834,63.29464968781002,74.66756187184669
45.0,81.17160341699936,65.71139240506326,67.5313766390777,65.9318780966224,64.50340150705765,74.68629500488237
46.2,81.0507600552151,66.81139240506329,68.5313766390777,67.01122318424811,65.49612748458034,74.70916157097065
47.5,80.79464027069503,68.1113924050633,69.78664363148783,68.3097421883815,66.72769229325786,74.69985536449863
48.7,80.43009118440413,69.67831425622379,71.2581439088168,69.83096688538635,68.2049142347156,74.75058274546964
50.0,80.10289075392811,70.8457438137483,72.35814390881683,71.0103076285396,69.33842288761858,74.85621769270958
51.5,79.47425967770411,72.37831425622379,73.82878543358862,72.56672076855999,70.84992266781914,75.05848270071047
53.0,78.47574356928226,74.0121598995189,75.38536494398699,74.18490091716538,72.48612158468453,75.41788991677112
54.5,77.26425060056319,75.37984324311759,76.68536494398698,75.56353327103217,73.90914141626253,75.91054016172598
56.0,76.1504214569411,76.47984324311761,77.685364943987,76.60392043754092,75.00078262024346,76.46874267407289
58.0,74.17843490921355,77.84802816173514,79.05619052605097,78.04254994895254,76.47911884325075,77.41524579539846
60.0,72.70235263046337,79.24802816173515,80.413044529435,79.47945925165871,78.01788637125654,78.630498489184
61.5,74.26787553921156,80.3144619761058,81.413044529435,80.56125626139985,79.16771917714313,79.72236230025983
63.0,76.17333969690414,80.94960370395071,82.08405608217296,81.24074092857872,79.8883802863713,80.4765592128031
65.0,78.44396458552885,81.61829741541787,82.74118740262233,81.94074092857872,80.61950643376821,81.30139404464745
67.0,80.6906797311376,82.31829741541787,83.48470302829965,82.62279351797146,81.38056257374967,82.20742773953326
69.0,82.38922321100898,83.01829741541786,84.09990221363853,83.22279351797144,81.91783258888384,82.99420034428742
71.0,84.15275390929914,83.81829741541787,84.92878543358862,83.98819560523945,82.62476563871704,83.96436192015746
73.0,85.35422270978304,84.55422270978302,85.59990221363853,84.68819560523946,83.24635094845,84.76263843973625
75.0,86.52366418821946,85.2874841595555,86.25619052605097,85.4458092552346,83.97925081149978,85.58635676591834
77.5,87.89359207838633,86.1874841595555,87.15619052605098,86.44580925523461,84.94957083592723,86.63628818030949
80.0,89.52731932733035,87.38748415955548,88.312386819344,87.6658353476191,86.23970892335731,87.96265708887583
82.5,90.99795886817574,88.48748415955549,89.38405608217298,88.80256750009066,87.43601603658048,89.18571049614394
85.0,91.83488925572308,89.18748415955551,90.05619052605097,89.48271045810749,88.19281312930379,89.92595306345912
87.5,92.66907368328282,89.78748415955549,90.65619052605098,90.10256750009067,88.87110466922059,90.61393789596515
90.0,93.46907368328282,90.48748415955549,91.25619052605097,90.72059851686737,89.6057527799583,91.3166689956054
92.5,94.06907368328281,90.95422270978302,91.75619052605097,91.12059851686736,90.09482841866384,91.82568795829573
95.0,94.50377802722433,91.28748415955549,92.07148964993031,91.42059851686737,90.45867298481589,92.18821821055582
97.5,94.86907368328282,91.58748415955549,92.35987934845892,91.58271045810748,90.75932725195207,92.48572654851732
100.0,94.93243406805077,91.62366418821946,92.43185773210286,91.58603342002284,90.81412633694056,92.53549949509824
103.0,94.86907368328282,91.58748415955549,92.43185773210286,91.56827259126457,90.82944301855831,92.5069339831015
106.0,94.861563157189,91.52366418821946,92.45987934845891,91.5320942862757,90.85520385082549,92.49731764514902
109.0,94.761563157189,91.52366418821946,92.45987934845891,91.45361679199524,90.81577654120312,92.44509464074497
112.0,94.661563157189,91.36037755385878,92.40492745419807,91.37656080843416,90.73580959259218,92.35043680822142
115.0,94.461563157189,91.1603775538588,92.35987934845892,91.15956380655953,90.57251745833608,92.18462240250066
118.0,94.25555015441181,90.9305594600908,92.20492745419809,90.93182903534907,90.28734320034705,91.97130206371295
122.0,93.9555501544118,90.56806496436378,92.08902907960973,90.60231778125262,89.84070936136071,91.67702516013637
125.0,93.6555501544118,90.17728086566015,91.86245207358273,90.20071497382969,89.29838051002419,91.33259623745607
128.0,93.28588591536766,89.72102497187947,91.63444710570832,89.77920444030306,88.64231656218945,90.93962017716852
132.0,92.85103772482329,89.2603759965717,91.43632195179617,89.40270225842164,87.89812734040447,90.53171105391944
136.0,92.51671047272798,88.80645698542159,91.2922608597096,89.10911993080884,87.07246160639063,90.18331040997745
140.0,92.14802816173514,88.4878087023848,91.17667956505878,88.89448057666573,86.15543801112275,89.86312878411027
145.0,91.78210973001737,88.26201368516692,91.061398745234,88.70580546735636,85.21835037827051,89.5705336144504
150.0,91.41367701902347,88.20377139316128,90.88987718653345,88.60580546735636,84.29826906061889,89.31240311349461
155.0,91.01367701902348,88.23665694435176,90.68987718653345,88.48193883911283,83.49865336664695,89.06352572365002
160.0,90.84802816173514,88.36201368516691,90.58987718653346,88.39603048845252,82.96327985144134,88.96081319083157
165.0,90.81671047272798,88.6468550364101,90.6162873987995,88.55890411244506,82.78940870620879,89.03020076738711
170.0,91.016710472728,89.00645698542156,90.78664363148783,88.8765073011771,83.03793868315194,89.27493323114197
175.0,91.41671047272798,89.43318979195223,91.18664363148785,89.4074706892628,83.67064353186106,89.71541776251875
180.0,91.8798432431176,89.83318979195224,91.68664363148784,90.00549737274117,84.56784484534927,90.22516824987414
185.0,92.21215989951891,90.23318979195223,92.14418123263505,90.59557999411659,85.51898927920602,90.69012739809124
190.0,92.34498223194326,90.59359053296383,92.45987934845891,90.98196999689608,86.33329525228848,91.00913719951085
195.0,92.2144619761058,90.83318979195224,92.575884594386,91.15191954776965,86.9048727534016,91.12625520564312
200.0,91.81829741541787,90.89359053296384,92.49220181624753,91.10286445730617,87.22284451430724,91.031308977959
206.0,91.2906797311376,90.8210249718795,92.28238018729218,90.80286445730616,87.25972911654523,90.77779858927862
212.0,90.69762752961566,90.62102497187949,92.01137978576539,90.3847595078182,87.07198478663192,90.4290878393606
218.0,90.1354172753235,90.32102497187948,91.82301672357193,89.93808741933042,86.71581693591682,90.07345085966794
224.0,89.66520214865774,89.82102497187947,91.7050583060311,89.62430680584072,86.2173107073076,89.73306113373253
230.0,89.29547079878878,89.2603759965717,91.75065088385034,89.38849882914607,85.54657995986473,89.46198498626754
236.0,89.12073902402716,88.77334108070094,91.88326782226792,89.41393684289697,84.83314473501855,89.33648166170676
240.0,89.01681641238989,88.46201368516692,92.10237818451202,89.59971475385336,84.18602591584335,89.34096468075968
250.0,89.18140728763805,88.27865799365938,92.33774679913353,89.78689593122503,83.75993631640247,89.4486187092211
258.0,89.41681641238989,88.39677950972225,92.59961931796921,90.02681159126892,83.52658320454992,89.65356140661609
265.0,89.58922321100899,88.67276078129092,92.73401989304918,90.12681159126892,83.4309094869537,89.79832834169028
272.0,89.70327385910882,88.97276078129093,92.770580843682,90.05882549211975,83.40717719834775,89.86654574818324
280.0,89.66376882012759,89.39677950972225,92.82289009623722,90.01554141595321,83.48210258693446,89.94571016022836
290.0,89.51863940423061,89.85397514169343,92.82504762565758,89.93922459463356,83.67597814668476,89.99803230539024
300.0,89.30355156476136,90.51173353446154,92.95409798319128,90.02827608900407,83.93743164889636,90.17475835284036
307.0,89.14685332355376,91.2786579936594,93.22538317356691,90.22827608900405,84.40065682213685,90.48828018821986
315.0,89.10027618469786,92.13665694435177,93.53942987193524,90.4807666546576,84.85345976512627,90.88516996414928
325.0,89.30049721067334,93.03665694435176,93.98569737302802,90.7631629978651,85.22841553013542,91.39403782335057
335.0,89.74048324663582,93.83665694435177,94.31534830998088,90.88510450438596,85.19920713715794,91.82947996345034
345.0,90.55422270978302,94.49521574673922,94.52259187513992,90.80379431134033,84.80327882935156,92.19585344693249
355.0,91.54802816173515,94.99521574673923,94.5252716752077,90.4530373205491,84.10615609213342,92.44980690013169
365.0,92.54652299684312,95.27005268107163,94.33080169519819,90.04386807760689,83.3706776406688,92.60106511484204
375.0,93.57908761811622,95.39521574673924,94.10483100312663,89.66000795084099,82.86515943036466,92.75762553401935
387.0,94.51139240506328,95.49521574673923,93.99215378963551,89.32772566238037,82.68822555252035,92.97526751448723
400.0,95.4457438137483,95.53665694435176,94.08261940027883,89.14297039867598,82.78661028577264,93.2851389839604
412.0,96.25183408451821,95.51173353446154,94.4045113373994,88.95866052247686,82.90721351019691,93.6231966628304
425.0,96.92731932733034,95.28723848033476,94.67126204209306,88.75962482194734,82.71876038777921,93.86588567455644
437.0,97.14396458552886,94.629717846913,94.58567102893716,88.48589194831844,82.16091637277263,93.73988414796531
450.0,96.76661209814708,93.50588109438618,94.15581682174269,88.08008369522287,81.1275960249756,93.1669948115769
462.0,95.85433219866519,91.90588109438616,93.29838536441773,87.65692263051776,79.93828797171275,92.1587327252087
475.0,94.57005268107162,89.80588109438618,92.40161010775982,87.14791688416847,78.82484648892847,90.90172587482584
487.0,93.2631667804107,87.62101491582534,91.5955919769072,86.71441963195508,77.98478140066362,89.70744410715885
500.0,92.14749948483679,85.40396251919937,91.09503996299446,86.33971782134654,77.53847060779471,88.76299958330613
515.0,91.22060381226731,83.39379101267102,90.94981294807084,86.16720441567954,77.43648789689293,88.13794587224507
530.0,90.45716463985981,81.7305594600908,91.02606482247629,86.103780621208,77.57523474564776,87.76906961337154
545.0,89.95262293543168,80.6005487063597,91.27090399780565,86.21222132509018,77.81333710093651,87.66772802281044
560.0,89.5067249752131,79.98193671401158,91.57281880160915,86.46039706878406,78.05428199882334,87.68661277221955
580.0,89.22312215916486,80.0636550358383,91.85716747170068,86.67609733658288,78.16318704286614,87.78437275120908
600.0,88.98021384021182,80.75158596042236,92.05716747170067,86.71490812481045,77.95030080364945,87.84934664866947
615.0,88.8879717882401,81.91215484633517,92.2170765802272,86.5000970488251,77.37864931347087,87.91959898226024
630.0,89.01234987491503,83.41423669830746,92.23538681850137,86.12091986179465,76.57598654858768,87.98519930435643
650.0,89.34229282488506,85.06689667534448,92.19456756527825,85.76132578610724,75.85878524842697,88.13377043217366
670.0,89.99493890040453,86.76551069691533,92.24054029959564,85.72540696231783,75.63902025619853,88.52380112051208
690.0,90.75951338358226,88.2214704028662,92.39959286844905,86.09105929312157,75.91693745449005,89.07230006508702
710.0,91.60222210866058,89.33900596249883,92.72001354252981,86.76336585522137,76.70075651157937,89.72857561685194
730.0,92.1544134361387,90.03839028204054,93.14081094781193,87.4620306825769,77.64921836225486,90.27577715611177
750.0,92.45064993039898,90.28222623887679,93.4200135425298,87.8776968776664,78.33592465985498,90.57270641525098
775.0,92.40179461995575,90.0896498621043,93.49959286844904,87.93167881596956,78.5847470987401,90.56232793073795
800.0,92.24151417727981,89.60177124554048,93.34049431998933,87.69560023031421,78.3623899006927,90.33643566164801
825.0,91.92778010819336,88.97044832887642,93.10203677131551,87.29287720729316,77.87904078496395,89.98948360380038
850.0,91.3930044903975,88.09207094131415,92.7846953343559,86.80188944656982,77.15817887359812,89.49605917701697
875.0,90.60377139316128,87.1086283493787,92.48013034471602,86.28012491684672,76.21245687876478,88.92053729657022
900.0,89.50862922946251,86.20829225250017,92.25042762093712,85.81448228077866,75.3144791469289,88.33161892862441
925.0,88.18516904123261,85.64349160454702,92.09069727653525,85.42445656147738,74.45049529233562,87.81047370498037
950.0,86.9033202845938,85.61572152756185,92.0786245824361,85.32747635047362,73.88113007473628,87.53403932080792
975.0,85.86081877170514,86.17390562571848,92.12144019800589,85.28788896148106,73.5095378742827,87.46649235179211
1000.0,85.33304413665141,86.87390562571848,92.0789778590183,85.30236852687658,73.36230948799913,87.48648942118861
1030.0,85.46572597613068,87.5533626306381,91.93232468749909,85.23585232527216,73.36175376955458,87.53930226167893
1060.0,86.06860530692622,88.10866552473072,91.74127662256308,85.1393305594089,73.25798973661817,87.62278494263985
1090.0,86.88953843543814,88.38440449750739,91.83818147421641,85.41408693226079,73.54035257442581,87.88922793922333
1120.0,87.78756659119735,88.34427333162849,92.04556807354719,85.8310492006052,74.0282968701168,88.18708477267887
1150.0,88.44227557660963,88.09537190208913,92.57684164414745,86.42976061087748,74.78303887779843,88.60120791838344
1180.0,88.62292830430475,87.35076427378993,93.22823869769744,87.07170780807591,75.69709717462159,88.94449204568724
1220.0,88.48232489737754,86.13796339013416,93.69213967915692,87.37785918686293,76.17465248597429,89.07863470459793
1250.0,88.0638289332783,84.53279257887677,94.00025202030278,87.3968343803339,76.15627559231179,89.05980946821306
1280.0,87.36258741806745,83.0905180658018,93.92906012075001,86.92629353097836,75.58921096631484,88.74912506435477
1320.0,86.74171213929581,82.02292830430474,93.4488945876445,86.07672967299207,74.4493011559323,88.16528827307533
1360.0,86.13035093675619,81.56225894278165,92.80765536805242,85.13489595763062,73.20421495591182,87.49654471955378
1400.0,85.6303509367562,81.6413682843271,91.96825117521601,84.2086170555325,71.91748702081502,86.74677608422331
1450.0,85.46590271897568,81.81397442244679,91.3015717590179,83.5200931036818,70.92383976526554,86.2130393014042
1500.0,85.55047099250734,81.75346034861809,90.845556592153,83.21578863628666,70.37217843117482,85.89777931892114
1550.0,85.73812568611841,81.37484590734479,90.58005211270576,83.13832922770308,69.92608765753522,85.73047946982611
1600.0,85.95552128313825,80.58288873330127,90.65693817275658,83.2258691633135,69.77427985115153,85.77811444334154
1650.0,86.05105669150313,79.85024718780392,90.81491243491533,83.35094190821246,69.80428952629157,85.86970464282373
1700.0,85.97736642367245,79.21021554436187,90.95468903840762,83.51117472046298,69.64487908225385,85.93049539279323
1750.0,85.90875292482336,78.74980588352926,91.15217432539444,83.58594099231499,69.53320297739165,86.03352860558132
1800.0,85.43811449423234,78.44072283927687,91.2451512593258,83.59903608359903,69.23107908626599,85.99681125444611
1850.0,84.92518237261918,78.16358001798736,91.22796052092433,83.43002414938289,68.65274968445763,85.86754296685956
1900.0,84.15722387663726,77.88408385828923,91.13547683795672,83.1271777293969,67.94275344932771,85.64045863127753
1950.0,83.28140728763805,77.73243406805078,90.99067672603582,82.5745092163631,67.15750544641813,85.35176721949647
2000.0,82.79237731057007,77.5214704028662,90.6923317023761,81.67606154443205,66.08187912629927,84.97124417487387
2060.0,82.63386890471897,77.33055946009081,90.24680794029402,80.40588798772137,64.64985533484725,84.49838186082197
2120.0,82.8950756617586,77.29795886817575,89.67884674664799,78.88516621645698,63.17399107251657,84.00226370002294
2180.0,83.32456366213296,77.54786652896745,89.04190102356958,77.34262325464483,61.746901986736816,83.53963630454963
2240.0,83.85886217214991,78.25453924398485,88.44959321928525,76.2062532920727,60.95123021561369,83.23387954976496
2300.0,84.67562780715183,79.4346571813232,87.96059013107167,75.83379744248361,61.107503385411576,83.20614671566074
2360.0,85.4279669535265,80.91013878053619,87.82096217542309,76.06842243743405,61.94250976685706,83.50160097800938
2400.0,85.96219856424433,82.54685503641011,88.03497384454259,76.82813962708842,63.213849528967984,84.01656560253394
2500.0,86.0707351181306,84.04892017806355,88.68038429989053,77.72178973106334,64.56460488160369,84.64992756249097
2580.0,85.65266967806718,85.3053249996266,89.50388113280408,78.23234515310175,65.37181043516009,85.2344052694257
2650.0,85.19693382974246,86.22734440838663,90.06526722660831,78.24508357957932,65.52057086823825,85.64870831418261
2720.0,84.9400653455769,86.56661521402626,90.2121596863721,78.03154776339632,65.40798456565079,85.75782417642493
2800.0,85.07088919096445,86.50412005844538,89.80203907892194,77.75145098421171,65.16036264785075,85.5311756504735
2900.0,85.45318752607756,86.07044832887642,89.22060117635084,77.98941233340105,65.27198762512216,85.20524016694037
3000.0,85.674440073587,85.13433603222327,88.77054958295027,78.71905019186414,65.75287420908967,84.84921895874365
3070.0,85.81381067153868,84.07827580831373,88.5844804288391,79.26414994951057,66.0708875708805,84.61639521231942
3150.0,85.69715403297819,83.12018582379037,88.43338860872198,79.44237929071183,66.08850089408065,84.3635368166531
3250.0,85.51627538193156,82.62059544326058,88.26419622699507,79.18185203353268,65.76547340586018,84.13673246470152
3350.0,85.3112507983802,82.58509073224857,88.07396028417261,78.90840310821335,65.31570060498211,83.95864297790061
