Freq "Rear Wall Bounce"
22.4 53.6817748034842
23.0 54.4132170353722
23.6 55.15554365037296
24.0 55.95022994260755
25.0 56.755543650372985
25.8 57.481774803484214
26.5 58.207851254527625
27.2 59.01845427904577
28.0 59.81845427904575
29.0 60.58693006977968
30.0 61.371204991270034
30.7 60.35459266513216
31.5 60.91865319505966
32.5 61.456835286734574
33.5 62.1708045088273
34.5 62.929176201640956
35.5 63.65485615992448
36.5 64.52863641153893
37.5 65.35104444075809
38.7 66.19360319718771
40.0 67.10801310740923
41.2 67.97088966479468
42.5 68.86165961717236
43.7 69.74808378157124
45.0 70.64966349475401
46.2 71.58608068106774
47.5 72.62316718773387
48.7 73.50838751479041
50.0 74.34353841836604
51.5 75.16104175018326
53.0 75.91407705691422
54.5 76.66124121009081
56.0 77.33644590490951
58.0 77.9732624153781
60.0 78.5113515950714
61.5 79.02701869284292
63.0 79.45122859704621
65.0 79.81887548544906
67.0 80.16944408982124
69.0 80.46202469035369
71.0 80.69330745757134
73.0 80.9406095951292
75.0 81.17049007550692
77.5 81.36519463478982
80.0 81.52902211565542
82.5 81.6957554902662
85.0 81.8651946347898
87.5 82.01190738586128
90.0 82.15917509135514
92.5 82.27940747638625
95.0 82.39874572969372
97.5 82.5181069244464
100.0 82.62651114436713
103.0 82.70323730814205
106.0 82.7864448921671
109.0 82.83264109813607
112.0 82.91108025945123
115.0 82.94692494525623
118.0 82.9617915790089
122.0 82.95091377219136
125.0 82.87719263056336
128.0 82.78701360944322
132.0 82.65433461651845
136.0 82.49076866860055
140.0 82.31142434680547
145.0 82.10650523554538
150.0 81.90184911972382
155.0 81.69216484081419
160.0 81.42401921497292
165.0 81.16269316408224
170.0 80.91741786226675
175.0 80.67678659831746
180.0 80.4586297718697
185.0 80.31063305807773
190.0 80.12980120652392
195.0 79.96926245599316
200.0 79.78789131386485
206.0 79.58686825050198
212.0 79.36003375705067
218.0 79.10631782527378
224.0 78.91820654856109
230.0 78.72174530077997
236.0 78.60031346244216
240.0 78.55801487120621
250.0 78.6380987140217
258.0 78.75346908617107
265.0 78.86559326325936
272.0 78.85205912216284
280.0 78.7807942942028
290.0 78.65104837231974
300.0 78.42013340736194
307.0 78.15088211943511
315.0 77.78411382523
325.0 77.4890171039763
335.0 77.13438380891012
345.0 76.79833278881891
355.0 76.40046789988997
365.0 75.84895051382001
375.0 75.33158316926152
387.0 74.8758085755182
400.0 74.42923723246051
412.0 74.07661509006931
425.0 73.77558921838617
437.0 73.57964222923663
450.0 73.34265526115229
462.0 73.06868276202898
475.0 72.80082848626135
487.0 72.474313053209
500.0 72.15986042034676
515.0 71.9429838781188
530.0 71.78064536415538
545.0 71.54222239056514
560.0 71.04527664446614
580.0 70.73797897229443
600.0 70.74836090140997
615.0 70.76773349450879
630.0 71.00605132716456
650.0 71.16502225712607
670.0 71.04548013165761
690.0 70.80801285879244
710.0 70.4813324489068
730.0 70.16336172472327
750.0 69.56847289703263
775.0 68.89336912987092
800.0 68.29071357320267
825.0 67.8627210022712
850.0 67.77169799356575
875.0 67.37187631483549
900.0 66.82522113878238
925.0 66.9662237677717
950.0 67.17111309617734
975.0 67.10530816044201
1000.0 66.96513492171383
1030.0 66.47217252546851
1060.0 66.24138914215878
1090.0 66.5724631818345
1120.0 66.84079123323782
1150.0 67.10428463824856
1180.0 67.30317147553595
1220.0 66.46093965815182
1250.0 65.30574271421041
1280.0 65.20742264940979
1320.0 65.19889990225983
1360.0 64.1322703238973
1400.0 62.88141863270593
1450.0 62.19950689343703
1500.0 61.96715288478242
1550.0 61.19031560280402
1600.0 60.280356813935256
1650.0 60.268911082882894
1700.0 61.632050908097156
1750.0 62.05601380647509
1800.0 62.38562819959196
1850.0 62.72775684197295
1900.0 62.58298462028651
1950.0 62.27052595232625
2000.0 62.207809054730276
2060.0 62.47077348718322
2120.0 62.351286761899416
2180.0 61.80480523132749
2240.0 61.667413370293886
2300.0 61.27955493303493
2360.0 60.5944438572386
2400.0 59.861010853667
2500.0 59.63025386950257
2580.0 59.37789391762307
2650.0 59.16742760909888
2720.0 58.86704693723688
2800.0 58.49004396483416
2900.0 58.2198415496032
3000.0 58.24003453796139
3070.0 58.28813051559983
3150.0 58.21599721618496
3250.0 58.260354734782155
3350.0 58.53600349790632
3450.0 58.953247748793146
3550.0 59.151663084900136
3650.0 58.82080386942455
3750.0 58.102781265597955
3870.0 56.97050185236172
4000.0 55.82449108253921
4120.0 55.88044037393068
4250.0 56.76346383900072
4370.0 57.735720626458814
4500.0 58.15633916526478
4620.0 57.30268756569792
4750.0 56.96344685917175
4870.0 57.248362060613076
5000.0 57.158603465981216
5150.0 56.62824974631529
5300.0 55.45953953642193
5450.0 54.625846417739226
5600.0 54.33661244808728
5800.0 53.88121951088742
6000.0 53.56749620578297
6150.0 53.708828485321575
6300.0 54.98190311309328
6500.0 55.883770162705346
6700.0 55.34255648433124
6900.0 54.61360515703676
7100.0 53.734280201120995
7300.0 52.38738912404254
7500.0 52.032202907267035
7750.0 52.1375404538304
8000.0 53.416236209076246
8250.0 54.29136668452061
8500.0 53.962394898586766
8750.0 52.72369095957514
9000.0 52.956592099644595
9250.0 54.53697083092881
9500.0 54.94361844356014
9750.0 53.39709810390646
10000.0 50.37911618450893
10300.0 50.976267148606254
10600.0 51.92497225824444
10900.0 51.52468586926064
11200.0 48.96517979926843
11500.0 48.77025720934243
11800.0 50.63117878635846
12200.0 51.297938210664555
12500.0 53.03652728041804
12800.0 55.02915900341152
13200.0 54.01353293079039
13600.0 54.2843914667976
14000.0 53.69690166503706
14500.0 50.20247579609709
15000.0 48.680397932596534
15500.0 51.32611678040506
16000.0 44.660376523585526
16500.0 39.27723362661628
17000.0 39.40109826532519
17500.0 36.87131713984074
18000.0 33.392944841364894
18500.0 35.74906298163519
19000.0 32.19592253824267
19500.0 30.57238697968144
