Freq,Floor Bounce,Ceiling Bounce,Front Wall Bounce,Side Wall Bounce,Rear Wall Bounce,Total Early Reflection
20.5078,48.34412600121364,38.14240429797998,45.5607788433865,39.42551446432553,56.01387663481013,50.16148985022433
21.9727,50.57539568643388,39.20284400096948,48.192716650575235,41.897242196395624,57.69623791288943,51.99898041592975
23.4375,53.53793352707511,53.93796203735489,52.48644819665755,53.18465176773664,62.27299931536233,57.069986974662996
24.9023,57.61137476292474,54.4060694754789,56.75738483164581,54.43281404923685,60.59456703172599,57.40511680056041
26.3672,56.57119199346401,52.92201192636513,55.07675404589769,53.7410074577176,63.157843927917,58.165950120773644
27.832,59.42270143450337,58.71582166538134,58.54591415359461,58.79316661159562,65.48690510371262,61.225337353907676
29.2969,62.77730887146548,61.96476983255606,62.190944645247455,62.05354184941159,67.15002815520143,63.7717277489041
30.7617,64.6429547097063,63.550538087789576,64.07317625952628,63.80655558517755,68.5229504770869,65.37859807137482
32.2266,66.58063852567756,65.86480589445942,66.0917022076165,66.11999363474193,70.50975848095607,67.45288025112264
33.6914,68.59063259767734,67.99277884666085,68.16654837923365,68.27103546812482,72.1375335024933,69.36099792154205
35.1562,70.39273570440791,69.8853359316423,70.02492630357766,70.1414900840655,73.6440623077202,71.08679269849279
36.6211,71.95422830748429,71.47062975921226,71.59228536079534,71.77835782934227,75.27395028301491,72.68970167226729
38.0859,73.74930436720221,73.42900807788193,73.40739273340326,73.7543384484265,76.93103364641969,74.49372302228247
39.5508,75.22287067265817,75.00529011965799,74.93394950769022,75.29258833539639,78.2327102898945,75.9437095505018
41.0156,76.30768971725931,76.13575760997186,76.05621577125088,76.40847156933026,78.94326597107894,76.92452930896197
42.4805,77.34717028862408,77.16570757298624,77.1157316579373,77.44591151121887,79.82505552077359,77.91578110821487
43.9453,78.11565124236633,77.94768902025355,77.88987243852935,78.23900822241806,80.44794973575858,78.64730889850792
45.4102,78.73652329491368,78.56005884769021,78.50932470451622,78.87549439685672,80.9359623439497,79.22955787239934
46.875,79.29027729858079,79.11904574784596,79.0732492288674,79.43156091332798,81.31729599212132,79.73602440133037
48.3398,79.69759582973838,79.5238437154358,79.48613356569216,79.83969789455709,81.57548070375564,80.1016161486421
51.2695,80.32102652224934,80.15727126220717,80.11874841931355,80.4808239687296,81.98396104308105,80.67252608579534
52.7344,80.61001097883047,80.43429090648873,80.40889718626661,80.76362872273867,82.13800296104507,80.92229375352157
54.1992,80.86452999114904,80.68253245741556,80.66758297120164,81.01124287731822,82.2668306025921,81.14218212540494
55.6641,81.06841370569929,80.90559742001936,80.88103144322174,81.2226077440149,82.39364826380198,81.33288136690757
58.5938,81.54190424806059,81.34797823428744,81.348267775517,81.67823170581651,82.65442015860673,81.74267999317213
60.0586,81.79338812431409,81.57791693593624,81.59642316387615,81.91735172183361,82.80746414315728,81.96307346812371
62.9883,82.20495058918422,81.96064598874825,82.00303169026775,82.30877808800345,83.04847680307984,82.32356356921818
64.4531,82.43852967097142,82.1831792597317,82.2372935807712,82.52774042569092,83.1794251611277,82.52826521098369
67.3828,82.96703137273012,82.66762816791838,82.75887565232226,83.04387589382071,83.55267594908528,83.00921274812919
68.8477,83.1030827206255,82.80909284047267,82.89634889283728,83.18539058723286,83.6555455483733,83.14014074289783
71.7773,83.51973735887474,83.20197652372474,83.3065691851934,83.57819151960709,83.9335753227465,83.51545733591277
74.707,83.8997629643945,83.56380009748092,83.68899711799037,83.9389513675243,84.18499735678884,83.86061611565428
77.6367,84.17762189714867,83.83200081128679,83.9646563429033,84.21274304701103,84.39518703134243,84.12091651443723
79.1016,84.29880239625103,83.94586670069437,84.07675475628987,84.33782314188097,84.52830253747145,84.24232204936229
82.0312,84.63341980587505,84.2477021160998,84.4008292950682,84.64765243098459,84.76110535884337,84.54212290813531
84.9609,84.89428055419727,84.50661194226957,84.66677623147208,84.88272769342825,84.8643457965103,84.76561587753723
87.8906,85.16778937993917,84.70468096744433,84.90175389102943,85.12991244296155,85.17438227253466,85.01960234126538
90.8203,85.41521275443861,84.92151605566677,85.13920757595048,85.38068913883139,85.47585176997777,85.27137502377384
95.2148,85.65036670223851,85.16445785680806,85.3941360416464,85.58042664256494,85.50202602936527,85.46157270877549
98.1445,85.78482111343315,85.23315522824252,85.51489238075922,85.6567685198152,85.45996365022401,85.5339180066416
101.074,85.95741946844272,85.39670842327318,85.70238407532474,85.79276498608428,85.41865729125284,85.65900350226411
105.469,86.02898553605995,85.50191342379249,85.79029318961283,85.86261353697164,85.39133162346008,85.72136930848991
108.398,86.09297269838622,85.53224528243241,85.83853646683885,85.91174543822164,85.42322058720835,85.76675674157781
112.793,85.91322443836937,85.35728425464772,85.64869035617127,85.75308142022666,85.39045060491411,85.61775159321161
117.188,85.75340565372512,85.16527430881409,85.48101138214703,85.54382324499882,85.03332567524825,85.40321255814543
120.117,86.07790103121845,85.22594331858264,85.71921582971041,85.71153082908124,85.04592494770934,85.57199830118962
124.512,86.31600204403941,85.4789243613417,85.9809117869708,85.96880436324251,85.39100906516087,85.84079779972936
128.906,86.16035676595159,85.3713845862688,85.85633834261333,85.8306469895412,85.1812767411425,85.69440174198617
133.301,85.9845503835448,85.17726725644302,85.69062320226332,85.62824571966968,84.83602311239572,85.4821429421945
139.16,85.7429570641369,84.9651769954071,85.43212437190616,85.42349377845177,84.62417768270528,85.25530090044289
143.555,85.58032356957929,84.75114695727628,85.25444900132719,85.1720769432287,84.34130577311039,85.04089335629384
147.949,85.71125456185025,84.66266814238737,85.33702145425254,85.15562763125199,84.28344772697506,85.05891437016213
153.809,85.52685851039864,84.72763831676016,85.26646907382577,85.12545705883244,84.08532502680366,84.9746213950264
159.668,84.98195189732866,84.0552437610011,84.58332994709455,84.46277989418417,83.3686092710386,84.32408864897293
165.527,84.99826607928567,83.92138980312754,84.5944756883863,84.18020306064467,83.03791975812713,84.19601386178486
171.387,85.37658247487816,83.93331956453888,84.85431885100371,84.49858901031354,83.14040197794888,84.42748894416702
177.246,85.25815427556559,84.17844019318369,84.91803871409434,84.66748536824504,83.65908410328315,84.57209324281496
183.105,85.08735905263795,83.83019905512448,84.6996863420537,84.36163991792266,83.13156414167985,84.27477628700494
188.965,85.03933501227655,83.85123144460354,84.67616873215181,84.35836566147654,83.1225649492379,84.25981707111482
196.289,84.82638014242153,83.52804417714242,84.39658402365255,83.95145605042914,83.0533604420158,83.99588356963048
203.613,84.548886486915,83.14006782256467,84.19227355801037,83.60141002540479,82.2325129669885,83.6173582522999
210.938,84.62265450497485,83.16910041504369,84.19894707390459,83.52311801957428,81.50143449784755,83.52834561821898
218.262,84.78819344259566,83.26093191867305,84.36160715022937,83.8896192264038,82.04946262245544,83.77031163064639
225.586,84.46257627032459,83.02156344231663,84.04774100495433,83.59340343109186,82.1383750049806,83.52670231138123
232.91,84.10699480434214,82.63594155846964,83.77620867159213,83.11102542550567,81.60088669264475,83.133504997052
241.699,84.33783174693694,82.74072210175622,83.94714915261027,83.12224736174208,80.96027550612189,83.17055893508673
250.488,84.20986910066102,82.2649095724146,83.76387509212736,82.90367608719589,80.65811075414292,82.9291617445026
259.277,84.60279527596263,82.7612196370303,84.18510143337575,83.10878543853198,80.18164315773798,83.21567551435916
268.066,84.77877437229454,83.10867057308737,84.39567005881122,83.88523430719277,81.37210958810908,83.66253149350516
276.855,84.19704785769132,82.69685136196166,83.88374596775931,83.0895985255819,80.7788019960595,83.0826645250126
287.109,83.65291238509691,81.89912443909509,83.12615974628363,82.33974018927572,79.87590129692727,82.35892469778399
297.363,84.25735006475948,82.37360063766668,83.61055498399422,82.8128691810666,79.86809721539616,82.81948451355005
307.617,84.20317195327709,81.21776962237213,83.42001467676342,82.90401989263982,80.83463974863535,82.7031825858924
319.336,83.88062879405093,81.69011111998277,83.57416693640367,82.29332273861192,80.80109600405733,82.59833296488173
329.59,84.40592661069682,82.23794049142664,84.22591030356,82.80385641951537,80.63607119782154,83.07197657840096
341.309,84.48815878343189,82.10326096005694,84.02063694753767,82.54388128667081,80.3662509756521,82.94109691899007
353.027,84.24003783202045,81.90092687830399,84.27045223626499,82.65199418487195,79.67380605717199,82.85391684226413
366.211,84.62396096645985,82.72645475158846,84.63543111888401,83.90372149658211,79.55548045062157,83.44023900974791
379.395,84.07899265867049,82.26272937837733,84.17795183484394,83.31130829131402,79.80137490387087,82.99180490999017
392.578,83.9389406235217,82.20977882902302,84.01989469670161,82.95079969570477,79.50254543296437,82.80037431001747
405.762,84.04740910536738,82.20095121166226,83.83156069878281,82.8056741728277,79.83719539983672,82.78154108483938
420.41,83.7819947523679,81.8074258011895,83.79540012103494,82.37134723765469,78.93738265296308,82.46039631420125
435.059,84.46860821257579,81.72481296917685,84.2099757961557,82.57876700693389,79.3699420530862,82.83200187603732
451.172,84.61313473571336,82.43979005604926,84.7826420735046,83.23683956869887,79.6585133006444,83.2984290531962
465.82,84.8228426710593,82.490435559393,85.14590711117602,83.73869885290618,79.30592050591828,83.54034590311886
483.398,84.49681750208727,82.16072238880118,84.79486260018184,83.60410139686371,80.22817472359107,83.35430661199165
499.512,84.04779230234193,82.73068503433012,84.69205505123041,83.38025363586799,79.42481931019672,83.18671718941636
517.09,84.2590175079052,82.08093245537411,84.72635707649363,83.61850390292095,79.14984687811513,83.16934282160977
536.133,84.35038966043481,82.37707736711032,85.12296243486612,83.98442924252959,79.91090119654514,83.49754481996153
555.176,84.69238138058871,82.27365893084665,85.28379081572935,84.01819146365153,80.49271119684427,83.67445255898603
574.219,85.42234445965754,82.08721091138729,86.18378184270944,84.12626693742956,79.63753049669248,84.06927166829969
594.727,84.75291003578837,82.24412677609813,85.50993419485839,84.16345322994864,80.03215415839996,83.74228936188598
615.234,85.22478751706868,81.8550825964838,85.95264855127381,83.40181702039685,80.37450011276304,83.83089119619419
637.207,85.60232284918547,82.22398098105279,86.31687491378347,83.07402022388685,79.20488107374948,83.96065427950633
659.18,83.9391520471561,82.31500276835169,85.49930590934585,82.99008068826501,78.96354071686618,83.22509707957198
682.617,83.7355586992398,82.48755146520698,85.6434086414439,83.014961194618,78.52744421867288,83.22984848336644
707.52,84.26923515189065,83.38305665230524,85.68405563903295,82.71597075213256,78.12655826342973,83.45259125245772
732.422,83.72783815135885,84.45855350697632,86.10234055322036,83.28859552430724,78.57410602274494,83.83075394308871
757.324,86.06909360030724,85.23205402836142,87.25656330678709,84.50814873652418,79.90818877895995,85.18524133325626
785.156,84.5901335636435,85.46191430731716,86.71831805420992,83.50464589422218,79.21242558946372,84.52308721772089
811.523,84.82732386054155,85.47750853592488,86.34801136154128,83.45208459713837,78.09705460811763,84.39061197325476
840.82,85.00353706089808,85.3625726539284,86.27498035146017,83.05071732691376,79.08448114590264,84.36874465850177
870.117,84.61862955581245,84.46186636596771,85.65011308121798,82.47471100129648,76.74968908580921,83.65643862424568
900.879,85.43645448125598,84.67948174588972,85.60931266936674,82.46485180692018,76.86417227362001,83.91717192690457
933.105,85.22034960700344,83.87331124700668,85.37021130224505,81.8377373660332,76.37739892191294,83.49130634847998
965.332,85.669738765204,82.85833935957614,85.74551110177497,82.51784378826545,75.14094168211177,83.61256828752475
1000.49,85.8051429445276,82.45906037941555,85.21095504325021,81.70054413325589,75.44582284474038,83.31118489037577
1035.64,85.8455015583912,81.4689835605242,85.41886773343712,82.132223189635,74.78067291806182,83.28845420350174
1072.27,85.9334419217504,80.38476871670473,85.23481434799645,82.00125232485657,74.73899748327423,83.1108642662649
1108.89,85.90278463440274,78.8926806026117,85.18834580586858,81.85143504949495,76.55139045774506,82.99024059597558
1148.44,85.37850219783036,79.25353795901611,85.08614316447289,81.52376258648945,76.77732284562167,82.74821777689407
1189.45,84.96659453593554,78.87734520826784,86.33671167541178,81.2306835484156,76.63580910220709,83.0106209017507
1230.47,83.61574709895044,76.75666775880437,86.12602449293041,81.44160517230166,74.5057490634598,82.32855826001936
1274.41,82.50714480833825,75.52903300906364,86.11071983033685,81.71731220515527,73.98680318405117,82.01818331674455
1319.82,81.88988448760072,72.67394891151267,86.70048752243007,82.19603070157208,73.8782212899452,82.2065708307962
1366.7,80.8215976917199,71.34349413802474,86.62085249203155,82.01331850535728,73.85189080066957,81.91446633203375
1413.57,79.157923604728,70.55311672106662,86.68498312344211,81.89479166754384,73.82021106865675,81.69468431099851
1463.38,77.0903953159746,68.55733148777992,86.84215624337618,81.70306637933072,72.72481320716538,81.51301158962445
1516.11,77.61099755154522,70.74310792290899,87.0296358704067,81.73753505675346,72.69415123085712,81.71413770423537
1568.85,78.54262826956464,74.03309310525604,87.2219270371642,81.86760805033656,72.60740078798631,82.02066653584917
1624.51,79.6910983718011,75.24275560284498,86.99835050059691,81.62616608405646,72.32369402776173,81.9869270175427
1681.64,80.41222139265426,76.99203758242477,86.77240589455812,81.0041661834762,70.9056111398193,81.89722876043359
1741.7,81.34887997590727,76.54973012909795,87.05884708323846,80.6962477286304,71.11932866213296,82.14821984455344
1803.22,81.91263446411827,78.92836628405418,87.26881877160464,80.826754060923,72.37764040977413,82.57637432667383
1866.21,82.91390845384886,78.8841409311522,86.57541453899674,80.16930566928129,71.2538283329453,82.2777462631949
1932.13,83.17603809712838,79.2705019737851,86.45319125710307,79.75692726659537,70.08045005196021,82.24769432220496
1999.51,83.6511095367393,80.20641201974956,86.67810967072641,79.89379739123342,70.05741284515368,82.59960203602283
2069.82,84.30499997830427,80.06167809191446,86.29324747545726,79.29411110759754,69.46406976454773,82.5073618086581
2143.07,84.94471878288833,80.1954147515824,85.67300320757573,78.22588328298433,68.64578131273554,82.35452001508366
2219.24,84.91107136357478,79.62942649297912,86.02716347081285,78.28859699282438,69.2733034925425,82.44591135621378
2296.88,85.31541403940172,79.97331468307013,86.16638426798023,78.42432701047922,69.81708342312024,82.70562749053268
2378.91,85.45838769085152,79.20598321810259,85.51106109312984,78.09264399179565,69.07200267356289,82.37026420689547
2462.4,84.97276364076772,79.3867819693687,85.26899497222746,77.85465787985618,70.06129252290938,82.08805298071461
2548.83,84.74619967914262,79.58721698271245,85.7807491922185,78.4803477959483,69.96069965799987,82.29478552552958
2639.65,85.0201003323353,80.1739350702018,85.55021373396227,78.81511604744665,70.80485491979168,82.39989281541996
2731.93,84.68332363062926,80.98525920617664,85.55632636372347,79.06782943019728,70.3572165738074,82.40769559558463
2828.61,84.85777563551734,80.41671571785592,86.04024402000623,80.12318794174782,71.11297440233662,82.71247476539548
2928.22,84.58984715337643,81.17227103377733,86.1617489092295,80.97421235491574,71.53178042379314,82.88386337207773
3030.76,84.87506232622074,81.037619478977,85.97254643627674,81.08919230093427,71.05931397076354,82.88300020383913
3137.7,84.55470184456614,81.75835307001313,86.14987986729223,81.66480548916171,70.92158197433146,83.03839207308106
3249.02,84.62761494927177,81.66871466514611,86.1753918017566,81.5393170488083,70.25620757621029,83.03088873185966
3363.28,84.70835637431746,81.54643789207954,86.27620030246436,81.25996564272354,68.29572784731236,83.0238395115966
3481.93,84.78875707860398,81.51387215954905,86.11482019354371,80.71001716658567,67.62366464345232,82.90141404333794
3604.98,84.72346447946016,80.99054480526203,86.22255375172709,80.63625688238707,66.65214136958555,82.84106818086349
3732.42,84.58869929327032,80.74471166612273,85.81290096413957,79.79592481470814,65.44731585995044,82.48755153857478
3864.26,84.71059279804354,80.21608586031137,86.13263548281819,79.60111720609261,64.763141478527,82.57973666046196
4000.49,84.68664086595051,80.27569834517249,85.8485889022971,78.60577819161958,64.80907496690533,82.35933103462138
4141.11,84.77710184084903,79.97779669725178,85.8103664364065,78.284286459303,65.28347008115607,82.31334395652341
4287.6,84.83548948608784,80.28768870229163,85.81085312980099,78.12614272802439,66.06999596954257,82.3626683497561
4438.48,84.8492327183972,79.6435683699379,85.98657849905837,78.24122943982182,66.9390827016009,82.38587570698586
4595.21,84.86281586902022,79.23524322138674,86.22654716205783,78.15676442552056,67.47725398825942,82.4584977328938
4756.35,84.21531343485175,78.57067166167697,86.16660856467438,78.28128710754689,67.87263161642554,82.16447372078204
4924.8,83.72569430993966,78.33822370720272,85.76869906179584,77.92708297965082,66.44235711133152,81.74892194407978
5097.66,82.9922793081296,77.89864361864734,86.02893917975348,77.48901592501204,64.57207489013236,81.58687204383978
5277.83,82.79900253285469,76.99737278197593,85.37502436592648,76.3381496278503,62.514317436762255,81.00479271218198
5463.87,82.8902647602085,75.74960345180872,85.34655949629352,75.59444362768262,59.1612387086963,80.87575778022432
5657.23,83.09071844179368,75.22508449979642,85.44588575579654,74.41834038444443,56.66391095632632,80.90318230802744
5856.45,83.27250338338327,75.32006054480203,85.61978740513726,73.62060399128683,56.49444720573577,81.03590274777683
6062.99,83.2955359729661,75.16585939014593,85.76502577601467,74.00012636206968,58.41092882692071,81.13531273732418
6276.86,82.95800928887026,74.30478473785915,85.63776638393261,75.45314534305585,63.31749027250483,80.99022647716886
6498.05,82.9491985980693,74.60754952258573,85.49876061319165,76.86619828999054,66.57544531913878,81.03086229348175
6726.56,83.3831860452916,75.28976216137009,85.50189064640807,76.92258581631707,66.5617069662552,81.20881335286298
6963.87,83.45926106266892,75.37622521088362,85.92803068069591,76.15904195939044,63.154440252835656,81.40629769601388
7209.96,83.11296588556606,74.77859793864089,85.83806249023546,74.45738366367655,56.49613366053147,81.1175054137962
7464.84,83.10796700219495,72.87115620279529,85.41832509848861,73.2917874779268,52.544978545732235,80.74553133755116
7727.05,83.3254814536,71.03878391938373,85.51074893877514,72.85691037260717,56.439939125821255,80.81488186383203
7999.51,83.48645786185347,73.50998102814508,85.30049125821357,73.31897149094236,62.20813874101698,80.8467081286576
8282.23,83.010181851964,74.87576683442113,85.09399561493017,74.08321987620585,64.2613570543047,80.66060918288971
8573.73,81.81986486427336,73.59287236357552,85.08019828462747,74.74792253487048,62.71072044404657,80.24279518051337
8876.95,80.57055481244457,72.54552968101552,85.40392469648046,74.71587288222264,58.934026325710406,80.08142295046225
9188.96,81.53471408284949,72.98460654541071,85.53081099794096,73.79401621749948,55.757143053628866,80.36581547341196
9514.16,81.26847437313944,73.59733520436512,85.5947662030754,72.00534474794124,56.330791627039744,80.29995472110294
9849.61,80.09743294409903,73.41315227398657,85.61115492435222,72.8936924158423,60.69086887746839,80.07634459052103
