Freq "Early Reflections"
22.4 41.6621309328949
23.0 42.11336851435662
23.6 42.55809220291415
24.0 43.122441707446896
25.0 43.688866036568456
25.8 44.21509995326623
26.5 44.71257755520493
27.2 45.1962784749514
28.0 45.630960706215646
29.0 46.07381201652275
30.0 46.514148099708876
30.7 47.06525878951999
31.5 47.57571584940152
32.5 48.05755807964769
33.5 48.506476620759756
34.5 48.931910689400254
35.5 49.362287632819516
36.5 49.87938277159468
37.5 50.3673590484146
38.7 50.84536586488848
40.0 51.276916601982535
41.2 51.668652617264186
42.5 52.17466358137463
43.7 52.6844995019306
45.0 53.16482130738348
46.2 53.63284094585478
47.5 54.068717548208554
48.7 54.56918662196334
50.0 55.06872568192192
51.5 55.52984963240668
53.0 55.956007243726646
54.5 56.46036673996896
56.0 56.978847361880455
58.0 57.4309230866328
60.0 57.90896356641163
61.5 58.40491075316861
63.0 58.88708968702677
65.0 59.33201507089116
67.0 59.82403211454118
69.0 60.31622553508683
71.0 60.773349199759366
73.0 61.26217356835596
75.0 61.740641089707495
77.5 62.166607410591425
80.0 62.64643342961726
82.5 63.10978896965439
85.0 63.54276569162464
87.5 63.99646494962208
90.0 64.40599123055958
92.5 64.83487153870136
95.0 65.22169542373288
97.5 65.62077699752764
100.0 65.99313441933514
103.0 66.3307278678613
106.0 66.67537152228171
109.0 66.98496803543355
112.0 67.2856290429534
115.0 67.53261522039818
118.0 67.77512018530672
122.0 67.97056361381742
125.0 68.11131045488963
128.0 68.22121562055203
132.0 68.29542689811477
136.0 68.30936146344482
140.0 68.29000696448134
145.0 68.19733582384131
150.0 68.05767009665328
155.0 67.83339402094333
160.0 67.5876897943592
165.0 67.27745780516797
170.0 66.89972234688588
175.0 66.51959352987824
180.0 66.12274503158999
185.0 65.74655059567814
190.0 65.45210231869699
195.0 65.20395013652217
200.0 65.07388426674879
206.0 65.01709662497284
212.0 64.97992373767384
218.0 64.92039490130928
224.0 64.80022294322815
230.0 64.60806011851713
236.0 64.4258137818606
240.0 64.30563878656169
250.0 64.47880514209103
258.0 65.0204400323466
265.0 65.85540734245579
272.0 66.86595647082159
280.0 67.85695697136005
290.0 68.74485029436524
300.0 69.43556224073184
307.0 69.9030564031772
315.0 70.13688920224529
325.0 70.1771029379235
335.0 70.03320554666568
345.0 69.749737994062
355.0 69.40238925837724
365.0 69.01661366188542
375.0 68.62623756539398
387.0 68.2102266764221
400.0 67.83452264984932
412.0 67.54568388826071
425.0 67.52270544870588
437.0 67.84098612286667
450.0 68.33181523966488
462.0 68.73213866597409
475.0 68.83363699089678
487.0 68.56777586278768
500.0 68.02261815219337
515.0 67.45157749196129
530.0 67.18282108936816
545.0 67.26565694157294
560.0 67.48501219540076
580.0 67.70245245130663
600.0 67.95351171467031
615.0 68.07402322173
630.0 67.87318520535858
650.0 66.99599434559713
670.0 65.14528628574709
690.0 62.53387614168328
710.0 62.27312382617086
730.0 65.33272419314989
750.0 67.17588921800291
775.0 67.0885402736907
800.0 66.64159267282142
825.0 67.54633259214933
850.0 68.59959871497752
875.0 68.77066832490755
900.0 68.15688409485429
925.0 67.17751633338035
950.0 66.1694318247613
975.0 64.93348026815373
1000.0 63.71104042790361
1030.0 63.361384277434055
1060.0 63.13531223714577
1090.0 62.61518713255883
1120.0 62.083681505401884
1150.0 61.607073362429844
1180.0 61.12193040202088
1220.0 60.57467268962664
1250.0 61.99120259585469
1280.0 63.32591778990944
1320.0 63.47689322467106
1360.0 63.27868276485812
1400.0 63.93963945495159
1450.0 65.50598109558145
1500.0 66.65711499091519
1550.0 67.91057716766385
1600.0 67.44424673274126
1650.0 68.07207413965386
1700.0 68.18863301282629
1750.0 67.44924153984174
1800.0 67.48743585234318
1850.0 67.5085628629762
1900.0 67.9138605884649
1950.0 67.43612788136736
2000.0 67.31673404162136
2060.0 67.71280311140914
2120.0 67.78504656605645
2180.0 67.87009109133813
2240.0 67.71041138696815
2300.0 67.0840098860696
2360.0 65.62143343887074
2400.0 63.40965837903052
2500.0 63.60253501955357
2580.0 63.315219499708874
2650.0 62.88688696073477
2720.0 63.74784252019093
2800.0 64.33865716735956
2900.0 64.05805382183051
3000.0 63.47248208328293
3070.0 62.90372960636388
3150.0 62.81188429334122
3250.0 63.35169671143608
3350.0 63.211018196982764
3450.0 63.3402729518579
3550.0 63.82497841055984
3650.0 64.39279808183896
3750.0 64.44383277792441
3870.0 65.32197934433518
4000.0 65.22951033666392
4120.0 65.48174367384236
4250.0 65.13384938795583
4370.0 65.57861451138051
4500.0 65.54776119054935
4620.0 64.78271928600839
4750.0 62.61859934068143
4870.0 62.96110304416942
5000.0 63.053679632636275
5150.0 64.29478553049343
5300.0 63.95052429928502
5450.0 62.675644849942174
5600.0 61.876191125860785
5800.0 65.00972937011403
6000.0 65.06442180546526
6150.0 66.2833329231015
6300.0 67.47449130141798
6500.0 65.98010053261439
6700.0 65.0277947736859
6900.0 65.5260929194069
7100.0 64.89996485413964
7300.0 65.56463015004167
7500.0 64.97195851553359
7750.0 64.94166295009491
8000.0 64.99512250786402
8250.0 62.44578232367307
8500.0 63.80812927345029
8750.0 62.67382305782931
9000.0 64.92843930479528
9250.0 68.36699277328476
9500.0 66.87522197747012
9750.0 64.87903406753857
10000.0 65.85282660949245
10300.0 67.16755572283276
10600.0 67.57962955094939
10900.0 65.12542668344456
11200.0 66.57027644304719
11500.0 64.14644661646496
11800.0 60.8456951376951
12200.0 63.66660138302419
12500.0 64.02685315273104
12800.0 61.80727711513481
13200.0 57.8140921136946
13600.0 54.46890526272881
14000.0 56.74924136340495
14500.0 58.86734700218199
15000.0 60.94961653173206
15500.0 61.94444379694167
16000.0 59.20431444666501
16500.0 58.42288174793141
17000.0 52.960638281848816
17500.0 51.2951055095339
18000.0 50.200386134541944
18500.0 47.971458902384754
19000.0 43.04100689659238
19500.0 39.449591532945774
