Freq "Listening Window"
22.4 42.94204564666087
23.0 43.38388238096495
23.6 43.79595426660002
24.0 44.33923799416111
25.0 44.83923799416111
25.8 45.34883866987168
26.5 45.804098372131975
27.2 46.23745053767756
28.0 46.65917581404757
29.0 47.08180908610636
30.0 47.50282580483277
30.7 48.013533926369774
31.5 48.51353392636976
32.5 48.99256908851474
33.5 49.413533926369766
34.5 49.81353392636977
35.5 50.21353392636976
36.5 50.73588639966172
37.5 51.21353392636978
38.7 51.69157854454642
40.0 52.102570109634996
41.2 52.50257010963499
42.5 53.002570109635
43.7 53.50257010963499
45.0 53.99079136849065
46.2 54.4586410523403
47.5 54.87976991419724
48.7 55.39079136849064
50.0 55.901784923505105
51.5 56.37976991419724
53.0 56.801784923505096
54.5 57.32319152961712
56.0 57.84601261906411
58.0 58.301784923505096
60.0 58.76872041865981
61.5 59.279769914197246
63.0 59.779769914197246
65.0 60.25711996599536
67.0 60.735384377171
69.0 61.235384377171
71.0 61.71250722304116
73.0 62.21250722304116
75.0 62.71250722304116
77.5 63.11250722304116
80.0 63.62396086372068
82.5 64.09104775809432
85.0 64.52396086372069
87.5 64.99104775809431
90.0 65.40255805872012
92.5 65.86845670446246
95.0 66.24727259632452
97.5 66.66845670446244
100.0 67.02445814420118
103.0 67.39156646309318
106.0 67.72445814420118
109.0 68.04727259632452
112.0 68.33614605110728
115.0 68.61352190583924
118.0 68.85889934695254
122.0 69.05889934695256
125.0 69.21352190583924
128.0 69.32523924215774
132.0 69.40280793444538
136.0 69.40280793444538
140.0 69.40280793444538
145.0 69.30280793444537
150.0 69.17124446289205
155.0 68.92626872914119
160.0 68.6923122450488
165.0 68.39231224504879
170.0 67.99231224504878
175.0 67.58203090257521
180.0 67.18203090257522
185.0 66.78203090257522
190.0 66.47196002211287
195.0 66.20353485787528
200.0 66.0487454174986
206.0 65.92593872146716
212.0 65.87041440597525
218.0 65.79202714924536
224.0 65.63611676281917
230.0 65.43511299152682
236.0 65.26845083805433
240.0 65.2130058166541
250.0 65.4586410523403
258.0 66.0699738260637
265.0 67.02647644578222
272.0 68.10458656127426
280.0 69.18127710423244
290.0 70.14928032556396
300.0 70.88127710423244
307.0 71.40328449402553
315.0 71.68127710423244
325.0 71.7699738260637
335.0 71.6699738260637
345.0 71.41300581665409
355.0 71.1015232095018
365.0 70.76819897766141
375.0 70.4015232095018
387.0 70.06819897766142
400.0 69.75686156553041
412.0 69.52445814420118
425.0 69.56945253554453
437.0 69.95889934695255
450.0 70.51553921841095
462.0 70.98483999645967
475.0 71.16468789709036
487.0 70.94595246484285
500.0 70.48183282735901
515.0 70.00623463042247
530.0 69.8083527829704
545.0 69.98604350072638
560.0 70.27598193158634
580.0 70.5324986872713
600.0 70.79368023749208
615.0 70.93232746360394
630.0 70.75521053210595
650.0 69.84946840237652
670.0 67.90566393570055
690.0 65.03368391386057
710.0 64.42246272930261
730.0 67.25864634415746
750.0 69.062022128489
775.0 69.00871841694428
800.0 68.57059361211927
825.0 69.51496150607898
850.0 70.74650017714227
875.0 71.13125331977929
900.0 70.73570263018266
925.0 69.93284465178455
950.0 69.05694061251901
975.0 67.97337897809524
1000.0 66.92054126273403
1030.0 66.7571823530861
1060.0 66.74001771335732
1090.0 66.56120872593058
1120.0 66.37403124239566
1150.0 66.21462095910739
1180.0 65.96481805060444
1220.0 65.32300555759623
1250.0 66.42544227412877
1280.0 67.49650775370714
1320.0 67.38996794682849
1360.0 66.90617898375248
1400.0 67.37047644034782
1450.0 68.49067280056575
1500.0 68.70813963815348
1550.0 68.79251399097365
1600.0 68.12952008337626
1650.0 69.3832861538561
1700.0 70.10379072042473
1750.0 69.89616232817598
1800.0 70.1773901875369
1850.0 70.15939429087263
1900.0 70.61089734852105
1950.0 70.34151984083589
2000.0 70.37843819745882
2060.0 70.62715973600707
2120.0 70.92654895695401
2180.0 71.58202749643014
2240.0 71.73857466594247
2300.0 71.64978126871573
2360.0 70.72280351917188
2400.0 68.58468131166647
2500.0 68.72204692781692
2580.0 68.24921831047939
2650.0 67.68616357927479
2720.0 68.71843737264203
2800.0 69.59655072180097
2900.0 69.6590272906328
3000.0 68.9837469498791
3070.0 68.50490431414039
3150.0 68.30573981620974
3250.0 68.70191844508231
3350.0 68.723712860799
3450.0 68.88560506196578
3550.0 69.15822286348721
3650.0 69.5599976022927
3750.0 69.62329752386343
3870.0 70.06355389075492
4000.0 69.9873837461263
4120.0 70.11990690222869
4250.0 69.85255874046324
4370.0 70.12107436820423
4500.0 70.2646689709815
4620.0 69.49033168882787
4750.0 67.63758288424255
4870.0 68.29574794003905
5000.0 68.63975890692807
5150.0 69.92357573050337
5300.0 69.48859311099763
5450.0 67.92722004949982
5600.0 66.97872550456016
5800.0 70.36921997215511
6000.0 70.69178005867211
6150.0 72.05612082561156
6300.0 73.28988644602667
6500.0 71.60045492593277
6700.0 70.40171563143528
6900.0 70.74607003949512
7100.0 70.08825228589811
7300.0 70.75006438948226
7500.0 70.1081835949814
7750.0 69.81944111424878
8000.0 69.96308190603735
8250.0 67.34718497657778
8500.0 68.73729036746295
8750.0 67.96477115336971
9000.0 70.85490820044927
9250.0 74.26907867769951
9500.0 72.08018590589415
9750.0 69.47768807436567
10000.0 69.95706495890305
10300.0 71.25298456730346
10600.0 71.21266022597682
10900.0 68.28437092694234
11200.0 68.67973081879146
11500.0 66.8004971098132
11800.0 64.17413625610808
12200.0 67.20880421065108
12500.0 67.70559731338426
12800.0 64.29902269475569
13200.0 58.47790281042215
13600.0 54.00911279335557
14000.0 57.97943750008109
14500.0 61.773785979711604
15000.0 64.91077658193426
15500.0 64.71381549386516
16000.0 59.41652381686313
16500.0 59.026476066291906
17000.0 55.34672997992641
17500.0 55.111617509988264
18000.0 51.12618878564598
18500.0 47.48282397199293
19000.0 42.375168332209356
19500.0 41.75919720561366
