Freq,On Axis,Listening Window,Sound Power,Early Reflections,Early Reflections DI,Sound Power DI,DI offset
22.4,29.599999999999994,29.611480685983906,31.162650326104853,30.464271132004228,9.147209553979678,8.448830359879054,10
23.0,29.599999999999994,29.633589826879955,31.18592137936517,30.493020082222245,9.14056974465771,8.447668447514786,10
23.6,29.599999999999994,29.64550037669821,31.199454649164437,30.509186754869205,9.136313621829004,8.446045727533772,10
24.0,29.599999999999994,29.62293703069969,31.15675234040387,30.48140578813903,9.14153124256066,8.466184690295819,10
25.0,29.599999999999994,29.612246289681394,31.103910195561923,30.45662873280517,9.155617556876223,8.508336094119471,10
25.8,29.599999999999994,29.60102343142833,31.049048533408495,30.43605707770135,9.164966353726982,8.551974898019836,10
26.5,29.599999999999994,29.613777498052286,30.98197192001024,30.413669142432212,9.200108355620074,8.631805578042048,10
27.2,29.69999999999999,29.693076340704295,30.962219864841614,30.45031493461596,9.242761406088334,8.73085647586268,10
28.0,29.80000000000001,29.818131182884258,30.99566185733832,30.555846693680934,9.262284489203324,8.822469325545939,10
29.0,30.0,30.057530297044167,31.139116571040375,30.77058486620456,9.286945430839609,8.918413726003791,10
30.0,30.400000000000006,30.454007527181574,31.431967806184417,31.12788698896057,9.326120538221005,9.022039720997157,10
30.7,31.0,30.98389902799704,31.84354782621827,31.610959239953814,9.372939788043226,9.14035120177877,10
31.5,31.599999999999994,31.660956268758497,32.44829846820173,32.27241957270212,9.388536696056377,9.21265780055677,10
32.5,32.5,32.50027922894958,33.20980147585681,33.09936441435494,9.400914814594643,9.290477753092773,10
33.5,33.400000000000006,33.3973497174095,33.97592153590705,33.90843612161896,9.488913595790535,9.42142818150245,10
34.5,34.29999999999998,34.3021384425289,34.81869847373139,34.80332882168477,9.498809620844128,9.483439968797512,10
35.5,35.400000000000006,35.37526493000513,35.77368699024103,35.81853628852181,9.556728641483318,9.601577939764098,10
36.5,36.29999999999998,36.305691466358084,36.597322237212666,36.69444802318141,9.611243443176676,9.708369229145418,10
37.5,37.30000000000001,37.284234921161556,37.48115357853254,37.6301080137693,9.654126907392254,9.803081342629014,10
38.7,38.3,38.3505572143342,38.424446786238335,38.623519718041365,9.727037496292837,9.926110428095868,10
40.0,39.0,39.046228473781426,39.01091385936962,39.25231592354669,9.793912550234737,10.035314614411803,10
41.2,39.900000000000006,39.865937347499866,39.723699401833,40.005638026861675,9.860299320638191,10.142237945666864,10
42.5,40.599999999999994,40.64774175455662,40.42158826585333,40.72675515259654,9.920986601960081,10.22615348870329,10
43.7,41.29999999999998,41.322389940567405,41.03731277903789,41.35399582602278,9.968394114544623,10.285077161529514,10
45.0,42.0,41.96222473848225,41.61284055550635,41.959036760464116,10.003187978018133,10.349384182975896,10
46.2,42.5,42.502219610197386,42.11039375021818,42.451698667823976,10.05052094237341,10.391825859979207,10
47.5,43.099999999999994,43.052348751434266,42.63031376841418,42.969341808758685,10.083006942675581,10.422034983020083,10
48.7,43.5,43.468889139637724,43.03162706233279,43.37570382512138,10.093185314516347,10.437262077304936,10
50.0,43.900000000000006,43.88622348537268,43.422458877690445,43.763692125345926,10.122531360026755,10.463764607682236,10
51.5,44.2,44.216051121692615,43.754219022416436,44.076555168119256,10.139495953573359,10.46183209927618,10
53.0,44.599999999999994,44.545809296155255,44.068284343717295,44.39277459511737,10.153034701037882,10.47752495243796,10
54.5,44.80000000000001,44.82088289940735,44.36157294358851,44.669010071985696,10.151872827421656,10.459309955818838,10
56.0,45.19999999999999,45.1320546206051,44.64417819842076,44.943495351697734,10.188559268907369,10.487876422184343,10
58.0,45.5,45.4629562913896,44.94235564681071,45.23591764721921,10.227038644170392,10.520600644578892,10
60.0,45.8,45.7838355972806,45.274590092756114,45.5641573729267,10.219678224353899,10.509245504524486,10
61.5,46.20000000000002,46.18383559728059,45.66009527740704,45.95334964784931,10.230485949431284,10.523740319873554,10
63.0,46.7,46.671233134910125,46.141517307172464,46.42751612706266,10.243717007847465,10.529715827737661,10
65.0,47.2,47.137403251127495,46.595090770278176,46.88904019968241,10.248363051445082,10.542312480849318,10
67.0,47.69999999999999,47.68052357459737,47.119116908985106,47.42524965540868,10.255273919188696,10.561406665612267,10
69.0,48.3,48.28052357459738,47.73045440165292,48.026937049559024,10.253586525038358,10.550069172944461,10
71.0,49.0,48.95761921152595,48.38265639438903,48.678772388795124,10.278846822730827,10.574962817136921,10
73.0,49.7,49.64625411065677,49.06837665760442,49.3662113311687,10.28004277948807,10.577877453052352,10
75.0,50.400000000000006,50.36869695129437,49.78554432961391,50.078624316489666,10.290072634804702,10.583152621680455,10
77.5,51.20000000000002,51.12343429349211,50.53143334670466,50.83183122164128,10.29160307185083,10.59200094678745,10
80.0,51.900000000000006,51.82343429349211,51.246577196805575,51.53032642010828,10.293107873383832,10.576857096686538,10
82.5,52.599999999999994,52.54523538608282,51.9554718709729,52.24391552483148,10.301319861251343,10.589763515109922,10
85.0,53.3,53.244982175712025,52.63805494616079,52.92224926590944,10.322732909802582,10.606927229551232,10
87.5,53.900000000000006,53.867431573271745,53.27058859402217,53.55881916210214,10.308612411169605,10.596842979249573,10
90.0,54.5,54.47874146142715,53.868608430426775,54.15275064991526,10.325990811511886,10.610133031000373,10
92.5,55.0,54.989258415310616,54.38083503778658,54.66378464323236,10.325473772078254,10.608423377524034,10
95.0,55.5,55.4782330650839,54.842891985485025,55.13685223734669,10.341380827737211,10.635341079598874,10
97.5,56.0,55.978233065083884,55.331857457639956,55.62975747543382,10.348475589650064,10.646375607443929,10
100.0,56.5,56.478233065083884,55.853246801836875,56.13844324660191,10.339789818481975,10.62498626324701,10
103.0,57.099999999999994,57.067179653759936,56.42328986534778,56.721370985435186,10.34580866832475,10.643889788412153,10
106.0,57.69999999999999,57.667179653759945,57.013629895918214,57.308419935871925,10.35875971788802,10.65354975784173,10
109.0,58.3,58.278233065083896,57.60506563050741,57.906258641220475,10.37197442386342,10.673167434576484,10
112.0,59.0,58.92344601362166,58.22617830480681,58.5305157865572,10.392930227064454,10.697267708814849,10
115.0,59.5,59.48977733405313,58.78372571216474,59.096243906427446,10.393533427625684,10.706051621888392,10
118.0,60.0,59.9343573213356,59.22389410009387,59.528411878594184,10.405945442741412,10.710463221241724,10
122.0,60.400000000000006,60.379004551866785,59.66655176248747,59.97669590288703,10.402308648979755,10.712452789379313,10
125.0,60.900000000000006,60.823191529617134,60.084550768697824,60.40605091933706,10.417140610280072,10.73864076091931,10
128.0,61.29999999999998,61.257125984732156,60.51000941599,60.83309331444235,10.424032670289805,10.747116568742157,10
132.0,61.7,61.66795310641207,60.913464973248836,61.2326805795616,10.435272526850468,10.754488133163235,10
136.0,62.2,62.07926163824011,61.31017277926662,61.64354146509345,10.435720173146663,10.76908885897349,10
140.0,62.5,62.45712598473217,61.65508873582962,61.99206372883617,10.465062255896001,10.80203724890255,10
145.0,62.69999999999999,62.65712598473216,61.86064631712787,62.19489622572071,10.46222975901145,10.796479667604288,10
150.0,62.900000000000006,62.802570109634985,61.977049889681666,62.33352350668726,10.469046602947728,10.825520219953319,10
155.0,62.900000000000006,62.81353392636976,61.98287265747474,62.335900133030734,10.477633793339024,10.830661268895014,10
160.0,62.8,62.73588639966171,61.87121332119892,62.22847868513472,10.507407714526991,10.864673078462786,10
165.0,62.599999999999994,62.55841843958328,61.676518933863036,62.045407538707565,10.513010900875713,10.881899505720241,10
170.0,62.400000000000006,62.302570109635,61.41560492614869,61.79472585882222,10.50784425081278,10.88696518348631,10
175.0,62.2,62.09157854454642,61.17115685172756,61.548666350230434,10.542912194315988,10.920421692818863,10
180.0,62.0,61.87050719423229,60.92825226162118,61.32888837736799,10.5416188168643,10.942254932611107,10
185.0,61.8,61.73693728437405,60.77439391922523,61.18261059063383,10.554326693740222,10.962543365148818,10
190.0,61.8,61.6705071942323,60.678002886227944,61.098525146973145,10.571982047259155,10.992504308004357,10
195.0,61.599999999999994,61.5483267607445,60.529489269606316,60.964864935155305,10.583461825589197,11.018837491138186,10
200.0,61.400000000000006,61.34832676074451,60.306433837794,60.7499958234753,10.59833093726921,11.04189292295051,10
206.0,61.20000000000002,61.08180908610635,59.98362935738983,60.45682887381122,10.624980212295128,11.098179728716516,10
212.0,60.8,60.73794063416051,59.61638999408633,60.10276033625409,10.635180297906416,11.121550640074176,10
218.0,60.599999999999994,60.44932748297228,59.28998146563195,59.79946924728233,10.649858235689948,11.159346017340326,10
224.0,60.3,60.22678406324475,59.034620730540865,59.57431561926738,10.65246844397737,11.192163332703885,10
230.0,60.099999999999994,60.004872460388455,58.76458780475346,59.331182344232104,10.67369011615635,11.240284655634994,10
236.0,59.900000000000006,59.76149566744331,58.47565107078147,59.04298173254993,10.71851393489338,11.285844596661846,10
240.0,59.599999999999994,59.50694305857546,58.18599593091906,58.7839126534752,10.72303040510026,11.320947127656396,10
250.0,59.400000000000006,59.29621282489613,57.917554416472996,58.53310634118756,10.763106483708569,11.378658408423135,10
258.0,59.2,59.04099817349683,57.62521879754145,58.27473734977609,10.766260823720742,11.415779375955381,10
265.0,58.79999999999998,58.71841136364998,57.25423292486141,57.91990200988943,10.79850935376055,11.464178438788565,10
272.0,58.5,58.35347325420307,56.840675294280516,57.529916201464204,10.823557052738863,11.512797959922551,10
280.0,58.2,58.06481950354393,56.53347376014678,57.2454581987445,10.819361304799429,11.531345743397154,10
290.0,58.2,58.0317135792567,56.421824221067595,57.160603232000284,10.871110347256419,11.609889358189108,10
300.0,58.2,58.01180076141728,56.35482834841895,57.128009029085746,10.883791732331531,11.656972412998329,10
307.0,58.0,57.88906119035673,56.156057181779516,56.95859477607122,10.930466414285505,11.733004008577211,10
315.0,57.69999999999999,57.56792714791972,55.74214058450167,56.585102303820975,10.982824844098744,11.825786563418049,10
325.0,57.400000000000006,57.22465197936944,55.32298083798884,56.20964286671004,11.0150091126594,11.901671141380604,10
335.0,57.30000000000001,57.13752376818701,55.12676163409171,56.07478631895928,11.062737449227726,12.010762134095302,10
345.0,57.400000000000006,57.17063145798548,55.04511161044711,56.05446819458041,11.11616326340507,12.12551984753837,10
355.0,57.400000000000006,57.22828901233751,54.95254522957029,56.02883859802313,11.199450414314384,12.275743782767222,10
365.0,57.5,57.31785479713439,54.91223084445218,56.05399663469848,11.263858162435909,12.405623952682205,10
375.0,57.69999999999999,57.47570307951506,54.949433551347965,56.17276875412729,11.302934325387767,12.526269528167091,10
387.0,58.0,57.7967715630258,55.11449664244323,56.401208489900725,11.395563073125075,12.682274920582572,10
400.0,58.2,58.03286374380555,55.231536877304904,56.59110954177238,11.441754202033167,12.801326866500645,10
412.0,58.3,58.044529081427555,55.110010106293146,56.54425547905704,11.500273602370513,12.93451897513441,10
425.0,58.099999999999994,57.84452908142755,54.8012891225102,56.28977411229556,11.554754969131992,13.043239958917354,10
437.0,57.900000000000006,57.67421034118932,54.516389523736336,56.06936504874287,11.604845292446456,13.157820817452986,10
450.0,57.69999999999999,57.46339882721344,54.228245503486434,55.82763786548739,11.63576096172605,13.235153323727005,10
462.0,57.599999999999994,57.39462816487867,54.05408147253739,55.69226227355264,11.702365891326025,13.340546692341277,10
475.0,57.8,57.537823619974034,54.11201096131391,55.80408047209302,11.733743147881015,13.42581265866012,10
487.0,58.2,57.93806583322272,54.4251879918849,56.16794777529434,11.770118057928386,13.512877841337826,10
500.0,58.79999999999998,58.50231749088002,54.92121118472538,56.71820405045138,11.78411344042864,13.581106306154638,10
515.0,59.0,58.75838024991182,55.08040780862119,56.9432486031866,11.81513164672522,13.677972441290635,10
530.0,58.900000000000006,58.669456051109364,54.90981298707493,56.83304139700583,11.836414654103535,13.759643064034435,10
545.0,58.79999999999998,58.54562859690729,54.68274351733649,56.677964600529975,11.867663996377317,13.862885079570802,10
560.0,58.5,58.21403601393634,54.26993134234286,56.331791245753706,11.88224476818263,13.944104671593479,10
580.0,58.099999999999994,57.82575196513403,53.78439272100343,55.92648655965833,11.899265405475703,14.041359244130604,10
600.0,57.8,57.547063573265845,53.422751271728714,55.642424284203884,11.904639289061961,14.124312301537131,10
615.0,57.5,57.19402157471271,52.96319981183939,55.241402130610666,11.95261944410204,14.230821762873319,10
630.0,57.099999999999994,56.76011278052064,52.447962765375365,54.788031823899885,11.972080956620758,14.312150015145278,10
650.0,57.0,56.72831117633564,52.3109923897743,54.703434497261355,12.024876679074282,14.417318786561339,10
670.0,57.0,56.67433759361016,52.185689911858304,54.6311993001308,12.043138293479359,14.488647681751857,10
690.0,56.900000000000006,56.508202265705805,51.921234755342965,54.418158691831565,12.09004357387424,14.58696751036284,10
710.0,56.900000000000006,56.53112627118553,51.83579381319605,54.38386308558307,12.147263185602455,14.69533245798948,10
730.0,56.900000000000006,56.50001489670542,51.697372050451094,54.28207470271883,12.217940193986593,14.80264284625433,10
750.0,56.900000000000006,56.44432455528428,51.551921217369426,54.18976914964661,12.254555405637674,14.892403337914857,10
775.0,57.599999999999994,57.146871244381,52.12894872836594,54.80815007912916,12.33872116525184,15.017922516015062,10
800.0,58.400000000000006,58.012440697952954,52.91136302586625,55.61442173271459,12.398018965238364,15.101077672086703,10
825.0,58.79999999999998,58.324712526497464,53.11061788369935,55.87709079127461,12.447621735222853,15.214094642798116,10
850.0,58.70000000000002,58.258417599729995,52.94981749883303,55.75455043953687,12.503867160193124,15.308600100896967,10
875.0,58.5,58.025935250572104,52.613580412756164,55.46364068417715,12.562294566394954,15.41235483781594,10
900.0,58.099999999999994,57.61641497572826,52.125598611412244,55.01725693650104,12.59915803922722,15.490816364316018,10
925.0,57.900000000000006,57.35282910644479,51.78604844919866,54.7085779465872,12.644251159857589,15.566780657246127,10
950.0,58.2,57.643305520151884,52.006480723275516,54.965414173341486,12.677891346810398,15.636824796876368,10
975.0,58.70000000000002,58.16405018161184,52.4857099873408,55.46044796983739,12.703602211774452,15.678340194271044,10
1000.0,58.70000000000002,58.17799266705646,52.488066273619665,55.47522880878884,12.702763858267616,15.689926393436792,10
1030.0,58.79999999999998,58.25839046947415,52.54565999494942,55.539444077800155,12.718946391673995,15.712730474524733,10
1060.0,59.3,58.737370810414674,53.00556839821954,55.998636283759964,12.73873452665471,15.731802412195137,10
1090.0,59.400000000000006,58.82671558465262,53.0965091792431,56.08453110923844,12.742184475414177,15.730206405409518,10
1120.0,59.2,58.5950114539919,52.89863334853035,55.87076959761434,12.72424185637756,15.696378105461548,10
1150.0,59.099999999999994,58.542235189699966,52.900061029945476,55.8292802543327,12.712954935367264,15.64217415975449,10
1180.0,59.3,58.67461428221631,53.09003308735869,55.96780950452319,12.706804777693122,15.58458119485762,10
1220.0,59.3,58.75106805987582,53.263166559749294,56.0998478375264,12.651220222349423,15.487901500126526,10
1250.0,59.099999999999994,58.58301581774539,53.184083575365676,55.97720869469876,12.605807123046631,15.398932242379715,10
1280.0,59.0,58.41575228991559,53.1430287333106,55.90931502671174,12.50643726320385,15.272723556604987,10
1320.0,58.900000000000006,58.43427406887771,53.27822934828434,56.02191319784933,12.412360871028383,15.156044720593371,10
1360.0,58.79999999999998,58.36349927426966,53.35844878343346,56.08428557676392,12.279213697505739,15.005050490836197,10
1400.0,58.400000000000006,58.04632247299469,53.14037972696971,55.851745421626106,12.194577051368583,14.905942746024976,10
1450.0,58.099999999999994,57.776405186281906,53.007612878082,55.73941852096668,12.036986665315226,14.768792308199906,10
1500.0,57.900000000000006,57.671263874891025,53.02874511390573,55.767635555148374,11.903628319742651,14.642518760985297,10
1550.0,57.599999999999994,57.39122023362279,52.84306218788615,55.59916882720236,11.792051406420427,14.548158045736642,10
1600.0,57.2,57.077097087835654,52.63382693772354,55.39138734611015,11.685709741725503,14.443270150112113,10
1650.0,56.8,56.8215252013362,52.40960187942967,55.18877135443705,11.63275384689915,14.411923321906528,10
1700.0,56.29999999999998,56.3447843022023,51.958712024860105,54.7553442156112,11.589440086591097,14.386072277342194,10
1750.0,56.0,56.183725115468775,51.81079281390981,54.619257105705515,11.56446800976326,14.372932301558961,10
1800.0,56.5,56.70010854284982,52.2697295652803,55.10615346330573,11.593955079544088,14.430378977569518,10
1850.0,56.5,56.82503528484688,52.33938727254241,55.18674314860479,11.638292136242086,14.485648012304466,10
1900.0,56.0,56.40623344400949,51.85463842786896,54.71793499055998,11.688298453449505,14.551595016140524,10
1950.0,55.400000000000006,55.9146486184643,51.274843814842455,54.195920232491446,11.718728385972852,14.639804803621843,10
2000.0,55.19999999999999,55.82640044409622,51.08514906830456,54.045122004789036,11.781278439307187,14.741251375791663,10
2060.0,55.19999999999999,55.86307064816819,51.02927068283526,54.034113897223506,11.828956750944684,14.833799965332929,10
2120.0,55.3,56.04506340366406,51.11479594457789,54.169091764743314,11.875971638920745,14.930267459086167,10
2180.0,55.599999999999994,56.348204948735926,51.35647289907328,54.45532430386078,11.892880644875149,14.991732049662644,10
2240.0,55.8,56.57859323147383,51.52730106439492,54.65992675115248,11.918666480321349,15.051292167078913,10
2300.0,55.900000000000006,56.69796666221501,51.650071639128186,54.79619960198272,11.901767060232288,15.047895023086824,10
2360.0,55.900000000000006,56.73520284515476,51.69748167097626,54.83626811373725,11.898934731417512,15.0377211741785,10
2400.0,55.900000000000006,56.717622751731355,51.73877728861831,54.86270802179047,11.854914729940887,14.978845463113046,10
2500.0,56.099999999999994,56.79733265543888,51.90213773963353,55.008751091424585,11.788581564014294,14.895194915805348,10
2580.0,56.20000000000002,56.87257848520039,52.06077838536004,55.12440954351375,11.748168941686643,14.811800099840355,10
2650.0,56.5,57.00386487029222,52.291117662833386,55.33672099522008,11.667143875072142,14.712747207458833,10
2720.0,56.599999999999994,56.990664755397376,52.42960748657639,55.430192570493546,11.56047218490383,14.561057268820988,10
2800.0,56.7,56.85065701203058,52.42787604126134,55.40199992428353,11.448657087747051,14.422780970769239,10
2900.0,57.0,56.932188175213525,52.662601610806945,55.586140901446015,11.34604727376751,14.26958656440658,10
3000.0,57.30000000000001,57.048924252778164,52.93357347238761,55.80943009350527,11.239494159272894,14.115350780390557,10
3070.0,57.5,57.156621674912955,53.18240328075923,56.0067877503527,11.149833924560255,13.974218394153723,10
3150.0,57.599999999999994,57.06775607404842,53.242710309592155,56.00370963916768,11.064046434880737,13.825045764456263,10
3250.0,57.30000000000001,56.7497403584389,53.050975446772085,55.74769438597663,11.00204597246227,13.698764911666814,10
