Freq "Sound Power DI"
22.4 8.448830359879082
23.0 8.447668447514815
23.6 8.446045727533772
24.0 8.466184690295819
25.0 8.508336094119471
25.8 8.551974898019836
26.5 8.63180557804202
27.2 8.73085647586268
28.0 8.822469325545939
29.0 8.918413726003763
30.0 9.022039720997157
30.7 9.14035120177877
31.5 9.212657800556741
32.5 9.290477753092773
33.5 9.421428181502478
34.5 9.483439968797512
35.5 9.601577939764098
36.5 9.708369229145418
37.5 9.803081342628985
38.7 9.926110428095868
40.0 10.035314614411789
41.2 10.142237945666864
42.5 10.22615348870329
43.7 10.2850771615295
45.0 10.349384182975896
46.2 10.391825859979207
47.5 10.422034983020097
48.7 10.437262077304908
50.0 10.463764607682265
51.5 10.46183209927618
53.0 10.477524952437946
54.5 10.459309955818853
56.0 10.487876422184343
58.0 10.520600644578892
60.0 10.5092455045245
61.5 10.523740319873568
63.0 10.529715827737647
65.0 10.54231248084929
67.0 10.561406665612267
69.0 10.550069172944447
71.0 10.574962817136921
73.0 10.577877453052338
75.0 10.583152621680469
77.5 10.59200094678745
80.0 10.576857096686538
82.5 10.589763515109937
85.0 10.606927229551218
87.5 10.596842979249558
90.0 10.610133031000373
92.5 10.608423377524034
95.0 10.63534107959886
97.5 10.646375607443943
100.0 10.62498626324701
103.0 10.643889788412167
106.0 10.653549757841745
109.0 10.67316743457647
112.0 10.697267708814863
115.0 10.706051621888392
118.0 10.710463221241739
122.0 10.712452789379313
125.0 10.738640760919282
128.0 10.747116568742172
132.0 10.754488133163264
136.0 10.76908885897349
140.0 10.802037248902536
145.0 10.796479667604288
150.0 10.825520219953347
155.0 10.830661268895014
160.0 10.864673078462815
165.0 10.881899505720241
170.0 10.886965183486296
175.0 10.920421692818863
180.0 10.942254932611107
185.0 10.96254336514879
190.0 10.992504308004342
195.0 11.0188374911382
200.0 11.041892922950524
206.0 11.09817972871653
212.0 11.121550640074148
218.0 11.159346017340326
224.0 11.19216333270387
230.0 11.240284655634994
236.0 11.285844596661818
240.0 11.320947127656396
250.0 11.37865840842312
258.0 11.415779375955381
265.0 11.464178438788565
272.0 11.512797959922565
280.0 11.531345743397125
290.0 11.609889358189108
300.0 11.656972412998314
307.0 11.733004008577211
315.0 11.825786563418049
325.0 11.90167114138059
335.0 12.010762134095273
345.0 12.125519847538357
355.0 12.275743782767194
365.0 12.405623952682205
375.0 12.526269528167091
387.0 12.682274920582543
400.0 12.80132686650063
412.0 12.93451897513441
425.0 13.043239958917368
437.0 13.157820817452986
450.0 13.23515332372699
462.0 13.340546692341292
475.0 13.425812658660135
487.0 13.512877841337826
500.0 13.581106306154624
515.0 13.677972441290635
530.0 13.759643064034421
545.0 13.862885079570816
560.0 13.944104671593479
580.0 14.041359244130604
600.0 14.124312301537117
615.0 14.230821762873347
630.0 14.312150015145292
650.0 14.417318786561339
670.0 14.488647681751885
690.0 14.58696751036284
710.0 14.69533245798948
730.0 14.80264284625433
750.0 14.892403337914857
775.0 15.017922516015048
800.0 15.101077672086689
825.0 15.21409464279813
850.0 15.308600100896939
875.0 15.412354837815954
900.0 15.490816364316018
925.0 15.566780657246156
950.0 15.636824796876354
975.0 15.678340194271058
1000.0 15.689926393436764
1030.0 15.712730474524733
1060.0 15.731802412195137
1090.0 15.730206405409518
1120.0 15.696378105461548
1150.0 15.64217415975449
1180.0 15.58458119485762
1220.0 15.487901500126497
1250.0 15.398932242379715
1280.0 15.272723556604987
1320.0 15.156044720593385
1360.0 15.005050490836183
1400.0 14.905942746024976
1450.0 14.768792308199906
1500.0 14.642518760985297
1550.0 14.548158045736656
1600.0 14.443270150112085
1650.0 14.411923321906528
1700.0 14.386072277342194
1750.0 14.372932301558933
1800.0 14.430378977569504
1850.0 14.48564801230448
1900.0 14.55159501614051
1950.0 14.639804803621857
2000.0 14.741251375791691
2060.0 14.8337999653329
2120.0 14.930267459086181
2180.0 14.991732049662644
2240.0 15.051292167078898
2300.0 15.04789502308681
2360.0 15.037721174178486
2400.0 14.97884546311306
2500.0 14.895194915805362
2580.0 14.81180009984034
2650.0 14.712747207458833
2720.0 14.561057268820988
2800.0 14.422780970769224
2900.0 14.269586564406595
3000.0 14.115350780390528
3070.0 13.974218394153723
3150.0 13.825045764456263
3250.0 13.698764911666814
3350.0 13.600838728198497
3450.0 13.572973670654903
3550.0 13.563208302680138
3650.0 13.599045225799102
3750.0 13.690101923950735
3870.0 13.79122266651089
4000.0 13.932268902010534
4120.0 14.05490082533791
4250.0 14.179294105190621
4370.0 14.300739701965014
4500.0 14.362150748653079
4620.0 14.484243125099454
4750.0 14.536205516227227
4870.0 14.617666661938841
5000.0 14.70263087585306
5150.0 14.802401659527618
5300.0 14.892392760378684
5450.0 14.994196678272829
5600.0 15.084547125796917
5800.0 15.228607535848212
6000.0 15.360426459093958
6150.0 15.53439892415085
6300.0 15.653887292887859
6500.0 15.817314292881917
6700.0 16.012724620966722
6900.0 16.164557840352728
7100.0 16.349025857875347
7300.0 16.529067773251313
7500.0 16.683405477955304
7750.0 16.844074903731737
8000.0 17.011553118806162
8250.0 17.154813809151022
8500.0 17.288307944085574
8750.0 17.402122955238212
9000.0 17.5128220159626
9250.0 17.60920460747147
9500.0 17.716752246018217
9750.0 17.821673031000273
10000.0 17.962462565786453
10300.0 18.06619108579713
10600.0 18.23451271553148
10900.0 18.375254803692954
11200.0 18.522984082944518
11500.0 18.684697777631854
11800.0 18.824143756751326
12200.0 18.937940707951412
12500.0 19.045622786966902
12800.0 19.12175672851906
13200.0 19.170173720992636
13600.0 19.133850968315585
14000.0 19.10068574241741
14500.0 18.98822155764111
15000.0 18.837886684065495
15500.0 18.70767835537744
16000.0 18.50551608625706
16500.0 18.30386350853479
17000.0 18.118494853166226
17500.0 17.92029834856912
18000.0 17.72136484896619
18500.0 17.454960754422245
19000.0 17.141926190421074
19500.0 16.788213503236165
