Freq "Sound Power"
22.4 31.162650326104853
23.0 31.18592137936517
23.6 31.199454649164437
24.0 31.15675234040387
25.0 31.103910195561923
25.8 31.049048533408495
26.5 30.98197192001024
27.2 30.962219864841614
28.0 30.99566185733832
29.0 31.139116571040375
30.0 31.431967806184417
30.7 31.84354782621827
31.5 32.44829846820173
32.5 33.20980147585681
33.5 33.97592153590705
34.5 34.81869847373139
35.5 35.77368699024103
36.5 36.597322237212666
37.5 37.48115357853254
38.7 38.424446786238335
40.0 39.01091385936962
41.2 39.723699401833
42.5 40.42158826585333
43.7 41.03731277903789
45.0 41.61284055550635
46.2 42.11039375021818
47.5 42.63031376841418
48.7 43.03162706233279
50.0 43.422458877690445
51.5 43.754219022416436
53.0 44.068284343717295
54.5 44.36157294358851
56.0 44.64417819842076
58.0 44.94235564681071
60.0 45.274590092756114
61.5 45.66009527740704
63.0 46.141517307172464
65.0 46.595090770278176
67.0 47.119116908985106
69.0 47.73045440165292
71.0 48.38265639438903
73.0 49.06837665760442
75.0 49.78554432961391
77.5 50.53143334670466
80.0 51.246577196805575
82.5 51.9554718709729
85.0 52.63805494616079
87.5 53.27058859402217
90.0 53.868608430426775
92.5 54.38083503778658
95.0 54.842891985485025
97.5 55.331857457639956
100.0 55.853246801836875
103.0 56.42328986534778
106.0 57.013629895918214
109.0 57.60506563050741
112.0 58.22617830480681
115.0 58.78372571216474
118.0 59.22389410009387
122.0 59.66655176248747
125.0 60.084550768697824
128.0 60.51000941599
132.0 60.913464973248836
136.0 61.31017277926662
140.0 61.65508873582962
145.0 61.86064631712787
150.0 61.977049889681666
155.0 61.98287265747474
160.0 61.87121332119892
165.0 61.676518933863036
170.0 61.41560492614869
175.0 61.17115685172756
180.0 60.92825226162118
185.0 60.77439391922523
190.0 60.678002886227944
195.0 60.529489269606316
200.0 60.306433837794
206.0 59.98362935738983
212.0 59.61638999408633
218.0 59.28998146563195
224.0 59.034620730540865
230.0 58.76458780475346
236.0 58.47565107078147
240.0 58.18599593091906
250.0 57.917554416472996
258.0 57.62521879754145
265.0 57.25423292486141
272.0 56.840675294280516
280.0 56.53347376014678
290.0 56.421824221067595
300.0 56.35482834841895
307.0 56.156057181779516
315.0 55.74214058450167
325.0 55.32298083798884
335.0 55.12676163409171
345.0 55.04511161044711
355.0 54.95254522957029
365.0 54.91223084445218
375.0 54.949433551347965
387.0 55.11449664244323
400.0 55.231536877304904
412.0 55.110010106293146
425.0 54.8012891225102
437.0 54.516389523736336
450.0 54.228245503486434
462.0 54.05408147253739
475.0 54.11201096131391
487.0 54.4251879918849
500.0 54.92121118472538
515.0 55.08040780862119
530.0 54.90981298707493
545.0 54.68274351733649
560.0 54.26993134234286
580.0 53.78439272100343
600.0 53.422751271728714
615.0 52.96319981183939
630.0 52.447962765375365
650.0 52.3109923897743
670.0 52.185689911858304
690.0 51.921234755342965
710.0 51.83579381319605
730.0 51.697372050451094
750.0 51.551921217369426
775.0 52.12894872836594
800.0 52.91136302586625
825.0 53.11061788369935
850.0 52.94981749883303
875.0 52.613580412756164
900.0 52.125598611412244
925.0 51.78604844919866
950.0 52.006480723275516
975.0 52.4857099873408
1000.0 52.488066273619665
1030.0 52.54565999494942
1060.0 53.00556839821954
1090.0 53.0965091792431
1120.0 52.89863334853035
1150.0 52.900061029945476
1180.0 53.09003308735869
1220.0 53.263166559749294
1250.0 53.184083575365676
1280.0 53.1430287333106
1320.0 53.27822934828434
1360.0 53.35844878343346
1400.0 53.14037972696971
1450.0 53.007612878082
1500.0 53.02874511390573
1550.0 52.84306218788615
1600.0 52.63382693772354
1650.0 52.40960187942967
1700.0 51.958712024860105
1750.0 51.81079281390981
1800.0 52.2697295652803
1850.0 52.33938727254241
1900.0 51.85463842786896
1950.0 51.274843814842455
2000.0 51.08514906830456
2060.0 51.02927068283526
2120.0 51.11479594457789
2180.0 51.35647289907328
2240.0 51.52730106439492
2300.0 51.650071639128186
2360.0 51.69748167097626
2400.0 51.73877728861831
2500.0 51.90213773963353
2580.0 52.06077838536004
2650.0 52.291117662833386
2720.0 52.42960748657639
2800.0 52.42787604126134
2900.0 52.662601610806945
3000.0 52.93357347238761
3070.0 53.18240328075923
3150.0 53.242710309592155
3250.0 53.050975446772085
3350.0 53.01253812191193
3450.0 53.089140597722505
3550.0 52.75839699073471
3650.0 52.32222321541482
3750.0 52.29952909473229
3870.0 52.623125372161155
4000.0 53.09905667241648
4120.0 53.57160237916197
4250.0 53.812525845478575
4370.0 53.883884563751735
4500.0 53.89075128417076
4620.0 53.92476084670072
4750.0 53.884930068493176
4870.0 53.7514699017876
5000.0 53.43909472745899
5150.0 52.98852439461483
5300.0 52.7144010253938
5450.0 52.7134674994292
5600.0 52.53491358916271
5800.0 52.105951468211146
6000.0 51.5634649782597
6150.0 51.288687576491796
6300.0 51.291108806902756
6500.0 51.17571195813787
6700.0 50.95798377797692
6900.0 50.81837607109722
7100.0 50.985479632258475
7300.0 50.99977880732132
7500.0 50.73526254700903
7750.0 50.508617973114056
8000.0 50.362649433381705
8250.0 50.39994328819999
8500.0 50.3537640721661
8750.0 50.09592613491418
9000.0 49.73645252741147
9250.0 49.22540134845896
9500.0 48.78053624175159
9750.0 48.55835250353405
10000.0 48.326158862887226
10300.0 48.143628844667305
10600.0 47.90219663983983
10900.0 47.67689113720195
11200.0 47.426358458717885
11500.0 47.15714357870874
11800.0 47.08635627148945
12200.0 47.15854987469329
12500.0 47.219820031188846
12800.0 47.24965713635464
13200.0 47.280958344075714
13600.0 47.34029046804794
14000.0 47.40673749994194
14500.0 47.52390331296853
15000.0 47.685151178304906
15500.0 47.59303770829507
16000.0 47.178540300054834
16500.0 46.442891044752116
17000.0 45.57399498680718
17500.0 44.76792792771255
18000.0 43.69168705079461
18500.0 42.34410833458145
19000.0 41.10897023229241
19500.0 40.337588033278294
