Freq,Floor Bounce,Ceiling Bounce,Front Wall Bounce,Side Wall Bounce,Rear Wall Bounce,Total Early Reflection
22.4,34.073564470437006,33.87439044574562,23.56623928979873,26.955250034197448,27.01523788665169,30.949170699031
23.0,39.51547587668249,38.06283220494588,25.19169978656892,28.687031394253026,28.94610294651953,35.36557864678541
23.6,50.33872252961528,46.6396213047163,32.60647195987245,35.166047155450784,36.07696954519186,45.142807736169416
24.0,52.69798780913497,49.87814993873236,37.5731793411651,39.14507926425797,39.609787102278986,47.87359183321824
25.0,52.28781136205056,50.76156407682954,41.32170636380842,42.36909744043005,41.81002812464065,48.25423702132905
25.8,52.019092812471385,50.89228438342646,44.00107069944467,44.62302477049387,43.236569918770115,48.53922520211189
26.5,51.77251997185492,50.80952998416528,45.87668987366688,46.18696563150148,44.1284689584388,48.77398153933548
27.2,51.377465048852585,50.50906717752146,47.05486460511209,47.11142470665102,44.76422914710126,48.829674691579314
28.0,51.18956971763835,50.27608912035906,47.96659548055608,47.90783551240632,45.30393208372756,48.99132195490644
29.0,51.17524564591561,50.24216389947257,48.825132748695594,48.587472109627484,45.889407288808044,49.285530731562815
30.0,51.59661233830194,50.62086252201884,49.93390246686404,49.57123584046106,46.81185236500234,49.972831961282864
30.7,52.6821598430799,51.61074144396319,51.43904475374579,51.023762585155836,48.25285785770858,51.226050734668846
31.5,54.264945328517186,53.16682838366886,53.39247630911346,52.880091982124284,50.12795541432523,52.96581784858181
32.5,56.28828378242473,55.148759362769155,55.71956225341144,55.15912754265305,52.460406680257634,55.132531654713844
33.5,58.52567146522743,57.428159799297404,58.201055718186595,57.60196717500496,54.9874963881163,57.50837184105329
34.5,60.76877306599245,59.58579331883389,60.57190173325522,59.94452581400928,57.42934495177401,59.808217890807285
35.5,62.74769768242119,61.56854722710848,62.62871604396564,62.02689243315034,59.655917171421024,61.85712088437127
36.5,64.5028774552202,63.460431513302865,64.52805879009311,63.88415979010078,61.70381107550567,63.72967115255679
37.5,66.26988210448539,65.30748524320694,66.27253757630704,65.66415986881928,63.704402695004944,65.5390561734627
38.7,67.90978978940112,67.08270787309011,67.92998572777893,67.34497372834088,65.58359499998635,67.2493222470054
40.0,69.54032846468888,68.84931517219991,69.54898017964429,68.95997043830472,67.41470867111504,68.92830187443452
41.2,71.22302508422065,70.7191152132697,71.1789682367643,70.57781701713601,69.26213787833885,70.64704024531844
42.5,72.9038280908171,72.58993909350829,72.85345739982769,72.23566345689922,71.11579891562205,72.38664721816876
43.7,74.96369595267144,74.80812902663693,74.8534573998277,74.19407032338272,73.25899711861577,74.46023300474066
45.0,76.29406551548617,76.23412863071434,76.1789682367643,75.51261034728462,74.60850312354138,75.81112835561997
46.2,77.22947464023802,77.26449231236633,77.1331965259697,76.41305129475296,75.51725599602551,76.76124995232095
47.5,78.39793024513959,78.43311493307124,78.38609439290389,77.6125565404913,76.63829242332947,77.94695641819504
48.7,79.530955643266,79.53391691963472,79.62634539984835,78.77263115899017,77.69588227112945,79.0907683441397
50.0,80.39406551548619,80.36449231236632,80.58180730755673,79.71387949873335,78.5213896605985,79.9769803088412
51.5,81.19174584596435,81.16449231236632,81.53847809630886,80.61387949873334,79.31136106698206,80.83042339008665
53.0,82.12481812736702,81.9955586407808,82.5528577896567,81.59534490362131,80.19637340511254,81.76356306440286
54.5,82.95764045979138,82.79406551548617,83.39637555370076,82.47765426754913,81.02370272447261,82.6005513224673
56.0,83.75840204159645,83.56151834842457,84.25417993373823,83.33555516566558,81.87634173746017,83.42653630229266
58.0,84.62481812736705,84.39406551548619,85.12603923383162,84.217533708758,82.80176658583612,84.29867497690616
60.0,85.45918122469125,85.19406551548617,85.92603923383162,85.0784935754672,83.68055205334086,85.12932025448565
61.5,86.02637057880916,85.72712020395394,86.45417993373823,85.63969437320398,84.2921422932336,85.68546399820664
63.0,86.45918122469125,86.12712020395394,86.79637555370076,85.99626435396002,84.73464310815768,86.07651708513
65.0,86.85918122469126,86.52712020395394,87.13913377535025,86.35846748308275,85.11744831751791,86.45312190247235
67.0,87.25918122469123,86.89406551548619,87.43913377535026,86.69753252576805,85.45924420385435,86.80263299525897
69.0,87.65918122469125,87.22637057880918,87.78245647795204,87.05846748308272,85.78522567638326,87.15727268157738
71.0,88.12712020395394,87.62712020395394,88.18245647795203,87.45846748308274,86.14467959644334,87.56690169972569
73.0,88.56068638958328,88.02712020395394,88.59736125614778,87.85846748308275,86.52484792066747,87.97514960234624
75.0,88.99250147096575,88.46068638958327,89.05384563047046,88.25846748308274,86.92484792066746,88.40231521076458
77.5,89.39250147096574,88.89555864078079,89.48245647795203,88.75846748308273,87.3554998343083,88.83987080512073
80.0,89.69250147096575,89.1955586407808,89.83913377535026,89.0784935754672,87.71763815737718,89.16585537080972
82.5,89.89250147096574,89.430955643266,90.03913377535025,89.27849357546721,87.92757915778226,89.37443006558777
85.0,89.99250147096576,89.56226193179884,90.13913377535026,89.45846748308273,88.12757915778225,89.51093225417164
87.5,89.99250147096576,89.5979302451396,90.13913377535026,89.45846748308273,88.18859827026971,89.52708784820624
90.0,89.79250147096575,89.46541213714728,90.02470849360567,89.29626435396001,88.01056663244702,89.37129797387836
92.5,89.49250147096575,89.12947464023803,89.66784138710871,88.95846748308274,87.6955800287183,89.04116018088405
95.0,89.02712020395394,88.5979302451396,89.16784138710871,88.43969437320398,87.13068935048139,88.52931613810163
97.5,88.65918122469124,88.23095564326601,88.81153993183183,87.98093081911271,86.67862528592919,88.13450562361136
100.0,88.35918122469126,87.96449231236632,88.55384563047046,87.64475251412382,86.34566547683119,87.83967210574183
103.0,88.16068638958329,87.72936870057613,88.41153993183183,87.44475251412383,86.13800886445189,87.64541466522684
106.0,88.09555864078081,87.72936870057613,88.35580577153048,87.34475251412384,86.07918562833179,87.59015806174563
109.0,87.9955586407808,87.72936870057613,88.35580577153048,87.24475251412383,86.12092397831871,87.55504283792257
112.0,87.9955586407808,87.66449231236632,88.35580577153048,87.20910415161676,86.14158039308468,87.53796862355651
115.0,87.930955643266,87.6955586407808,88.37080213666495,87.1892190362823,86.19541656534449,87.53794218385504
118.0,87.930955643266,87.66449231236632,88.37080213666495,87.1892190362823,86.21222904431194,87.5339936237204
122.0,87.930955643266,87.630955643266,88.34403486692584,87.0892190362823,86.1042020042319,87.48637485002537
125.0,87.90014238740363,87.46688093763116,88.24403486692586,86.93719017290374,85.88071196462374,87.36145119541416
128.0,87.76688093763116,87.16688093763115,88.12894562664763,86.68276592459523,85.51125303742876,87.14395322609592
132.0,87.630955643266,86.90333795898574,87.94403486692585,86.45681704968997,85.08191811676159,86.91453466729624
136.0,87.5955586407808,86.67303578170693,87.84403486692585,86.28145080810407,84.65824688923776,86.74943909262294
140.0,87.56226193179886,86.57303578170692,87.75580577153048,86.24120199654116,84.24805449605107,86.6426123713698
145.0,87.52712020395394,86.50625030623446,87.68440375114336,86.34120199654116,83.9096214846975,86.58313821760888
150.0,87.39250147096574,86.50625030623446,87.49702255028845,86.31041132940133,83.68206660094702,86.47174762256601
155.0,87.19250147096575,86.40625030623447,87.22470849360569,86.16457777561779,83.57944474000548,86.29478217812877
160.0,86.82712020395394,86.23391691963471,86.92470849360568,85.85731439196758,83.5097401095759,86.02917779601326
165.0,86.59555864078081,86.06449231236633,86.7678413871087,85.63719017290374,83.52793601676397,85.85979436286748
170.0,86.66449231236633,86.26449231236631,86.98440375114338,85.73719017290375,83.9410408199411,86.04000264536342
175.0,86.80014238740364,86.49555864078079,87.19930185933599,85.82650290954743,84.32770237341147,86.23866858358856
180.0,86.73632241606761,86.49793024513959,87.24403486692584,85.70669748040105,84.3294997927617,86.21464312679709
185.0,86.40625030623447,86.13412863071433,87.01771653387924,85.28145080810407,83.75646222180158,85.85655880668904
190.0,85.71387919964614,85.50333795898574,86.46329339013133,84.49607615736514,82.74098529951647,85.15951401408147
195.0,85.15163782574734,85.10333795898573,86.06329339013134,83.87487602977593,81.87649497265802,84.63402854346852
200.0,85.06157840591169,85.30625030623447,86.1331965259697,83.83624869672667,81.68812710174035,84.65377701244503
206.0,85.24584801980036,85.84321768793896,86.56329339013134,84.1562257477758,81.9386101423799,85.02025926235117
212.0,85.68599930854906,86.41387919964613,87.16329339013133,84.67034703562793,82.3530989249232,85.54772341155493
218.0,86.15951326425824,86.72302508422067,87.63769003898022,85.11321513675374,82.57440967961355,85.95310815078226
224.0,86.5191152132697,86.70624876081196,87.83769003898023,85.35177561129184,82.45768238771763,86.11486617527514
230.0,86.80624876081195,86.5191152132697,87.99184226835622,85.55177561129183,82.25736334730995,86.20131992473998
236.0,86.93368319972761,86.42670513631482,88.11771653387925,85.72393631114527,82.22908558478795,86.27725533654005
240.0,86.93368319972761,86.42670513631482,88.14403486692586,85.90009982132288,82.28880176868948,86.32148563326314
250.0,86.86719889400575,86.52670513631482,88.12894562664763,85.94899922118303,82.24189902869422,86.32767190272725
258.0,86.70624876081196,86.55951326425824,88.02894562664763,85.88576814409107,82.26280644729484,86.25843293830125
265.0,86.37303422441984,86.4792703259952,87.81771653387923,85.58576814409109,82.39796184984971,86.06162409711838
272.0,86.14584801980037,85.99283097287933,87.60944193855265,84.8518828224817,81.90728878778043,85.67405891581744
280.0,86.5336831997276,85.16663336954156,87.5283816425381,84.53439046635545,80.246955315495,85.40258550790836
290.0,86.88501577528324,84.91853932223431,87.63769003898022,84.87495677848564,79.34366735544624,85.49524502855262
300.0,86.8766601649336,85.19989670818288,87.61771653387923,85.10370279569635,79.42042501260411,85.58095264533202
307.0,86.52302508422066,85.50787397458737,87.52894562664763,85.17489473787013,79.69658414927147,85.54632497048881
315.0,85.97303422441983,85.85951326425824,87.44403486692586,85.17047056094292,79.87771155448502,85.47117248726511
325.0,85.67303422441984,86.08599930854906,87.34403486692587,85.26703178230993,80.34529498025087,85.47126156811034
335.0,85.28599930854907,86.05951326425823,87.24403486692584,85.26893097601659,81.17708266593304,85.41347083133383
345.0,84.65874836652041,85.60787397458736,86.85345739982769,84.4184636952045,80.77964099180296,84.87671745621508
355.0,84.71642962100941,84.9493151721999,86.62272305987489,83.60998016683452,78.25587836474686,84.3610629641983
365.0,84.49131622150753,85.00046693023295,86.50007273399807,83.59225698554071,77.22051725177042,84.2345432264352
375.0,83.8094377375704,85.06796788152779,86.29163254563714,83.4501962817278,77.76748193916701,84.04322263690251
387.0,83.81642962100942,83.84237607476113,85.99860849235708,82.96261108031315,78.00552894600901,83.58695912591797
400.0,84.40046693023295,82.2805337670597,85.95088518604102,82.80370279569634,76.72959839404321,83.32821936422731
412.0,84.06663336954156,81.87680057505501,85.79860849235709,82.49150046387948,75.21253123853297,83.00980259905454
425.0,84.09131622150751,82.13326204011545,85.51748923097476,81.7833481396847,74.04236661960806,82.79822552622407
437.0,84.9615784059117,82.86015771268491,85.66846964742494,81.93330537287464,75.35066266419467,83.28726052765835
450.0,85.44321768793895,83.27320267289973,86.03474029593772,82.83533361225847,77.0411424573385,83.82625185700769
462.0,85.31028575746379,83.77582500825883,86.24346466533338,83.39798815674777,78.23622943059918,84.09784175415692
475.0,85.31028575746379,83.13862959044452,86.31252281218659,83.3634890017188,79.27420258544716,84.06544021226215
487.0,84.98993909350828,82.36877306599243,86.15088518604101,82.71328970376531,79.92970944586723,83.74889981327152
500.0,83.94197853055994,82.47696203309577,85.66708433761023,80.85532692266061,78.75959393955964,82.96838569368289
515.0,82.62069844584373,83.26326045402286,85.38465262685234,80.72390679967326,75.52894158013778,82.52467183172014
530.0,82.10978978940112,84.20978667155347,85.31526648256157,81.73852489163576,75.49717284093543,82.79160988923928
545.0,82.90333795898573,83.90100838906058,85.09860849235709,81.50396033832668,76.1827432551932,82.77405891087709
560.0,84.130955643266,83.84043833604149,85.00684708452677,81.10003673658606,74.66912441072617,82.9041812858538
580.0,83.79406551548617,84.77582500825883,84.67783436765689,80.70953956569485,75.10360953792501,82.93860617752632
600.0,85.49250147096575,82.70163013751853,84.85163084036044,80.87890444779292,75.1930312967241,83.01714564261418
615.0,86.02481812736703,82.28053057952748,85.2684537353481,82.51622958235528,75.9405105405073,83.51644842666909
630.0,86.22481812736703,84.76052475681557,84.91526648256158,81.97755041017258,76.93015810021858,83.92918499985548
650.0,86.32936870057613,83.514512849012,84.90647294018967,81.54383003961166,76.48673601402788,83.6203159826675
670.0,82.98271090891976,82.13557389596107,84.17491276679327,80.08617142774831,72.31753660046108,81.71910867147088
690.0,81.23326204011545,82.86719889400575,83.81748923097477,79.51924826462312,73.19089085377246,81.31989261636478
710.0,82.98271090891976,81.95736087092818,84.53284477132952,81.15503862553008,74.74822601020784,82.0409926295985
730.0,82.6185393222343,81.88277281019612,84.89702255028843,82.46420776114928,75.03844031016114,82.32542340485789
750.0,77.28502622445946,82.04875936276916,84.4752654560249,80.71235200224461,73.96472173450341,81.05015872459246
775.0,73.11484889533178,79.26307601442473,84.37491276679327,79.97468949872876,69.18127432622892,79.88039409943207
800.0,73.11057127457936,76.54054889286185,84.06430560492869,79.01257879556805,68.42544030332125,79.10744251509568
825.0,74.86006108274783,77.86160104594546,83.99224868612579,78.1133979062243,68.75348471096619,79.18813656793543
850.0,76.49364166599187,79.25848007779216,83.96171425496019,77.47892366063387,68.68561983748845,79.45706302863525
875.0,79.236641264205,79.89818326920106,84.11469499916363,77.08492781739385,68.01712446863554,79.9731445845042
900.0,80.17060809804188,81.6131712438236,84.23560928599369,78.35539650478641,67.2033777586012,80.70341036412694
925.0,80.93586495487033,82.90311372857491,83.9084397970573,76.95528972105218,67.51563342658484,80.93679981495069
950.0,83.03245502904556,83.31712556755474,84.49735356220405,78.46784313721675,68.54280208332214,81.90192883651495
975.0,83.8663072283987,84.52753644782203,84.6766905249574,77.49850120156906,68.05291980929549,82.47161677698224
1000.0,84.0222327277363,85.04486957845198,85.09599758048732,77.98079949823415,68.30273622335953,82.8549778541876
1030.0,84.68824863587106,84.89616089090478,85.05319852744377,77.9476665380917,67.77759136531479,82.97340099408191
1060.0,84.60898555751992,85.07994045753837,85.16827876112693,78.33414722230718,69.578823679429,83.08368876434906
1090.0,85.89245032195255,84.64644220723602,84.95448516928913,77.8177216541817,68.69760017902264,83.26628919163447
1120.0,85.88164945418681,83.87290199208448,84.77631451545393,77.66122457024221,68.84641816700241,83.0004288629715
1150.0,84.95617886143897,83.55023773682645,84.82530130898897,77.65127432029188,68.57290546441864,82.59458281253049
1180.0,84.26303227412427,84.01584878968548,84.82530130898897,77.3315574526318,69.66408159744874,82.48507490884576
1220.0,83.95357228719921,83.57680057505502,85.20322432226969,77.86620663350216,67.64277135845559,82.42915884827896
1250.0,82.51489012406047,84.49511939439402,85.48454384824196,78.38810953809454,70.35784575020928,82.52059473624261
1280.0,82.85493066705465,83.33367314367348,85.4303534698751,78.33848920426182,68.05540459652858,82.21258350175374
1320.0,83.37232616130397,83.21293926829793,84.94149588624819,78.9787103528628,69.509890494793,82.18489901834248
1360.0,82.14486957845199,83.85714000968218,84.85596879551464,79.42309395372278,68.5297293657523,82.08186858121637
1400.0,80.75518530980024,84.11677828629352,84.54937999996179,77.87521869795312,66.26099316959017,81.62937123842612
1450.0,79.64308297655943,83.87536822871968,84.40498993022425,77.70935742756977,67.90039735862965,81.31689427937589
1500.0,78.32026216023164,84.30723692320657,84.66152594176172,77.16955889418375,67.6669405241169,81.38620191639983
1550.0,78.19904799411137,82.73399670998315,84.89171497252366,74.78092138769685,65.49586340842386,80.76115487496213
1600.0,80.73460759855402,83.62128745731066,84.44954979173286,76.59345662035877,66.30800781072655,81.31707862147898
1650.0,80.89738917887973,84.30661128790676,85.40070671338138,79.49298356805726,67.23719830945377,82.21979461299728
1700.0,79.36647830002971,83.7486305697904,85.88756474277811,78.78411592758967,69.39725562358814,82.01783183179718
1750.0,80.54486533153188,81.28277521033438,84.40900455628292,76.46655666667269,67.65021695113406,80.5984415632647
1800.0,79.95922063443079,82.48805182574554,84.2543475664306,76.62761460050505,67.39568132950535,80.7498758022717
1850.0,82.3517807195567,80.41889727746602,83.37793098028423,74.40908165054023,64.81221679826304,80.25537627694243
1900.0,80.80861306705846,78.44407424824779,83.04989761263096,77.21268218650972,67.26668173146858,79.54386544173592
1950.0,80.50861306705848,80.4707943482698,83.54021353807329,75.05229122603575,63.90216342656571,79.861362823826
2000.0,82.03256384042074,78.34609267023944,84.32472018911889,76.33843033246883,66.19517492287305,80.38145368178465
2060.0,82.83127480663507,79.55226572282169,84.73423388532133,79.76151984647949,68.41488301824045,81.342936098002
2120.0,84.10898404822642,80.98600774802149,84.83502568222072,80.12862277949895,68.5341104155752,82.02837609227853
2180.0,81.92095048034828,78.78885886794389,84.61932310637646,79.24805179150584,66.53575754495316,80.86066956175853
2240.0,79.54498357225323,75.8458701131936,83.31415140160148,75.05264445459723,63.21822093244016,78.77459083381208
2300.0,76.93228290414517,72.66463745975281,83.40579876944918,74.43107451071263,61.970147794729215,78.00986021489724
2360.0,76.08185793482168,71.75861640147464,83.1828126163923,72.6566552168612,60.77489827576774,77.53270379166331
2400.0,76.83325367110872,74.30180121326683,83.5881385467682,74.9087278418811,63.08028805684084,78.28165993749391
2500.0,78.6153705238502,75.19657184032137,83.91903818722628,75.18495125374757,64.92603667600817,78.90358637105793
2580.0,79.12783677989887,79.1985441432158,83.99810132921996,73.69328425164818,62.99995793958651,79.45896150289227
2650.0,80.47675655914273,75.5483479988266,83.98767660419298,75.22859191068166,65.3343477669926,79.39225186978763
2720.0,81.71500353553382,79.95747611959504,84.37297859038863,77.8897991759364,66.25055677431465,80.69590568757664
2800.0,81.4121602554265,78.25007515647833,83.59854574582941,75.4236281309833,64.71664738506544,79.75060757335397
2900.0,80.99150106022068,79.00625030623446,82.4214596097499,74.13735378872718,64.11592144554584,79.1205231232966
3000.0,80.5431147999684,76.20016919822856,82.98360888426939,74.17135334020675,66.43530736919226,78.85717320497898
3070.0,81.97373248813521,77.32186047673,83.59962907665815,76.64580290950305,64.27239444074691,79.9073204373794
3150.0,81.43630012948917,78.6339169196347,83.91979482983291,77.59452654578506,64.41981138750002,80.16230184948618
3250.0,80.51782443564898,78.83204328506731,84.42167978398548,76.58572280266236,64.27357557148892,80.12092832447468
3350.0,80.74324196822568,79.54731540917135,84.26244773761215,76.1960028745533,64.39841223595225,80.17037391175624
