Freq "Ceiling Bounce"
22.4 33.87439044574562
23.0 38.06283220494588
23.6 46.6396213047163
24.0 49.87814993873236
25.0 50.76156407682954
25.8 50.89228438342646
26.5 50.80952998416528
27.2 50.50906717752146
28.0 50.27608912035906
29.0 50.24216389947257
30.0 50.62086252201884
30.7 51.61074144396319
31.5 53.16682838366886
32.5 55.148759362769155
33.5 57.428159799297404
34.5 59.58579331883389
35.5 61.56854722710848
36.5 63.460431513302865
37.5 65.30748524320694
38.7 67.08270787309011
40.0 68.84931517219991
41.2 70.7191152132697
42.5 72.58993909350829
43.7 74.80812902663693
45.0 76.23412863071434
46.2 77.26449231236633
47.5 78.43311493307124
48.7 79.53391691963472
50.0 80.36449231236632
51.5 81.16449231236632
53.0 81.9955586407808
54.5 82.79406551548617
56.0 83.56151834842457
58.0 84.39406551548619
60.0 85.19406551548617
61.5 85.72712020395394
63.0 86.12712020395394
65.0 86.52712020395394
67.0 86.89406551548619
69.0 87.22637057880918
71.0 87.62712020395394
73.0 88.02712020395394
75.0 88.46068638958327
77.5 88.89555864078079
80.0 89.1955586407808
82.5 89.430955643266
85.0 89.56226193179884
87.5 89.5979302451396
90.0 89.46541213714728
92.5 89.12947464023803
95.0 88.5979302451396
97.5 88.23095564326601
100.0 87.96449231236632
103.0 87.72936870057613
106.0 87.72936870057613
109.0 87.72936870057613
112.0 87.66449231236632
115.0 87.6955586407808
118.0 87.66449231236632
122.0 87.630955643266
125.0 87.46688093763116
128.0 87.16688093763115
132.0 86.90333795898574
136.0 86.67303578170693
140.0 86.57303578170692
145.0 86.50625030623446
150.0 86.50625030623446
155.0 86.40625030623447
160.0 86.23391691963471
165.0 86.06449231236633
170.0 86.26449231236631
175.0 86.49555864078079
180.0 86.49793024513959
185.0 86.13412863071433
190.0 85.50333795898574
195.0 85.10333795898573
200.0 85.30625030623447
206.0 85.84321768793896
212.0 86.41387919964613
218.0 86.72302508422067
224.0 86.70624876081196
230.0 86.5191152132697
236.0 86.42670513631482
240.0 86.42670513631482
250.0 86.52670513631482
258.0 86.55951326425824
265.0 86.4792703259952
272.0 85.99283097287933
280.0 85.16663336954156
290.0 84.91853932223431
300.0 85.19989670818288
307.0 85.50787397458737
315.0 85.85951326425824
325.0 86.08599930854906
335.0 86.05951326425823
345.0 85.60787397458736
355.0 84.9493151721999
365.0 85.00046693023295
375.0 85.06796788152779
387.0 83.84237607476113
400.0 82.2805337670597
412.0 81.87680057505501
425.0 82.13326204011545
437.0 82.86015771268491
450.0 83.27320267289973
462.0 83.77582500825883
475.0 83.13862959044452
487.0 82.36877306599243
500.0 82.47696203309577
515.0 83.26326045402286
530.0 84.20978667155347
545.0 83.90100838906058
560.0 83.84043833604149
580.0 84.77582500825883
600.0 82.70163013751853
615.0 82.28053057952748
630.0 84.76052475681557
650.0 83.514512849012
670.0 82.13557389596107
690.0 82.86719889400575
710.0 81.95736087092818
730.0 81.88277281019612
750.0 82.04875936276916
775.0 79.26307601442473
800.0 76.54054889286185
825.0 77.86160104594546
850.0 79.25848007779216
875.0 79.89818326920106
900.0 81.6131712438236
925.0 82.90311372857491
950.0 83.31712556755474
975.0 84.52753644782203
1000.0 85.04486957845198
1030.0 84.89616089090478
1060.0 85.07994045753837
1090.0 84.64644220723602
1120.0 83.87290199208448
1150.0 83.55023773682645
1180.0 84.01584878968548
1220.0 83.57680057505502
1250.0 84.49511939439402
1280.0 83.33367314367348
1320.0 83.21293926829793
1360.0 83.85714000968218
1400.0 84.11677828629352
1450.0 83.87536822871968
1500.0 84.30723692320657
1550.0 82.73399670998315
1600.0 83.62128745731066
1650.0 84.30661128790676
1700.0 83.7486305697904
1750.0 81.28277521033438
1800.0 82.48805182574554
1850.0 80.41889727746602
1900.0 78.44407424824779
1950.0 80.4707943482698
2000.0 78.34609267023944
2060.0 79.55226572282169
2120.0 80.98600774802149
2180.0 78.78885886794389
2240.0 75.8458701131936
2300.0 72.66463745975281
2360.0 71.75861640147464
2400.0 74.30180121326683
2500.0 75.19657184032137
2580.0 79.1985441432158
2650.0 75.5483479988266
2720.0 79.95747611959504
2800.0 78.25007515647833
2900.0 79.00625030623446
3000.0 76.20016919822856
3070.0 77.32186047673
3150.0 78.6339169196347
3250.0 78.83204328506731
3350.0 79.54731540917135
3450.0 78.72893423508702
3550.0 80.27761854736194
3650.0 78.91259462885934
3750.0 77.70234893732433
3870.0 76.4700032914842
4000.0 73.82893360977968
4120.0 73.72389877108144
4250.0 73.09326332381312
4370.0 73.29696111251907
4500.0 75.70577171094205
4620.0 76.33983631388865
4750.0 78.14060882468313
4870.0 77.24674123479016
5000.0 75.90978978940112
5150.0 73.12279700838432
5300.0 74.09371396647981
5450.0 74.01192779571663
5600.0 75.05408914156037
5800.0 75.68375411820416
6000.0 77.65518118882363
6150.0 76.23263403962443
6300.0 76.89393230469729
6500.0 75.1383954472361
6700.0 74.44317993749503
6900.0 76.59131622150751
7100.0 77.62558173884952
7300.0 77.86591238171455
7500.0 75.71025870457635
7750.0 71.70787224124292
8000.0 73.56031228213628
8250.0 77.01984405202114
8500.0 76.23326204011545
8750.0 74.70188143885711
9000.0 73.21106372090811
9250.0 77.48184926173765
9500.0 79.43725580008724
9750.0 79.8698820368134
10000.0 78.33175597976474
10300.0 77.85080744616191
10600.0 79.99650056520477
10900.0 79.20810524866081
11200.0 75.98269783003848
11500.0 73.74109409849534
11800.0 75.85055253299831
12200.0 82.15683385542381
12500.0 88.73422750143507
12800.0 82.14017833867105
13200.0 87.03658718258858
13600.0 86.62633524687162
14000.0 81.39502096414763
14500.0 82.01788496678695
15000.0 81.19895660461286
15500.0 77.35493380445776
16000.0 73.26726293340657
16500.0 73.7846687237185
17000.0 72.22345927448772
17500.0 74.97940970437193
18000.0 71.29379072088368
18500.0 66.15982106248
19000.0 67.34225824296556
19500.0 60.55517405564812
