Freq "Front Wall Bounce"
22.4 23.56623928979873
23.0 25.19169978656892
23.6 32.60647195987245
24.0 37.5731793411651
25.0 41.32170636380842
25.8 44.00107069944467
26.5 45.87668987366688
27.2 47.05486460511209
28.0 47.96659548055608
29.0 48.825132748695594
30.0 49.93390246686404
30.7 51.43904475374579
31.5 53.39247630911346
32.5 55.71956225341144
33.5 58.201055718186595
34.5 60.57190173325522
35.5 62.62871604396564
36.5 64.52805879009311
37.5 66.27253757630704
38.7 67.92998572777893
40.0 69.54898017964429
41.2 71.1789682367643
42.5 72.85345739982769
43.7 74.8534573998277
45.0 76.1789682367643
46.2 77.1331965259697
47.5 78.38609439290389
48.7 79.62634539984835
50.0 80.58180730755673
51.5 81.53847809630886
53.0 82.5528577896567
54.5 83.39637555370076
56.0 84.25417993373823
58.0 85.12603923383162
60.0 85.92603923383162
61.5 86.45417993373823
63.0 86.79637555370076
65.0 87.13913377535025
67.0 87.43913377535026
69.0 87.78245647795204
71.0 88.18245647795203
73.0 88.59736125614778
75.0 89.05384563047046
77.5 89.48245647795203
80.0 89.83913377535026
82.5 90.03913377535025
85.0 90.13913377535026
87.5 90.13913377535026
90.0 90.02470849360567
92.5 89.66784138710871
95.0 89.16784138710871
97.5 88.81153993183183
100.0 88.55384563047046
103.0 88.41153993183183
106.0 88.35580577153048
109.0 88.35580577153048
112.0 88.35580577153048
115.0 88.37080213666495
118.0 88.37080213666495
122.0 88.34403486692584
125.0 88.24403486692586
128.0 88.12894562664763
132.0 87.94403486692585
136.0 87.84403486692585
140.0 87.75580577153048
145.0 87.68440375114336
150.0 87.49702255028845
155.0 87.22470849360569
160.0 86.92470849360568
165.0 86.7678413871087
170.0 86.98440375114338
175.0 87.19930185933599
180.0 87.24403486692584
185.0 87.01771653387924
190.0 86.46329339013133
195.0 86.06329339013134
200.0 86.1331965259697
206.0 86.56329339013134
212.0 87.16329339013133
218.0 87.63769003898022
224.0 87.83769003898023
230.0 87.99184226835622
236.0 88.11771653387925
240.0 88.14403486692586
250.0 88.12894562664763
258.0 88.02894562664763
265.0 87.81771653387923
272.0 87.60944193855265
280.0 87.5283816425381
290.0 87.63769003898022
300.0 87.61771653387923
307.0 87.52894562664763
315.0 87.44403486692586
325.0 87.34403486692587
335.0 87.24403486692584
345.0 86.85345739982769
355.0 86.62272305987489
365.0 86.50007273399807
375.0 86.29163254563714
387.0 85.99860849235708
400.0 85.95088518604102
412.0 85.79860849235709
425.0 85.51748923097476
437.0 85.66846964742494
450.0 86.03474029593772
462.0 86.24346466533338
475.0 86.31252281218659
487.0 86.15088518604101
500.0 85.66708433761023
515.0 85.38465262685234
530.0 85.31526648256157
545.0 85.09860849235709
560.0 85.00684708452677
580.0 84.67783436765689
600.0 84.85163084036044
615.0 85.2684537353481
630.0 84.91526648256158
650.0 84.90647294018967
670.0 84.17491276679327
690.0 83.81748923097477
710.0 84.53284477132952
730.0 84.89702255028843
750.0 84.4752654560249
775.0 84.37491276679327
800.0 84.06430560492869
825.0 83.99224868612579
850.0 83.96171425496019
875.0 84.11469499916363
900.0 84.23560928599369
925.0 83.9084397970573
950.0 84.49735356220405
975.0 84.6766905249574
1000.0 85.09599758048732
1030.0 85.05319852744377
1060.0 85.16827876112693
1090.0 84.95448516928913
1120.0 84.77631451545393
1150.0 84.82530130898897
1180.0 84.82530130898897
1220.0 85.20322432226969
1250.0 85.48454384824196
1280.0 85.4303534698751
1320.0 84.94149588624819
1360.0 84.85596879551464
1400.0 84.54937999996179
1450.0 84.40498993022425
1500.0 84.66152594176172
1550.0 84.89171497252366
1600.0 84.44954979173286
1650.0 85.40070671338138
1700.0 85.88756474277811
1750.0 84.40900455628292
1800.0 84.2543475664306
1850.0 83.37793098028423
1900.0 83.04989761263096
1950.0 83.54021353807329
2000.0 84.32472018911889
2060.0 84.73423388532133
2120.0 84.83502568222072
2180.0 84.61932310637646
2240.0 83.31415140160148
2300.0 83.40579876944918
2360.0 83.1828126163923
2400.0 83.5881385467682
2500.0 83.91903818722628
2580.0 83.99810132921996
2650.0 83.98767660419298
2720.0 84.37297859038863
2800.0 83.59854574582941
2900.0 82.4214596097499
3000.0 82.98360888426939
3070.0 83.59962907665815
3150.0 83.91979482983291
3250.0 84.42167978398548
3350.0 84.26244773761215
3450.0 84.86145735937065
3550.0 86.29971574034161
3650.0 86.90227643855631
3750.0 86.46093134801563
3870.0 86.2241168424715
4000.0 85.60789273613359
4120.0 84.74854482616506
4250.0 83.58891591130823
4370.0 84.52674355478973
4500.0 86.2466265219813
4620.0 87.7931355601482
4750.0 90.13041426441643
4870.0 88.19926501261905
5000.0 86.30160884127716
5150.0 84.82264454857972
5300.0 83.99498504056284
5450.0 83.8866141040411
5600.0 83.33423388532132
5800.0 85.407413698337
6000.0 87.1763496650096
6150.0 88.1926296094736
6300.0 88.09800495677963
6500.0 85.82803589935469
6700.0 85.00504269171823
6900.0 85.21833440860308
7100.0 86.90630296729422
7300.0 87.05583560801183
7500.0 86.41149628163075
7750.0 85.67812887762038
8000.0 86.15086260136671
8250.0 88.07714732634345
8500.0 87.75157342134581
8750.0 87.01056512877237
9000.0 87.73999448848208
9250.0 88.8227952973691
9500.0 88.36332604881854
9750.0 88.14498291534723
10000.0 87.17391010623952
10300.0 85.9047440028952
10600.0 86.0786512867876
10900.0 88.11870903199575
11200.0 86.83988751877921
11500.0 84.99789828228587
11800.0 85.53546138079875
12200.0 86.60879514995308
12500.0 88.95714956054381
12800.0 85.14902357723899
13200.0 88.41292673498616
13600.0 90.01952588628453
14000.0 84.3605237265305
14500.0 84.46402288471874
15000.0 85.10968837392888
15500.0 84.46080790660682
16000.0 84.45135097450684
16500.0 83.50585447910397
17000.0 84.62678128528226
17500.0 83.57885076826713
18000.0 79.14815803140912
18500.0 77.97887047789145
19000.0 75.15133869272464
19500.0 73.51869449890584
