Freq "Side Wall Bounce"
22.4 26.03119940128603
23.0 27.76298076134161
23.6 34.241996522539395
24.0 38.221028631346556
25.0 41.44504680751864
25.8 43.698974137582454
26.5 45.26291499859006
27.2 46.187374073739605
28.0 46.983784879494905
29.0 47.66342147671607
30.0 48.64718520754964
30.7 50.09971195224442
31.5 51.95604134921287
32.5 54.235076909741636
33.5 56.67791654209354
34.5 59.020475181097865
35.5 61.10284180023889
36.5 62.960109157189365
37.5 64.74010923590785
38.7 66.42092309542944
40.0 68.0359198053933
41.2 69.6537663842246
42.5 71.3116128239878
43.7 73.2700196904713
45.0 74.58855971437319
46.2 75.48900066184154
47.5 76.68850590757987
48.7 77.84858052607876
50.0 78.78982886582192
51.5 79.68982886582192
53.0 80.67129427070991
54.5 81.5536036346377
56.0 82.41150453275418
58.0 83.29348307584657
60.0 84.1544429425558
61.5 84.71564374029258
63.0 85.0722137210486
65.0 85.43441685017132
67.0 85.77348189285662
69.0 86.13441685017132
71.0 86.53441685017131
73.0 86.93441685017132
75.0 87.33441685017131
77.5 87.83441685017132
80.0 88.15444294255579
82.5 88.35444294255579
85.0 88.53441685017133
87.5 88.53441685017133
90.0 88.3722137210486
92.5 88.03441685017131
95.0 87.51564374029256
97.5 87.0568801862013
100.0 86.72070188121242
103.0 86.5207018812124
106.0 86.42070188121241
109.0 86.32070188121241
112.0 86.28505351870533
115.0 86.26516840337086
118.0 86.26516840337086
122.0 86.16516840337087
125.0 86.01313953999232
128.0 85.7587152916838
132.0 85.53276641677856
136.0 85.35740017519264
140.0 85.31715136362975
145.0 85.41715136362976
150.0 85.3863606964899
155.0 85.24052714270637
160.0 84.93326375905617
165.0 84.71313953999231
170.0 84.81313953999232
175.0 84.90245227663601
180.0 84.78264684748963
185.0 84.35740017519264
190.0 83.57202552445371
195.0 82.9508253968645
200.0 82.91219806381527
206.0 83.2321751148644
212.0 83.74629640271651
218.0 84.18916450384233
224.0 84.42772497838044
230.0 84.62772497838041
236.0 84.79988567823386
240.0 84.97604918841145
250.0 85.0249485882716
258.0 84.96171751117967
265.0 84.66171751117967
272.0 83.92783218957028
280.0 83.61033983344403
290.0 83.95090614557422
300.0 84.17965216278492
307.0 84.25084410495872
315.0 84.24641992803149
325.0 84.34298114939851
335.0 84.34488034310517
345.0 83.49441306229308
355.0 82.68592953392312
365.0 82.66820635262928
375.0 82.52614564881637
387.0 82.03856044740174
400.0 81.87965216278494
412.0 81.56744983096804
425.0 80.8592975067733
437.0 81.00925473996324
450.0 81.91128297934706
462.0 82.47393752383634
475.0 82.4394383688074
487.0 81.7892390708539
500.0 79.93127628974919
515.0 79.79985616676184
530.0 80.81447425872435
545.0 80.57990970541526
560.0 80.17598610367466
580.0 79.78548893278345
600.0 79.95485381488149
615.0 81.59217894944386
630.0 81.05349977726118
650.0 80.61977940670023
670.0 79.16212079483688
690.0 78.59519763171168
710.0 80.23098799261868
730.0 81.54015712823787
750.0 79.78830136933321
775.0 79.05063886581736
800.0 78.08852816265663
825.0 77.18934727331289
850.0 76.55487302772246
875.0 76.16087718448244
900.0 77.43134587187501
925.0 76.03123908814077
950.0 77.54379250430534
975.0 76.57445056865764
1000.0 77.05674886532275
1030.0 77.02361590518026
1060.0 77.41009658939576
1090.0 76.8936710212703
1120.0 76.7371739373308
1150.0 76.72722368738047
1180.0 76.40750681972038
1220.0 76.94215600059074
1250.0 77.46405890518314
1280.0 77.41443857135042
1320.0 78.05465971995137
1360.0 78.49904332081137
1400.0 76.95116806504171
1450.0 76.78530679465834
1500.0 76.24550826127232
1550.0 73.85687075478542
1600.0 75.66940598744735
1650.0 78.56893293514584
1700.0 77.86006529467824
1750.0 75.54250603376128
1800.0 75.70356396759362
1850.0 73.48503101762883
1900.0 76.28863155359831
1950.0 74.12824059312435
2000.0 75.4143796995574
2060.0 78.83746921356807
2120.0 79.20457214658755
2180.0 78.32400115859441
2240.0 74.12859382168581
2300.0 73.5070238778012
2360.0 71.7326045839498
2400.0 73.98467720896969
2500.0 74.26090062083614
2580.0 72.76923361873675
2650.0 74.30454127777023
2720.0 76.96574854302499
2800.0 74.4995774980719
2900.0 73.21330315581578
3000.0 73.24730270729533
3070.0 75.72175227659163
3150.0 76.67047591287364
3250.0 75.66167216975096
3350.0 75.27195224164187
3450.0 75.81196265125685
3550.0 77.31093064517576
3650.0 76.52718167487794
3750.0 75.66201853205432
3870.0 74.7828518040441
4000.0 74.68399090411133
4120.0 72.89627518776976
4250.0 73.06294690487019
4370.0 75.48075759290968
4500.0 74.98522471431075
4620.0 78.42569942678038
4750.0 79.64178678279946
4870.0 78.49607961444924
5000.0 77.81098906801732
5150.0 74.61665628673418
5300.0 74.41907265226999
5450.0 72.6042288309818
5600.0 72.26601892804969
5800.0 75.35427601626427
6000.0 78.6138872433094
6150.0 79.88963115224503
6300.0 78.72457520719377
6500.0 75.29294573402592
6700.0 73.94280593912607
6900.0 75.43086032116338
7100.0 78.3743433415187
7300.0 78.65535171554508
7500.0 77.3247536923304
7750.0 75.25650628559444
8000.0 74.81253411732393
8250.0 78.41593721489149
8500.0 78.70870957063802
8750.0 77.80844338799666
9000.0 76.68483231049353
9250.0 77.64673144499267
9500.0 77.21907436362294
9750.0 77.49702838227854
10000.0 76.14701819275791
10300.0 74.37681725322375
10600.0 75.05230810714801
10900.0 77.93466204717079
11200.0 75.93603107877203
11500.0 71.33409394280281
11800.0 72.89935170573338
12200.0 78.16278227999682
12500.0 82.20494816044733
12800.0 75.84294526663966
13200.0 83.15295626280034
13600.0 84.95815716100589
14000.0 77.7680576766994
14500.0 75.57182559055046
15000.0 75.59178103917421
15500.0 71.83465248092747
16000.0 69.70477519971887
16500.0 69.23510663094753
17000.0 69.49339299651426
17500.0 70.97351934807064
18000.0 66.43629329229633
18500.0 67.85633332188387
19000.0 65.43395743679709
19500.0 63.08689392740996
