Freq,On Axis,Listening Window,Sound Power,Early Reflections,Early Reflections DI,Sound Power DI,DI offset
20.5078,45.447299999999984,45.73562873813319,52.649614473105686,50.45318067805675,35.28244806007643,33.0860142650275,40
21.9727,43.191,43.93607141371544,54.71621473175804,52.04896463997224,31.8871067737432,29.219856681957395,40
23.4375,39.6191,39.03128260437896,52.23354254070949,49.37175597976096,29.659526624617996,26.797740063669465,40
24.9023,32.596299999999985,30.847942253948474,53.19805092006746,50.16996931627875,20.677972937669722,17.649891333881015,40
26.3672,38.00880000000001,36.991737305783715,54.524110986038636,51.523506392053946,25.46823091372977,22.46762631974508,40
27.832,42.947299999999984,42.42041015628257,55.4647900815566,52.59422141588422,29.82618874039835,26.95562007472597,40
29.2969,47.64959999999999,47.41353797707498,57.14380869907487,54.505804548307594,32.907733428767386,30.269729278000113,40
30.7617,52.3802,52.152940567032886,58.58241606430292,56.38051253129379,35.7724280357391,33.57052450272997,40
32.2266,55.53469999999999,55.35283325067971,60.23877437730633,58.362392382019635,36.99044086866007,35.11405887337338,40
33.6914,58.5316,58.35620371665266,61.609398423136554,60.18153374857326,38.1746699680794,36.746805293516104,40
35.1563,60.38580000000002,60.2098475529294,62.683323273047165,61.515164848077944,38.69468270485146,37.52652427988224,40
36.6211,62.12989999999999,61.98148269854744,64.26687514070997,63.17777195040395,38.80371074814349,37.71460755783747,40
38.0859,64.1137,63.99439999627408,65.96225506956361,65.00270610398746,38.99169389228662,38.03214492671047,40
39.5508,66.0529,65.95341932184644,67.45187328981129,66.68367300190442,39.269746319942016,38.50154603203515,40
41.0156,68.03469999999999,67.95097417554729,69.10002828908148,68.4874773345417,39.46349684100559,38.85094588646581,40
42.4805,68.97830000000002,68.89361868237286,69.79089919061497,69.28522762686941,39.608391055503446,39.102719491757895,40
43.9453,69.9871,69.91480964493448,70.81484007224053,70.3127989483883,39.602010696546174,39.09996957269395,40
45.4102,70.9893,70.92923988922345,71.80289027796664,71.31910402196502,39.610135867258435,39.12634961125681,40
46.875,72.1139,72.06606905643838,72.92985919704216,72.4575675514203,39.60850150501808,39.13620985939622,40
48.3398,73.16840000000002,73.12985411036983,74.02567394441171,73.5406710354726,39.589183074897235,39.10418016595813,40
51.2695,74.811,74.79112502298898,75.6640632057767,75.19689679274146,39.59422823024752,39.12706181721228,40
52.7344,75.62289999999999,75.61055370179756,76.4668619227669,76.01110818255978,39.599445519237776,39.14369177903066,40
54.1992,76.462,76.4566907591329,77.31788459878564,76.86431088905564,39.59237987007725,39.13880616034726,40
55.6641,77.2281,77.2286769747075,78.07918679597029,77.6340749187435,39.594602055964,39.14949017873721,40
58.5938,78.5495,78.55736264621942,79.34898987127958,78.93366839058628,39.62369425563314,39.20837277493983,40
60.0586,79.1277,79.13797726216976,79.9101987571812,79.50403276990596,39.633944492263794,39.22777850498855,40
62.9883,80.223,80.24036390927328,81.00721252054986,80.6074639370664,39.632899972206886,39.23315138872343,40
64.4531,80.6582,80.67905523457759,81.44797612789003,81.04884004903045,39.630215185547144,39.23107910668756,40
67.3828,81.221,81.24594984728597,81.99416788490944,81.60529658900523,39.640653258280736,39.251781962376526,40
68.8477,81.4833,81.5100190236767,82.25783944513489,81.86948282432596,39.64053619935075,39.25217957854181,40
71.7773,82.525,82.55502918103852,83.27503703132165,82.90198294007472,39.6530462409638,39.279992149716875,40
74.707,83.0982,83.12988228288721,83.8039827220895,83.45354607299697,39.67633620989024,39.32589956079771,40
77.6367,83.25629999999998,83.29050042634016,83.97068601902848,83.61743207801827,39.67306834832189,39.31981440731168,40
79.1016,83.6862,83.7213183850961,84.391058998644,84.04316663162456,39.67815175347154,39.3302593864521,40
82.0313,84.4903,84.5251067075029,85.12818150910974,84.81129368215255,39.71381302535035,39.39692519839316,40
84.9609,84.68520000000001,84.71521096876337,85.18029285522216,84.92810510634497,39.7871058624184,39.53491811354121,40
87.8906,85.3078,85.33356568089965,85.69089235274038,85.4884740001509,39.84509168074875,39.642673328159276,40
90.8203,85.474,85.51014764378031,86.10660607561772,85.78698010141841,39.72316754236191,39.403541568162595,40
95.2148,85.8537,85.88464816101529,86.29553339805574,86.06549961721832,39.81914854379697,39.589114762959554,40
98.1445,86.0168,86.04863298793208,86.45433533150776,86.22681086799126,39.82182211994082,39.59429765642432,40
101.074,86.43549999999999,86.46682816608501,86.86097610676515,86.63833393258176,39.82849423350325,39.60585205931986,40
105.469,86.2057,86.23785175526959,86.62366452581969,86.40614859470378,39.83170316056581,39.6141872294499,40
108.398,86.3697,86.40077876958324,86.75668911539557,86.55229571642441,39.84848305315883,39.64408965418767,40
112.793,86.9862,87.00958774045337,87.22621575453273,87.08788770179953,39.92170003865384,39.78337198592064,40
117.188,86.7083,86.72986043766262,86.92257909559811,86.79561619403067,39.93424424363195,39.80728134206451,40
120.117,87.0463,87.06600181257086,87.26446027331767,87.13201663476106,39.9339851778098,39.80154153925319,40
124.512,87.0617,87.07906978325565,87.1905583072017,87.10066628373524,39.97840349952041,39.88851147605395,40
128.906,86.85809999999998,86.87067367141593,86.85003496878198,86.82768873195161,40.04298493946432,40.020638702633946,40
133.301,87.0042,87.01580135812462,86.9670650944196,86.96036764575194,40.055433712372675,40.048736263705024,40
139.16,86.68870000000001,86.69997108224973,86.6868451607092,86.65537057072609,40.04460051152364,40.013125921540535,40
143.555,86.893,86.90412795950515,86.93652346028095,86.87593923039385,40.02818872911129,39.967604499224194,40
147.949,86.53020000000001,86.54136239229632,86.61404302935536,86.52966224327764,40.01170014901868,39.92731936294096,40
153.809,86.63990000000001,86.63769836811518,86.50776580215194,86.5259595345984,40.11173883351678,40.129932565963244,40
159.668,86.8379,86.83199109389896,86.56850163309853,86.65958524780102,40.172405846097945,40.26348946080043,40
165.527,86.81810000000002,86.8132540160662,86.54159343514371,86.6372317987804,40.17602221728579,40.271660580922486,40
171.387,86.6407,86.63700954681254,86.41234481019266,86.48284988695188,40.15415965986065,40.22466473661987,40
177.246,86.4813,86.47318567213071,86.2575681702595,86.31594806714766,40.15723760498305,40.21561750187121,40
183.105,86.33,86.31412634886514,86.0149577777388,86.10933962794077,40.204786720924375,40.299168571126344,40
188.965,86.3635,86.34763462310525,85.99014669199954,86.1236668304952,40.223967792610054,40.35748793110571,40
196.289,86.4367,86.41598272628326,85.98619084167916,86.15770282359307,40.25827990269019,40.4297918846041,40
203.613,86.3144,86.28346127512533,85.7524748102294,85.96738473272197,40.316076542403366,40.53098646489593,40
210.938,86.24519999999998,86.21536252588538,85.6318653692959,85.87451792605793,40.34084459982745,40.58349715658949,40
218.262,86.11160000000001,86.08002006683952,85.53265171965626,85.75637302792703,40.3236470389125,40.547368347183266,40
225.586,86.0703,86.02590472389488,85.38286427062909,85.64712682341329,40.378777900481595,40.6430404532658,40
232.91,86.1513,86.10151361415504,85.31134527185353,85.65716123643952,40.44435237771552,40.79016834230151,40
241.699,85.99939999999998,85.94669510075332,85.13388439046413,85.50220172455195,40.444493376201365,40.812810710289185,40
250.488,85.8301,85.77641490284839,84.9645669833641,85.3149071922371,40.461507710611286,40.81184791948429,40
259.277,86.0301,85.9745337723249,85.12996132149927,85.49326972566845,40.48126404665645,40.84457245082564,40
268.066,85.5969,85.53746839981272,84.73554894904731,85.07924735092269,40.45822104889004,40.80191945076541,40
276.855,85.59469999999999,85.53851194224917,84.71022315916849,85.03777483035759,40.50073711189158,40.82828878308068,40
287.109,85.7737,85.68556164599624,84.57986637102209,85.05361005311829,40.631951592877954,41.10569527497415,40
297.363,85.697,85.59640106267776,84.45030996924935,84.91903970475879,40.67736135791897,41.14609109342841,40
307.617,85.7956,85.73961159786106,84.80382248227443,85.18453680334919,40.55507479451187,40.93578911558663,40
319.336,85.5601,85.44908505818013,84.65417909605983,84.94793687540869,40.501148182771445,40.794905962120296,40
329.59,85.76929999999999,85.61849059629407,84.4769227859858,84.92149299228234,40.69699760401173,41.14156781030826,40
341.309,85.8512,85.66206639711882,84.30694887128831,84.84164897667956,40.820417420439256,41.35511752583051,40
353.027,86.5314,86.33548745996144,84.06344655395428,85.11660604041201,41.21888141954943,42.27204090600716,40
366.211,86.8229,86.65940720944158,84.20740089428989,85.4275264590599,41.23188075038168,42.45200631515169,40
379.395,87.0037,86.8630456585486,84.49111593660237,85.65137011910393,41.21167553944467,42.37192972194623,40
392.578,86.69289999999998,86.54934556807927,84.12338713931416,85.33324607018845,41.21609949789082,42.425958428765114,40
405.762,86.0574,85.8976452395987,83.57280890755572,84.73046759452117,41.16717764507753,42.32483633204298,40
420.41,86.864,86.69939893159204,83.86463941895832,85.3038589887061,41.39553994288595,42.834759512633724,40
435.059,86.1703,86.05015511368967,83.71186349078448,84.87483021495026,41.175324898739404,42.33829162290519,40
451.172,86.7643,86.61771926698529,83.58683551511149,85.17283906170987,41.444880205275425,43.0308837518738,40
465.82,86.3611,86.21955358103759,83.41205484599658,84.83911752614145,41.38043605489614,42.80749873504101,40
483.398,85.9933,85.84426407595193,83.02033164436399,84.4733575154309,41.37090656052102,42.823932431587934,40
499.512,86.0217,85.84180947366112,83.13910593914456,84.4972743359696,41.34453513769151,42.70270353451656,40
517.09,87.3038,87.11983306427803,84.1349877927089,85.64124893701697,41.47858412726106,42.98484527156913,40
536.133,87.04929999999999,86.87286878971953,83.82966225832504,85.3582657271598,41.51460306255973,43.04320653139449,40
555.176,87.78110000000001,87.61503058041923,84.00732959479055,85.87323844002711,41.74179214039212,43.60770098562868,40
574.219,87.5462,87.43046802198981,83.98002573332255,85.76422405586581,41.666243966124,43.45044228866726,40
594.727,86.9191,86.81973588007556,83.62482485981121,85.3232829748756,41.49645290519996,43.19491102026434,40
615.234,86.953,86.84302034914953,83.47899794771884,85.31527540336957,41.52774494577996,43.36402240143069,40
637.207,86.715,86.64445284462715,83.65788606923178,85.22705418865337,41.417398655973784,42.986566775395374,40
659.18,86.9409,86.78603118255806,83.35219611228054,85.16929228694363,41.61673889561443,43.433835070277524,40
682.617,86.7439,86.58586488255898,83.25866072252849,85.0165589041994,41.56930597835958,43.32720416003049,40
707.52,86.9562,86.7298078792597,83.19538133672614,85.05183725716009,41.67797062209961,43.53442654253355,40
732.422,86.6712,86.43989236053903,82.93667855600089,84.84721372340165,41.59267863713738,43.50321380453815,40
757.324,86.5476,86.33228186824346,82.94763198488674,84.79631863462856,41.53596323361489,43.384649883356715,40
785.156,86.8222,86.51326399382154,82.87911508806107,84.80210719601563,41.71115679780591,43.63414890576047,40
811.523,87.1322,86.75210292178689,82.94306871949809,84.95300079913105,41.79910212265584,43.8090342022888,40
840.82,87.5401,87.08393376280146,82.67610444512599,85.06777324239512,42.016160520406345,44.40782931767548,40
870.117,87.6991,87.27769480067585,83.00910718177708,85.13702778289525,42.1406670177806,44.26858761889876,40
900.879,88.013,87.57799382065829,82.76206914999939,85.14563150818728,42.432362312471014,44.8159246706589,40
933.105,88.504,88.08534239985508,82.95760188515672,85.32934712798014,42.75599527187494,45.12774051469836,40
965.332,89.0572,88.59143250969147,83.46246003561559,86.02866022726798,42.562772282423495,45.12897247407588,40
1000.49,90.2152,89.67653052864428,84.17327915230581,86.76536683003779,42.91116369860649,45.50325137633847,40
1035.64,90.1736,89.6737905839167,84.32071503180998,86.89503428983983,42.77875629407687,45.353075552106716,40
1072.27,89.346,88.94961646541744,83.71458918892678,86.31136464261513,42.6382518228023,45.235027276490655,40
1108.89,88.8732,88.37232195316463,83.26776491225269,86.0588582180088,42.313463735155835,45.10455704091194,40
1148.44,89.035,88.68521153281716,83.44346548060514,86.2021580254654,42.48305350735177,45.24174605221202,40
1189.45,89.3018,88.87543507900017,83.243402828049,86.00221743864546,42.87321764035471,45.63203225095117,40
1230.47,89.45439999999999,89.00969218856893,83.42911470236116,86.2418721740901,42.76782001447883,45.58057748620777,40
1274.41,89.21290000000002,88.79592406745364,83.19302558559484,85.97721289391885,42.818711173534794,45.6028984818588,40
1319.82,88.9151,88.5901358835199,82.9319980593682,85.72995274405334,42.86018313946657,45.65813782415171,40
1366.7,88.564,88.25193837092989,82.43564708314473,85.23173806259426,43.02020030833563,45.81629128778516,40
1413.57,88.089,87.8578335302914,82.1845626670206,85.02649345199654,42.83134007829486,45.6732708632708,40
1463.38,87.8692,87.47488781458745,81.89131652818662,84.94005386759201,42.534833946995434,45.583571286400826,40
1516.11,88.7635,87.95853415584719,81.81224176366769,85.01902212183288,42.939512034014314,46.146292392179504,40
1568.85,88.8048,87.96174118759025,81.37849149346164,84.76522663532555,43.1965145522647,46.58324969412861,40
1624.51,88.2354,87.43332193791038,80.69476191404821,84.06199733269762,43.37132460521276,46.73856002386216,40
1681.64,87.3529,86.78862453903135,79.9046228314394,83.0904225390744,43.69820199995695,46.88400170759195,40
1741.7,87.67500000000001,87.0562023888788,79.84018292730376,82.8158873466205,44.2403150422583,47.216019461575044,40
1803.22,87.9394,87.37727877571001,79.99218701153991,82.93439888804043,44.44287988766958,47.3850917641701,40
1866.21,87.85069999999999,87.14366360040499,79.97660930860735,82.69571905243794,44.447944547967055,47.16705429179764,40
1932.13,87.8561,86.6117297597134,79.38526830993779,82.1364598013374,44.475269958376,47.22646144977561,40
1999.51,87.7901,86.81051385124611,79.55988042349607,82.16835549310548,44.642158358140634,47.250633427750046,40
2069.82,88.4497,87.66522721382579,80.42994792798343,82.92039402101322,44.744833192812564,47.23527928584235,40
2143.07,87.9139,87.13967159187688,79.81142920982214,82.35260898804589,44.78706260383099,47.32824238205474,40
2219.24,87.0767,86.35993686407573,79.6273572289661,81.77975039066348,44.580186473412255,46.73257963510963,40
2296.88,87.2635,86.77634035640651,80.50831775434457,82.66598241965089,44.11035793675562,46.26802260206193,40
2378.91,87.90619999999998,87.1642267230105,81.0246125474189,83.14431496482555,44.019911758184946,46.1396141755916,40
2462.4,86.4446,86.03439701364714,80.36690570325594,82.5370299303932,43.497367083253934,45.6674913103912,40
2548.83,85.4025,85.22107816873137,79.76674364897171,81.72317423772331,43.497903931008054,45.454334519759655,40
2639.65,85.4019,85.29913785842322,79.8319365863439,81.80958576255982,43.4895520958634,45.46720127207932,40
2731.93,84.9914,85.01691896592807,79.47720716945331,81.68260658807276,43.33431237785531,45.53971179647476,40
2828.61,84.61599999999999,84.6753910793051,79.4732489336978,81.59394540313892,43.08144567616618,45.2021421456073,40
2928.22,83.9578,84.35714090957705,79.26733381215043,81.32533615390386,43.03180475567319,45.08980709742663,40
3030.76,83.63400000000001,83.8798251951145,78.92852819009588,81.10624159037977,42.77358360473474,44.95129700501863,40
3137.7,83.7736,83.93400872809316,78.92447232769123,81.31846363472343,42.61554509336973,45.00953640040193,40
3249.02,83.67939999999999,83.71189051102292,78.63269092789753,81.24833253824414,42.46355797277877,45.07919958312539,40
3363.28,83.9059,83.78287767585547,78.54683964784184,81.47122254552704,42.31165513032843,45.23603802801364,40
3481.93,83.7995,83.72613286580673,78.51640155688824,81.56764736016257,42.158485505644165,45.20973130891849,40
3604.98,84.596,84.29262712961231,78.90022479472364,82.02066387996503,42.271963249647285,45.39240233488867,40
3732.42,85.0471,84.62341501700405,78.94592468416192,82.21888984586255,42.4045251711415,45.677490332842126,40
3864.26,85.6642,84.77614633217948,78.90565923822268,82.25775717774617,42.51838915443331,45.8704870939568,40
4000.49,86.3136,85.08880157875528,78.99786279284282,82.42029016037732,42.66851141837796,46.090938785912456,40
4141.11,86.6183,85.36925736473411,79.27821532820627,82.59944582260667,42.76981154212744,46.09104203652784,40
4287.6,86.85809999999998,85.33246760285384,79.19856501851453,82.39236601744807,42.94010158540577,46.13390258433931,40
4438.48,87.2354,85.77456005719078,79.8452058089077,82.97991075154263,42.79464930564815,45.929354248283076,40
4595.21,87.59,85.88799003177617,79.98682396959295,83.23348429588292,42.65450573589325,45.90116606218322,40
4756.35,87.5205,85.81207574062269,80.02120201957868,83.1752371066181,42.63683863400459,45.79087372104401,40
4924.8,87.8579,86.26214133478648,80.41874434150503,83.69839535278479,42.56374598200169,45.843396993281445,40
5097.66,87.06790000000001,85.91000119653434,80.40138410573573,83.8628729563183,42.04712824021604,45.50861709079861,40
5277.83,86.9764,85.92995480562955,80.2336185598991,83.70741848990903,42.22253631572052,45.69633624573045,40
5463.87,86.71979999999999,85.82780532318857,79.93089245429479,83.54532950797525,42.28247581521332,45.89691286889378,40
5657.23,86.1298,85.61062532648343,79.75500133105655,83.42324230802082,42.18738301846261,45.85562399542688,40
5856.45,86.2765,85.92051294750561,79.6419981807889,83.19134035211724,42.72917259538838,46.27851476671671,40
6062.99,86.4524,86.2809137227486,79.76922338874594,83.20052703702011,43.080386685728485,46.51169033400265,40
6276.86,86.4613,86.41961012112893,80.02880216346003,83.37226081980994,43.04734930131899,46.3908079576689,40
6498.05,86.4336,86.5533407611211,80.11842313228361,83.46463541730905,43.08870534381205,46.434917628837496,40
6726.56,86.5131,86.60812671392029,79.99245320375287,83.45770525423396,43.15042145968633,46.61567351016741,40
6963.87,85.99629999999999,86.12429975966467,79.56005690520138,83.01209290854032,43.11220685112434,46.56424285446329,40
7209.96,85.58,85.89542378854065,79.20646705028906,82.72486478834512,43.17055900019554,46.68895673825159,40
7464.84,85.5007,85.8468596118542,79.00066581190974,82.55542153792553,43.291438073928674,46.84619379994446,40
7727.05,85.8731,86.05125120519678,78.9544005217481,82.53158623487919,43.51966497031759,47.09685068344868,40
7999.51,86.71799999999999,86.51152729551663,79.17634842992942,82.80911826334962,43.70240903216701,47.33517886558721,40
8282.23,87.6636,87.02320034969269,79.33684301035683,83.15444334311469,43.868757006577994,47.686357339335856,40
8573.73,88.3088,87.24693989832235,79.29915143496711,83.37113550891297,43.87580438940938,47.94778846335524,40
8876.95,88.3741,87.18575133842026,79.17556633367934,83.37791790012231,43.80783343829795,48.01018500474092,40
9188.96,88.31809999999999,87.06374865317163,78.93062329972193,83.28292020494169,43.78082844822994,48.1331253534497,40
9514.16,88.339,87.09829737141281,78.79597321769545,83.37588283475986,43.72241453665295,48.302324153717365,40
9849.61,88.50479999999999,87.26426278067741,78.64055364076684,83.41990598804011,43.8443567926373,48.623709139910574,40
10196.8,88.762,87.4457062022637,78.54540646421268,83.46702829881525,43.97867790344844,48.90029973805102,40
10555.7,88.7441,87.48864353205929,78.30438055170583,83.29266226854287,44.195981263516416,49.18426298035345,40
10927.7,88.5599,87.3246524158766,78.00803820725699,83.10452142480035,44.220130991076246,49.31661420861961,40
11313.0,88.4598,87.1596411190103,77.8371334041035,82.9665901859743,44.193050933036005,49.322507714906806,40
11712.9,88.3494,87.0124448074913,77.59232700396274,82.67432946678757,44.33811534070374,49.42011780352857,40
12126.0,88.21720000000002,86.91755517272618,77.32844787980389,82.40480420547442,44.51275096725176,49.58910729292229,40
