Freq "Estimated In-Room Response"
20.5078 58.90757563352986
21.9727 63.42358143157347
23.4375 68.33280627670813
24.9023 70.83551558727854
26.3672 72.88759987936066
27.832 74.64220516047479
29.2969 77.54388990484246
30.7617 80.4502773426579
32.2266 81.35995206411567
33.6914 82.74182122295302
35.1562 83.57362356135513
36.6211 83.86580930055634
38.0859 84.46441959873852
39.5508 84.48159245891745
41.0156 84.48579270607382
42.4805 84.32818706658534
43.9453 84.40573546731989
45.4102 84.4267059796981
46.875 84.3995733750329
48.3398 84.3891852789154
51.2695 84.50557774723131
52.7344 84.54829540239615
54.1992 84.50205485065734
55.6641 84.67230629299767
58.5938 84.93844115955734
60.0586 84.98075627887128
62.9883 85.02775932945264
64.4531 85.0180392680399
67.3828 85.08333722214384
68.8477 85.14598582506979
71.7773 85.22125896664353
74.707 85.37266853763145
77.6367 85.48324534285801
79.1016 85.52226370580003
82.0312 85.62906514067255
84.9609 85.74856997668402
87.8906 85.79399684359744
90.8203 85.84282733611597
95.2148 85.93678460333666
98.1445 85.91769141061974
101.074 85.88147788627285
105.469 86.13499070158144
108.398 86.61736345301209
112.793 86.81846127747822
117.188 86.82474343953696
120.117 86.94072053945538
124.512 87.28765888586248
128.906 87.26779064557344
133.301 87.18285808923436
139.16 86.7843004308609
143.555 86.3747368911459
147.949 85.87753780674569
153.809 85.80329420088339
159.668 86.04921326544375
165.527 86.14374687874158
171.387 86.21844712247987
177.246 86.17496511245332
183.105 85.98927374819948
188.965 85.99340821168828
196.289 86.58448865399345
203.613 86.41519059501807
210.938 86.27469727386814
218.262 86.04799347895327
225.586 85.98709636746104
232.91 85.95116121249478
241.699 85.91175020699391
250.488 85.50768221841234
259.277 86.0417995520325
268.066 86.02833819277151
276.855 85.63084362724989
287.109 85.87800227262875
297.363 86.13743372305578
307.617 86.51110811660186
319.336 86.10283103702835
329.59 86.09295704860207
341.309 86.06807872410631
353.027 86.2244365002515
366.211 85.78684218696702
379.395 85.9050270456758
392.578 85.59081547140822
405.762 85.81889792255421
420.41 85.96706760138517
435.059 86.29643655329455
451.172 86.45141449376561
465.82 86.11779368902668
483.398 86.5194491597607
499.512 86.63892189588813
517.09 86.4860222174186
536.133 87.31881958748625
555.176 86.48263442502932
574.219 86.55325999646516
594.727 87.12620424178733
615.234 86.39565958183036
637.207 87.39886938001527
659.18 86.7334894679271
682.617 86.74811098107814
707.52 86.165527145143
732.422 86.12980833226064
757.324 85.91761281060144
785.156 85.62448597339392
811.523 84.53337625006682
840.82 84.38581013569693
870.117 84.09898674920939
900.879 84.11092893899368
933.105 84.50280944779773
965.332 84.45080432372521
1000.49 83.20026619561332
1035.64 84.28847043185908
1072.27 84.13172345344267
1108.89 84.11546719748605
1148.44 83.75847775924754
1189.45 83.82484055032634
1230.47 83.33909969667175
1274.41 83.37845896648545
1319.82 83.23925186689489
1366.7 83.38765623385117
1413.57 82.58587083507331
1463.38 83.1632218899605
1516.11 83.17627528151809
1568.85 83.0601812098991
1624.51 82.50689325123655
1681.64 81.87926997358537
1741.7 81.90260590085168
1803.22 82.43095056069266
1866.21 81.93628698998411
1932.13 81.12327916161954
1999.51 80.74610216097452
2069.82 81.49332623184387
2143.07 81.33943137704236
2219.24 80.66865270805431
2296.88 80.683870371367
2378.91 81.3548865526169
2462.4 80.82508133141677
2548.83 80.744151246162
2639.65 80.92068894447996
2731.93 80.4540346831097
2828.61 80.69350308089982
2928.22 80.93181012580179
3030.76 80.7672176525488
3137.7 81.19737211231089
3249.02 81.93354099193928
3363.28 81.93243574172382
3481.93 82.60531349607083
3604.98 82.34842693898469
3732.42 82.0327114035906
3864.26 82.4008107684933
4000.49 81.98344994683058
4141.11 82.29912628942134
4287.6 82.17249263623415
4438.48 82.07873493106898
4595.21 82.38707705497195
4756.35 82.26328892453178
4924.8 82.66072460150285
5097.66 82.23170908826386
5277.83 82.71109572009033
5463.87 82.46771719790931
5657.23 82.25109344916612
5856.45 82.32981262492383
6062.99 82.23033818725517
6276.86 82.43409578711054
6498.05 82.44221104070138
6726.56 82.51816345069942
6963.87 82.8286693253702
7209.96 82.83029840375183
7464.84 82.61709856362887
7727.05 82.5464201940237
7999.51 82.45991134954673
8282.23 82.59892669867298
8573.73 82.71508144818436
8876.95 82.94256064891869
9188.96 83.04731824299978
9514.16 82.96754763109232
9849.61 82.71073369264346
10196.8 82.51436280166541
10555.7 82.3148796207025
10927.7 81.96040313557698
11313.0 81.62349464861892
11712.9 81.38215252189462
12126.0 81.13778937875384
12553.7 80.98571210360132
12996.1 80.75909858764216
13454.6 80.52500738663065
13929.2 80.30462107477456
14419.9 79.76989201987978
14928.2 79.2118742045586
15455.6 78.95051121113124
16000.5 78.72132991759534
16564.5 78.49885384599705
17148.9 78.69964802951245
17752.4 79.26680852824288
18379.4 79.65423745579815
19026.9 79.37537230511549
19697.8 78.38127879850711
19999.5 78.03015025500387
