Freq "Estimated In-Room Response"
20.5078 57.727248863173685
21.9727 58.80631049124767
23.4375 59.97813779607969
24.9023 61.73981956447582
26.3672 63.38173918441808
27.832 65.55460360856168
29.2969 67.3998619156007
30.7617 69.30430971937065
32.2266 71.10608868220793
33.6914 72.783764205004
35.1562 74.40886703362635
36.6211 75.91442189850241
38.0859 77.45722722296222
39.5508 78.73342203750013
41.0156 80.02689241250393
42.4805 81.1810444998622
43.9453 82.21733339205151
45.4102 83.12313729235713
46.875 84.45016507779644
48.3398 85.08672139920364
51.2695 86.00186568867217
52.7344 86.34444746548289
54.1992 86.61648331622565
55.6641 86.85326288063813
58.5938 87.258198027341
60.0586 87.43532866113738
62.9883 87.76297073682133
64.4531 87.82206381994241
67.3828 88.2444392427949
68.8477 88.42360552523888
71.7773 88.76223593998816
74.707 89.06289789513335
77.6367 89.75259876490703
79.1016 89.87087484249257
82.0312 90.11212906248329
84.9609 90.33997518492424
87.8906 90.67648480550729
90.8203 91.27445129212497
95.2148 91.59979050034637
98.1445 91.7493244376498
101.074 91.9039124766556
105.469 92.1833240487685
108.398 92.2931814330083
112.793 92.3364626556324
117.188 92.0009622515103
120.117 92.08648283003
124.512 92.64963899202749
128.906 92.40229884498808
133.301 92.19405951719695
139.16 91.67219255932753
143.555 91.40991770296851
147.949 91.42568254545029
153.809 91.35703511981504
159.668 90.91010097666
165.527 90.31942367445521
171.387 90.5626936179214
177.246 90.16818093817177
183.105 90.20895172356093
188.965 90.39815364373759
196.289 90.22148462199456
203.613 89.93293093156663
210.938 90.1189205116922
218.262 90.3254650623518
225.586 90.34232679188513
232.91 89.86467110253275
241.699 89.663950278615
250.488 89.95699976455357
259.277 90.33446464921033
268.066 90.3845503480757
276.855 89.31795409659136
287.109 89.15018706660356
297.363 89.60682507232437
307.617 89.91499038029632
319.336 88.78337106232188
329.59 89.18676205244368
341.309 89.10978276481686
353.027 88.75717845885757
366.211 89.11573839785292
379.395 88.37309010454497
392.578 88.4859307464136
405.762 88.82589489103108
420.41 87.7308182713135
435.059 87.8968617305502
451.172 86.9574783084696
465.82 87.97521693329807
483.398 88.05036305478858
499.512 87.45478825021031
517.09 86.5887696829178
536.133 86.7298577417238
555.176 86.45189627395246
574.219 86.90341229177099
594.727 87.67506092038921
615.234 87.54040861173468
637.207 86.87658936125098
659.18 86.51941955475628
682.617 86.55644741425236
707.52 87.15251789125699
732.422 86.81028012163956
757.324 86.59091739064456
785.156 86.2578856214882
811.523 86.13180010194058
840.82 86.3281447733683
870.117 85.86245315603179
900.879 86.21373772968627
933.105 85.39208945435857
965.332 85.32028655917213
1000.49 84.47762243424216
1035.64 84.66932585140961
1072.27 84.38432592923219
1108.89 84.41631778030336
1148.44 83.91074913169034
1189.45 83.70725149960776
1230.47 82.92163385515846
1274.41 82.20383530064873
1319.82 81.59414959136491
1366.7 80.00481716504267
1413.57 79.10885186719717
1463.38 84.88806640660883
1516.11 88.58442132573643
1568.85 88.06636150229258
1624.51 87.14562060169955
1681.64 86.47920782704942
1741.7 85.39884550188981
1803.22 84.76400610656961
1866.21 84.3683640110863
1932.13 83.93883270149855
1999.51 83.28726306143543
2069.82 82.96981852098695
2143.07 83.09218692549095
2219.24 83.21510546395129
2296.88 83.9906021277506
2378.91 85.00829374360694
2462.4 85.02717065659175
2548.83 84.28026051718668
2639.65 84.32767393721429
2731.93 83.98682682354263
2828.61 83.56571488801066
2928.22 83.1633897291832
3030.76 83.5925923686964
3137.7 84.05668774138704
3249.02 84.46000128953551
3363.28 84.52142851552102
3481.93 84.66708220158841
3604.98 84.4970941080703
3732.42 84.82040929921617
3864.26 84.76672215364452
4000.49 85.1869042822658
4141.11 85.24791693765218
4287.6 85.33570927439571
4438.48 85.46221782129894
4595.21 85.10694691369766
4756.35 85.263128950083
4924.8 85.20948191130238
5097.66 85.54172243236866
5277.83 85.61821954859903
5463.87 85.86367639391551
5657.23 86.01029389399525
5856.45 86.15729253505835
6062.99 86.25701588001925
6276.86 86.17710405332161
6498.05 86.27249743177715
6726.56 86.49346411037473
6963.87 86.44153940524886
7209.96 86.32732356878199
7464.84 86.46183256339869
7727.05 86.90656440885132
7999.51 87.39418797272475
8282.23 87.77427063836632
8573.73 87.99118378585806
8876.95 88.25687042213801
9188.96 88.30146138406084
9514.16 87.96789879657496
9849.61 87.713484730169
10196.8 87.78330872182329
10555.7 87.51846003585618
10927.7 87.27319684781735
11313.0 87.13713257357809
11712.9 87.21833138110406
12126.0 87.47078674004818
12553.7 87.84071763950425
12996.1 88.12211265384167
13454.6 88.25094143263021
13929.2 88.42852900327608
14419.9 88.22549611548732
14928.2 87.97655781926576
15455.6 87.69539442851078
16000.5 87.4183968663691
16564.5 87.0804246692228
17148.9 86.86401649730718
17752.4 86.42002458006297
18379.4 85.59821066673408
19026.9 84.91336965878904
19697.8 84.64853779817702
19999.5 84.3723840243621
