Freq,Floor Bounce,Ceiling Bounce,Front Wall Bounce,Side Wall Bounce,Rear Wall Bounce,Total Early Reflection
20.0,32.91191448535501,34.21327420724349,34.17959092594437,35.015430749415955,38.23124811664992,35.324902693533105
20.2909,32.54356150141466,33.83222060841014,33.802982589714205,34.62935621296744,37.8205222617964,34.933496272368174
20.586,32.09987343131003,33.37516745714778,33.352100661123686,34.16810264507943,37.33408716893315,34.46676029147254
20.8855,31.703185410627796,32.96479893834636,32.94705889092664,33.75324441612473,36.893396428448014,34.046260615154026
21.1893,31.718497439372285,32.967114753570414,32.95501758416144,33.75018979068416,36.8646520378001,34.03803146231773
21.4975,32.244456687603744,33.479750365930116,33.47355198617639,34.25813339366509,37.34578470372385,34.54022561026109
21.8102,33.0694160885604,34.29169862620709,34.290945372858644,35.065258456547085,38.12555889036729,35.341413950791164
22.1274,33.94741608856039,35.1563310486314,35.16118398150273,35.92460380751878,38.957100348606915,36.19499146059597
22.4492,34.6513756422445,35.84659200582156,35.85744084094638,36.610162376519625,39.613928251975224,36.87435486740539
22.7758,35.04468794482072,36.22654139294666,36.243114135160326,36.984894606865666,39.95966815164907,37.24301275724709
23.1071,35.09800029685162,36.2651745667619,36.288092742494754,37.018255305075755,39.964273255374465,37.27074911849364
23.4432,34.890607660014766,36.044812932931606,36.07304573093445,36.79197195672724,39.707517626714676,37.03820001208807
23.7841,34.69760766001478,35.83744665052642,35.8713037709514,36.57934373962324,39.46484381924718,36.819478002086
24.1301,34.929232712844666,36.05439760077262,36.09469124790665,36.79172054404283,39.64531542931347,37.02502845540876
24.4811,35.711880323235235,36.82366058598181,36.86993329244855,37.55507724471151,40.37732234647477,37.78221236146452
24.8372,36.78550562470143,37.88261236551189,37.93490492738995,38.608850522416745,41.39861638441444,38.82933669654348
25.1984,37.804466088694724,38.887935662173405,38.94586870134724,39.60781425526291,42.36484593616585,39.82199438801784
25.5649,38.55742670545361,39.62588825830106,39.69054558722833,40.34078181237716,43.06413709174633,40.54814713358219
25.9368,38.98907457492221,40.042841303569716,40.11392773920916,40.75215943023916,43.441440652776535,40.95284899339272
26.3141,39.16338747498024,40.20311272945402,40.280188137308656,40.9069513729995,43.56155192761848,41.10065446111166
26.6968,39.23534839727661,40.26143071074934,40.34415375900879,40.958526219420335,43.578200081242514,41.14573154522866
27.0851,39.39566142172232,40.406384954280426,40.4958325776697,41.09832304769016,43.68209707894836,41.27847322349568
27.4791,39.77797449568497,40.774339647367114,40.87007888475078,41.45992446480277,44.00758903844691,41.63340770848144
27.8788,40.34993572053638,41.332294790122305,41.43375875497411,42.01211783832902,44.52243977046295,42.1782087957334
28.2843,40.99124891892153,41.95825038265882,42.06672629079476,42.63231546300484,45.104985686358745,42.79141944035386
28.6957,41.624897098175424,42.57757684095746,42.691832765881415,43.245736746597075,45.68010699951479,43.39747756434703
29.1131,42.23285862860418,43.17084403670678,43.29166984606526,43.83295299602547,46.22861699105768,43.97756874251546
29.5365,42.820171976812546,43.74311986008395,43.87063863508469,44.39918733985239,46.755896560873154,44.536783322908136
29.9661,43.379133734954976,44.287766627768534,44.421165462845366,44.93761068078284,47.25423068328617,45.06778681856959
30.402,43.89044720763651,44.784035096006605,44.92429049809617,45.42785023031409,47.70370995426403,45.550692472912274
30.8442,44.349095645898004,45.228682901517416,45.375247324145604,45.86631300325881,48.10123428414208,45.98173490253551
31.2929,44.820409193514806,45.68532205991063,45.838069984807035,46.316567322774475,48.50972182790282,46.42460242475987
31.748,45.366371332202604,46.21660097761223,46.375767292976334,46.842022753297485,48.99267592406049,46.94234589272024
32.2098,46.006333623701906,46.84255104226126,47.00830651114761,47.46128389184061,49.569402777115684,47.55438225059551
32.6783,46.68764737078469,47.50883107077705,47.68071100526741,48.12156241255785,50.185740392107974,48.206861573679234
33.1536,47.32360989005976,48.13016121760701,48.308677346577824,48.73664444607893,50.75715745469468,48.814534155606495
33.6359,47.889923761690326,48.68275261702813,48.86765042398936,49.28314113565132,51.258992836273436,49.35320878147131
34.1251,48.423237682910596,49.201393533505225,49.39233112143812,49.795038008772266,51.72618289693689,49.85781583624431
34.6215,48.98420050496567,49.74735528432875,49.944878967735534,50.33474655395493,52.22039389006376,50.390048589217756
35.125,49.58384940866749,50.33331748658115,50.53656661213493,50.91386194620971,52.753277552467935,50.961571825872696
35.6359,50.188163479858716,50.92360112533366,51.13354160439884,51.498187174574994,53.291074949769055,51.53815458215139
36.1543,50.76547760065672,51.486564381354825,51.70309066393871,52.055117731633445,53.80044812617972,52.08725994975207
36.6802,51.32179177106586,52.02857585677144,52.25149837618271,52.59066212565311,54.28865962594027,52.615386424363166
37.2137,51.891089888166576,52.5848494255378,52.813187841171,53.139806370003996,54.78969724264836,53.15701535563748
37.755,52.484069343849015,53.16313527318762,53.39716454698764,53.712366639020075,55.313127466135285,53.72151371287295
38.3041,53.07803284947015,53.74410018635916,53.98471515790517,54.286732571310566,55.83828672360002,54.288322316206816
38.8613,53.65468206286572,54.30674371302784,54.55383260828573,54.843108116271154,56.345827187900056,54.83737622441066
39.4265,54.22399650795566,54.86303136944416,55.115810699646545,55.39288763669194,56.84468724615063,55.37924336071653
40.0,54.804960319307426,55.4306754992577,55.68878434493212,55.95387807367348,57.354877955453404,55.93258236129044
40.5818,55.39096031930744,56.00264207107749,56.26734148340074,56.51967695771337,57.86997359396142,56.49102597474142
41.1721,55.948924283527376,56.54760909551547,56.81803423682625,57.05808475888209,58.35743453844499,57.02206510970841
41.771,56.468573730400394,57.05420828304183,57.33101410917462,57.55869898228234,58.806069492349906,57.515035497484476
42.3785,56.967888400617355,57.54085357410658,57.82270783004195,58.039123789867105,59.23382905465881,57.98761768477098
42.9949,57.47020312049236,58.03019004099471,58.31768862538242,58.521951810374006,59.66400610716437,58.4631014570286
43.6203,57.980852670579324,58.52815872598268,58.82096068685382,59.01339490347175,60.10266519073873,58.947239384720234
44.2548,58.502167465516735,59.03712786410675,59.33651524941793,59.51643835167249,60.552039482079806,59.442799390626405
44.8985,59.0507972044018,59.5734062741558,59.878074388965075,60.045895305765626,61.02807647817275,59.96524567181605
45.5515,59.61644688310345,60.12705287428486,60.43719316059533,60.59335659365898,61.52132452096548,60.50531029466444
46.2141,60.16244688310344,60.660346679128494,60.975752932165804,61.12042259041614,61.99427881735049,61.02528161955773
46.8863,60.67541160897342,61.16099388390862,61.482449669198715,61.61489693292364,62.43410396914676,61.51276821559462
47.5683,61.201726653423265,61.676641290304616,62.003006131974374,62.12438525256911,62.88858201075983,62.01485225996639
48.2602,61.75904174756303,62.22224525388161,62.5529902240429,62.662877057974725,63.37236721637805,62.54678424703589
48.9621,62.28469160728008,62.735584719515245,63.07212381796566,63.17076847106635,63.8244589729007,63.04749453968067
49.6743,62.742006776521904,63.18223293270205,63.52353940525265,63.6110733113933,64.20871301355616,63.48075244455585
50.3968,63.192321995464255,63.620838326075884,63.96723823715645,64.04378552447173,64.585845640323,63.90669762884737
51.1299,63.68697195838739,64.10448709863613,64.45565219482069,64.52109758709189,65.00715258950618,64.37738112088115
51.8736,64.19197195838738,64.59813607306631,64.95435841789944,65.00902066944398,65.43860873728904,64.85852152732289
52.6281,64.66993729316137,65.06578524939913,65.42662791282852,65.47034931140722,65.84366683963555,65.31335657054076
53.3936,65.14025266234098,65.52506759591672,65.89090411152988,65.92348364741773,66.24026138321658,65.76021397462267
54.1702,65.61056808123818,65.9844090737691,66.3548913678075,66.37701334280823,66.63674328827541,66.20725511056139
54.9581,66.0622182251541,66.4256920625232,66.80002680757904,66.8123575463528,67.01536711820812,66.63615794265395
55.7575,66.4932182251541,66.84734220273906,67.22672850682065,67.22751127183922,67.37417976003051,67.04551320238681
56.5685,66.90853371918648,67.25299254504561,67.63629207917403,67.62726575860813,67.71640201696589,67.43885429733969
57.3914,67.29249951006051,67.62696843749673,68.01442813106745,67.99522468134457,68.02776576768285,67.8009464915675
58.2261,67.6414995100605,67.96592721476063,68.35813091143963,68.32839163027357,68.30456964231414,68.12846104949703
59.073,67.96946545386201,68.28457821848433,68.68040898143431,68.64115234315203,68.55975100914068,68.43517210507663
59.9323,68.2867811479261,68.59222942443766,68.99254084571497,68.94292653810513,68.80429601713769,68.73136891004567
60.804,68.6197811479261,68.91651442968508,69.32053574447069,69.26110217928635,69.06617665418995,69.04411845491941
61.6884,68.98443155059282,69.27153244316318,69.67938455145674,69.61006717134512,69.35800047320821,69.38780469578239
62.5857,69.34909689173536,69.62781796298684,70.03994751452174,69.96085834637177,69.65177027099162,69.73303576648009
63.496,69.70074731981884,69.97047003317395,70.38580117669112,70.29724583714109,69.93158570338655,70.0644448697558
64.4196,70.04971364464943,70.31142998708282,70.73008071410064,70.63263324939557,70.21019023368336,70.39439600238826
65.3566,70.38802953880209,70.64108241588356,71.06378643663906,70.95642294805144,70.47742968957813,70.71339719509045
66.3073,70.69268012241966,70.9374087062037,71.36349479954318,71.24701525012301,70.71132205495223,70.99903621634755
67.2717,70.98934548271684,71.2250614387038,71.65477514575132,71.52881473926645,70.93785783465795,71.2765496544051
68.2502,71.32034548271686,71.54871437371067,71.98105573632098,71.84661921227101,71.19897542313048,71.58941460426148
69.2429,71.67131211085713,71.89167503355999,72.32733657126377,72.18420562302107,71.48065817266705,71.92233410923455
70.2501,72.02196279765435,72.23496255226549,72.67447548408049,72.52141958510934,71.76230930681972,72.25550099242707
71.2719,72.37862817973284,72.58428930268467,73.02632719117538,72.86502605401257,72.05042051048434,72.59469665938431
72.3086,72.7425950360294,72.93994295549308,73.3856087315233,73.21562477886977,72.34633754739421,72.9411826442281
73.3603,73.0965950360294,73.2869042462277,73.73474822767993,73.55623975469078,72.63180048544041,73.27795983798293
74.4274,73.41724582600422,73.60055825808043,74.05103020050439,73.86403050333844,72.88536405431942,73.5819957299866
75.5099,73.7182458260042,73.89451986433876,74.34788304636778,74.15206064699204,73.11927972919854,73.86652384701411
76.6083,74.00456204528938,74.17384702449108,74.63016553640321,74.42608453570487,73.33931234491006,74.1368055913616
77.7226,74.2818783143642,74.44450149686368,74.90330580383583,74.69049018805042,73.55019472571198,74.39808474652254
78.8531,74.59152920751451,74.74846349693023,75.20915951530377,74.98850228854458,73.79483428474654,74.69260420449875
80.0,74.92084555181056,75.06979088739534,75.53344271054829,75.30431088771586,74.05804353765755,75.00558134256651
81.1636,75.25484555181056,75.39775312486294,75.86372615017942,75.62613327666487,74.32770166334339,75.32461691647144
82.3442,75.58849652270654,75.72571552149695,76.193438599156,75.94816587231071,74.59755583238066,75.64363999719204
83.5419,75.90049652270653,76.0310431191744,76.50143606583802,76.24816983210002,74.8456042592037,75.9407989023993
84.757,76.18012941156117,76.30469846670162,76.77700618293211,76.51559648983464,75.0620855309757,76.20590296183286
85.9899,76.4394639908672,76.557661257312,77.03214780433997,76.76258032458641,75.25853609129827,76.45071053505798
87.2406,76.68112941156117,76.79429635142851,77.27043238147732,76.99303485762567,75.43873995691075,76.67886998742406
88.5096,76.9170970301976,77.02425938213372,77.50200243352486,77.21725565487216,75.61256808738872,76.90077861102975
89.797,77.13174818199833,77.23322257202722,77.71314464705344,77.4196663600727,75.76634419177202,77.1018168530411
91.1031,77.22774818199834,77.32422257202724,77.80557293667569,77.5047124860926,75.8025599212716,77.1848598837589
92.4282,77.2620648018178,77.35251401168225,77.83614382507717,77.52690118834136,75.77695795636659,77.2057841738104
93.7726,77.3610648018178,77.44614942938756,77.93114398973903,77.61455345657463,75.81654203068219,77.29179722201619
95.1366,77.50338147146083,77.58311309685855,78.0694300801199,77.74514638355105,75.89993093425461,77.42119573949226
96.5204,77.67203272642354,77.74674864878509,78.23457329913697,77.90279360187637,76.01043127222142,77.57746754061033
97.9243,77.92469819093158,77.99440524904374,78.48343136289229,78.14400294599741,76.20523300243376,77.81770870352548
99.3486,78.19866626606542,78.26304090939256,78.75357497643034,78.40585899882343,76.42190261947549,78.0791962792067
100.794,78.44700080401644,78.50767662306671,78.99886195950944,78.64308251379929,76.61417368788966,78.31603337742227
102.26,78.66431762418796,78.71964084900078,79.21172088731906,78.8489019764058,76.77539461058608,78.52116300591653
103.747,78.89163449419989,78.94196935872961,79.43529432184827,79.06473651088244,76.9476305425636,78.73674652631728
105.256,79.06328593004409,79.10924116284836,79.60315277092208,79.22436128405955,77.06437238968947,78.89675540101605
106.787,79.21695141405651,79.25787714487225,79.75315596066079,79.36701306892101,77.16385555013989,79.03905425702423
108.34,79.39860287533672,79.43551318020134,79.93101614650334,79.53682090963034,77.29204566360463,79.20950217205692
109.916,79.58891987048032,79.62247796707662,80.11844737551445,79.71684620070748,77.4306125762481,79.38958683255426
111.515,79.74691987048034,79.77611413654506,80.27302196443453,79.86269339901354,77.53574705013777,79.53653164065041
113.137,79.84188847991487,79.86607916344158,80.36331299424297,79.94553303824215,77.57814994127911,79.62011715451791
114.783,79.92688847991487,79.94671546703127,80.44460236319249,80.01878530890669,77.61187987340459,79.69440166409662
116.452,79.98454009662397,80.00065934732017,80.4990341253792,80.06520676192447,77.61921309156746,79.74187931497067
118.146,80.03352277037838,80.04562469749727,80.54432646883971,80.10225630585977,77.61825869396772,79.78046026751844
119.865,80.09117443796744,80.09989778418863,80.59833281197648,80.14809005232239,77.62658323207494,79.82800885862589
121.608,80.15382615782265,80.15753440743843,80.65647948566222,80.19834130630865,77.63912266215269,79.87983615444168
123.377,80.19914342874185,80.19917108395323,80.69777331149015,80.23198495770309,77.63680517794026,79.91523096393186
125.171,80.22214342874183,80.21844459676429,80.71678090230368,80.24163836390241,77.61095287576269,79.92785116073826
126.992,80.22511257253858,80.21708143305386,80.71564498002405,80.2322865478237,77.56684915376417,79.92076117269148
128.839,80.23211257253858,80.2213552653843,80.71950941365749,80.22716653720414,77.52720158196593,79.91841732966155
130.713,80.24142996866271,80.22699226141843,80.7248053396625,80.22381947540543,77.48983597994872,79.91789764683992
132.615,80.2180818693593,80.19993716867884,80.6976705976,80.18804960101254,77.42100731875438,79.88499646204178
134.543,80.15639934081665,80.13421147838913,80.63111179065659,80.11257332157886,77.3123180686819,79.81300189382266
136.5,80.1207168621693,80.09484871309061,80.59112213739536,80.0632333203908,77.2302344766676,79.76736427426647
138.486,80.08036886600287,80.05112334216942,80.54698865023295,80.010267134628,77.14907652275049,79.71813721250183
140.5,80.07068646270176,80.0373981841269,80.53257315380574,79.98696611947709,77.09534107848509,79.69866572915745
142.544,80.10900410930647,80.07234379774897,80.5668724902576,80.01064130817262,77.08613509873315,79.72695462882528
144.617,80.0256562162748,79.98561901040055,80.47888473785467,79.91336847355741,76.96075815974142,79.63421795656242
146.721,79.93662612289002,79.89356493558482,80.38618523589905,79.81121427751101,76.83179322409158,79.53654204152964
148.855,79.95294392021992,79.90651101449184,80.39734921699797,79.81212107061963,76.80379705556402,79.54285589370548
151.02,80.01559618254899,79.96542470588248,80.45565119479433,79.85945786528968,76.82347449805859,79.5958208111632
153.217,79.8609140552515,79.8073711752018,80.29623955023047,79.6899344099975,76.62693094931045,79.43169283958602
155.445,79.50823197788299,79.45097703892226,79.93826156453378,79.32166223336327,76.23350585569493,79.06934426809107
157.706,79.3582023413522,79.29792382375359,79.78371042161147,79.15657148983591,76.0441269223063,78.91027658061724
160.0,79.26852038930876,79.2045091361965,79.68873426891555,79.04993010164792,75.91134310552776,78.81045656462265
162.327,79.22449098123681,79.15709481320245,79.63975909727728,78.98948539240503,75.82623408268985,78.75680810941088
164.688,79.3031435274729,79.23237198447507,79.71264123502,79.05141301519035,75.86740278326131,78.82597330640525
167.084,79.5014617262333,79.4276284909105,79.90594824533193,79.23315668394143,76.02617120077524,79.0149116105454
169.514,79.43977997495,79.3621838891794,79.8384099535216,79.15274608297577,75.92209142522489,78.9427824759675
171.98,79.17940367543783,79.09813199432627,79.57230409425615,78.87355177635551,75.61963916030263,78.67205836359038
174.481,79.0337220749976,78.9493585862276,79.42133402215772,78.71013431529049,75.43753638828986,78.51708451014441
177.019,78.99469335464022,78.90663713170807,79.37651041133674,78.65309326870495,75.36166080817173,78.46843387400358
179.594,78.68266478736405,78.5915347407333,79.05926314732805,78.3224967500987,75.0113617708011,78.14683613232935
182.206,78.2746363731706,78.17912336445974,78.64387727947565,77.89254668682699,74.56104808426139,77.7273658099178
184.856,78.27595504903688,78.17735212607593,78.63906436584432,77.87341583584775,74.52213791697345,77.71837190613489
187.545,78.33792686338539,78.23594161013703,78.69453579434624,77.91466132071807,74.54733755899812,77.77018045175492
190.273,78.16489883082627,78.05917154866148,78.51487640025394,77.71993898016535,74.33521128610398,77.58648613856921
193.041,78.07487095136098,77.96540216792378,78.41778271949242,77.607823521374,74.20642271491046,77.48566799012103
195.849,78.10250890592903,77.98930318808698,78.43841296224393,77.61289833908081,74.19649153490687,77.50257730591015
198.697,77.9981622527493,77.88117578029984,78.32675965465383,77.4844219156566,74.0518725255686,77.38687808455718
201.587,77.7754539082472,77.654408567408,78.09610848246973,77.23658604504651,73.78907887565123,77.15244667697065
204.52,77.74142663907274,77.61731160359224,78.05531288585985,77.17856660792411,73.71693647970405,77.10765892996616
207.494,77.82271887735378,77.69418694271856,78.12868056291337,77.23454222432444,73.75957855705299,77.17731629080377
210.512,78.01037256006387,77.87742189668099,78.30775994511893,77.39413886296059,73.90618298132065,77.35243700655217
213.574,77.88798481108763,77.75096859293781,78.177274614155,77.24422281676222,73.74355330445987,77.21793487602318
216.681,77.60563867444904,77.464158178745,77.88607398683911,76.93501803081648,73.42419263110064,76.92365717737344
219.833,77.64658597146925,77.50103775436203,77.91888654099562,76.94691704790613,73.42587397993125,76.95233963348663
223.03,77.75122558577179,77.60158764039335,78.01441693670077,77.02105923726143,73.48869940627186,77.04399304322284
226.274,77.84885381423909,77.69478112591314,78.10267636377445,77.08764744220329,73.54518304330921,77.12848772418829
229.565,77.76882807427565,77.60930697925193,78.01249951800091,76.97502464435418,73.42388314565629,77.0346271928486
232.905,77.57212262195911,77.40850343423502,77.80620777337606,76.74563433220969,73.18698542200364,76.82465984126675
