Freq,Floor Bounce,Ceiling Bounce,Front Wall Bounce,Side Wall Bounce,Rear Wall Bounce,Total Early Reflection
20.0,34.18185788158141,35.48321760346988,35.44953432217076,36.28537414564235,39.50119151287632,36.5948460897595
20.2909,33.81350489764105,35.102164004636535,35.0729259859406,35.89929960919383,39.090465658022794,36.20343966859457
20.586,33.369816827536425,34.64511085337418,34.62204405735008,35.438046041305824,38.60403056515955,35.736703687698935
20.8855,32.97312880685419,34.23474233457276,34.217002287153036,35.023187812351125,38.16333982467441,35.31620401138042
21.1893,32.98844083559868,34.23705814979681,34.224960980387834,35.020133186910556,38.134595434026494,35.30797485854413
21.4975,33.51440008383014,34.74969376215651,34.743495382402784,35.528076789891486,38.615728099950246,35.810169006487484
21.8102,34.3393594847868,35.56164202243349,35.56088876908504,36.33520185277348,39.39550228659368,36.61135734701756
22.1274,35.21735948478678,36.426274444857796,36.431127377729126,37.194547203745174,40.22704374483331,37.46493485682237
22.4492,35.9213190384709,37.11653540204796,37.12738423717278,37.88010577274602,40.88387164820162,38.14429826363178
22.7758,36.31463134104712,37.49648478917305,37.51305753138672,38.25483800309206,41.229611547875464,38.51295615347348
23.1071,36.36794369307802,37.535117962988295,37.55803613872115,38.28819870130215,41.23421665160086,38.540692514720035
23.4432,36.16055105624116,37.314756329158,37.34298912716085,38.06191535295363,40.97746102294107,38.308143408314464
23.7841,35.96755105624118,37.10739004675281,37.141247167177795,37.849287135849636,40.734787215473574,38.089421398312396
24.1301,36.19917610907106,37.32434099699901,37.36463464413305,38.06166394026923,40.915258825539865,38.294971851635154
24.4811,36.98182371946163,38.09360398220821,38.139876688674946,38.82502064093791,41.647265742701165,39.05215575769091
24.8372,38.055449020927824,39.152555761738284,39.204848323616346,39.87879391864314,42.668559780640834,40.099280092769874
25.1984,39.07440948492112,40.1578790583998,40.21581209757363,40.877757651489304,43.634789332392245,41.09193778424424
25.5649,39.82737010168,40.895831654527456,40.960488983454724,41.610725208603554,44.33408048797273,41.818090529808586
25.9368,40.25901797114861,41.31278469979611,41.383871135435555,42.022102826465556,44.71138404900293,42.222792389619116
26.3141,40.433330871206635,41.473056125680415,41.55013153353505,42.176894769225896,44.83149532384488,42.370597857338055
26.6968,40.505291793503005,41.53137410697573,41.614097155235186,42.22846961564673,44.84814347746891,42.41567494145505
27.0851,40.66560481794872,41.67632835050682,41.7657759738961,42.36826644391655,44.952040475174755,42.548416619722076
27.4791,41.04791789191137,42.04428304359351,42.14002228097718,42.72986786102916,45.277532434673304,42.90335110470784
27.8788,41.619879116762775,42.6022381863487,42.7037021512005,43.282061234555414,45.79238316668935,43.44815219195979
28.2843,42.26119231514792,43.22819377888521,43.33666968702116,43.90225885923124,46.37492908258514,44.06136283658026
28.6957,42.89484049440182,43.84752023718386,43.96177616210781,44.51568014282347,46.95005039574119,44.66742096057342
29.1131,43.50280202483057,44.44078743293318,44.561613242291656,45.102896392251864,47.49856038728407,45.247512138741854
29.5365,44.09011537303894,45.013063256310346,45.140582031311084,45.669130736078785,48.02583995709955,45.80672671913453
29.9661,44.64907713118137,45.55771002399493,45.69110885907176,46.207554077009235,48.52417407951256,46.33773021479598
30.402,45.16039060386291,46.053978492233,46.194233894322565,46.69779362654049,48.97365335049042,46.82063586913867
30.8442,45.6190390421244,46.49862629774381,46.645190720372,47.136256399485205,49.371177680368476,47.2516782987619
31.2929,46.0903525897412,46.95526545613703,47.10801338103343,47.58651071900087,49.77966522412922,47.694545820986264
31.748,46.636314728429,47.486544373838626,47.64571068920273,48.11196614952388,50.26261932028689,48.212289288946636
32.2098,47.2762770199283,48.11249443848766,48.278249907374004,48.731227288067004,50.83934617334208,48.824325646821904
32.6783,47.957590767011084,48.778774467003444,48.95065440149381,49.391505808784245,51.45568378833437,49.47680496990563
33.1536,48.59355328628615,49.400104613833406,49.57862074280422,50.00658784230532,52.02710085092107,50.08447755183289
33.6359,49.15986715791672,49.952696013254524,50.137593820215756,50.553084531877715,52.52893623249983,50.623152177697705
34.1251,49.69318107913699,50.47133692973162,50.662274517664514,51.06498140499866,52.996126293163286,51.12775923247071
34.6215,50.254143901192066,51.01729868055514,51.21482236396193,51.604689950181324,53.490337286290156,51.65999198544415
35.125,50.853792804893885,51.60326088280755,51.80651000836133,52.1838053424361,54.02322094869433,52.23151522209909
35.6359,51.45810687608511,52.19354452156006,52.40348500062524,52.76813057080139,54.56101834599545,52.80809797837779
36.1543,52.03542099688312,52.75650777758122,52.973034060165105,53.32506112785984,55.07039152240611,53.35720334597846
36.6802,52.591735167292256,53.298519252997835,53.521441772409105,53.860605521879506,55.558603022166665,53.88532982058956
37.2137,53.16103328439297,53.85479282176419,54.083131237397396,54.40974976623039,56.059640638874754,54.42695875186388
37.755,53.75401274007541,54.433078669414016,54.667107943214035,54.98231003524647,56.58307086236168,54.99145710909934
38.3041,54.34797624569654,55.01404358258556,55.25465855413157,55.55667596753696,57.108230119826416,55.55826571243321
38.8613,54.92462545909211,55.57668710925424,55.823776004512126,56.11305151249755,57.61577058412645,56.10731962063706
39.4265,55.49393990418206,56.13297476567055,56.38575409587294,56.662831032918334,58.11463064237702,56.649186756942925
40.0,56.07490371553382,56.7006188954841,56.95872774115851,57.223821469899875,58.6248213516798,57.20252575751684
40.5818,56.660903715533834,57.272585467303884,57.53728487962714,57.78962035393977,59.139916990187814,57.760969370967814
41.1721,57.21886767975377,57.817552491741864,58.087977633052645,58.328028155108484,59.62737793467139,58.2920085059348
41.771,57.73851712662679,58.324151679268226,58.60095750540101,58.82864237850873,60.0760128885763,58.78497889371087
42.3785,58.23783179684375,58.81079697033297,59.092651226268345,59.3090671860935,60.50377245088521,59.25756108099738
42.9949,58.74014651671875,59.300133437221106,59.58763202160881,59.7918952066004,60.933949503390764,59.733044853254995
43.6203,59.25079606680572,59.79810212220907,60.09090408308022,60.283338299698144,61.37260858696513,60.21718278094663
44.2548,59.77211086174313,60.307071260333146,60.606458645644324,60.786381747898886,61.8219828783062,60.7127427868528
44.8985,60.3207406006282,60.843349670382196,61.14801778519147,61.31583870199202,62.298019874399145,61.235189068042445
45.5515,60.886390279329845,61.39699627051125,61.70713655682172,61.86329998988538,62.791267917191874,61.775253690890835
46.2141,61.43239027932984,61.93029007535489,62.2456963283922,62.390365986642536,63.264222213576886,62.295225015784126
46.8863,61.945355005199815,62.43093728013501,62.75239306542511,62.88484032915004,63.70404736537316,62.782711611821014
47.5683,62.47167004964966,62.94658468653101,63.27294952820077,63.39432864879551,64.15852540698623,63.284795656192784
48.2602,63.02898514378943,63.492188650108005,63.822933620269296,63.93282045420112,64.64231061260445,63.81672764326228
48.9621,63.554635003506476,64.00552811574164,64.34206721419206,64.44071186729275,65.0944023691271,64.31743793590707
49.6743,64.0119501727483,64.45217632892845,64.79348280147904,64.8810167076197,65.47865640978256,64.75069584078224
50.3968,64.46226539169065,64.89078172230228,65.23718163338285,65.31372892069813,65.8557890365494,65.17664102507376
51.1299,64.95691535461378,65.37443049486252,65.72559559104708,65.79104098331828,66.27709598573257,65.64732451710755
51.8736,65.46191535461378,65.86807946929271,66.22430181412584,66.27896406567038,66.70855213351544,66.12846492354929
52.6281,65.93988068938776,66.33572864562552,66.69657130905492,66.74029270763361,67.11361023586194,66.58329996676716
53.3936,66.41019605856738,66.79501099214312,67.16084750775627,67.19342704364412,67.51020477944297,67.03015737084907
54.1702,66.88051147746458,67.2543524699955,67.62483476403389,67.64695673903462,67.9066866845018,67.47719850678779
54.9581,67.3321616213805,67.69563545874959,68.06997020380544,68.0823009425792,68.28531051443451,67.90610133888035
55.7575,67.76316162138049,68.11728559896545,68.49667190304704,68.49745466806561,68.64412315625691,68.31545659861321
56.5685,68.17847711541287,68.52293594127201,68.90623547540042,68.89720915483453,68.98634541319228,68.70879769356608
57.3914,68.5624429062869,68.89691183372312,69.28437152729384,69.26516807757096,69.29770916390925,69.0708898877939
58.2261,68.9114429062869,69.23587061098702,69.62807430766603,69.59833502649997,69.57451303854053,69.39840444572343
59.073,69.23940885008841,69.55452161471072,69.9503523776607,69.91109573937842,69.82969440536708,69.70511550130303
59.9323,69.5567245441525,69.86217282066406,70.26248424194137,70.21286993433152,70.07423941336408,70.00131230627207
60.804,69.8897245441525,70.18645782591148,70.59047914069708,70.53104557551275,70.33612005041634,70.31406185114581
61.6884,70.25437494681921,70.54147583938958,70.94932794768313,70.88001056757152,70.6279438694346,70.65774809200879
62.5857,70.61904028796175,70.89776135921323,71.30989091074814,71.23080174259816,70.92171366721801,71.00297916270648
63.496,70.97069071604524,71.24041342940035,71.65574457291751,71.56718923336749,71.20152909961294,71.3343882659822
64.4196,71.31965704087582,71.58137338330921,72.00002411032703,71.90257664562196,71.48013362990976,71.66433939861466
65.3566,71.65797293502848,71.91102581210995,72.33372983286546,72.22636634427784,71.74737308580453,71.98334059131685
66.3073,71.96262351864605,72.2073521024301,72.63343819576957,72.51695864634941,71.98126545117863,72.26897961257394
67.2717,72.25928887894324,72.4950048349302,72.92471854197771,72.79875813549285,72.20780123088434,72.5464930506315
68.2502,72.59028887894326,72.81865776993706,73.25099913254738,73.1165626084974,72.46891881935687,72.85935800048787
69.2429,72.94125550708353,73.16161842978639,73.59727996749017,73.45414901924747,72.75060156889344,73.19227750546095
70.2501,73.29190619388075,73.50490594849188,73.94441888030688,73.79136298133574,73.03225270304611,73.52544438865347
71.2719,73.64857157595924,73.85423269891106,74.29627058740178,74.13496945023897,73.32036390671074,73.8646400556107
72.3086,74.0125384322558,74.20988635171948,74.6555521277497,74.48556817509616,73.61628094362061,74.2111260404545
73.3603,74.3665384322558,74.5568476424541,75.00469162390633,74.82618315091717,73.9017438816668,74.54790323420933
74.4274,74.68718922223061,74.87050165430682,75.32097359673078,75.13397389956484,74.15530745054582,74.851939126213
75.5099,74.9881892222306,75.16446326056516,75.61782644259418,75.42200404321844,74.38922312542493,75.1364672432405
76.6083,75.27450544151577,75.44379042071748,75.9001089326296,75.69602793193127,74.60925574113645,75.40674898758799
77.7226,75.5518217105906,75.71444489309008,76.17324920006223,75.96043358427681,74.82013812193837,75.66802814274894
78.8531,75.8614726037409,76.01840689315662,76.47910291153016,76.25844568477098,75.06477768097294,75.96254760072515
80.0,76.19078894803695,76.33973428362174,76.80338610677468,76.57425428394225,75.32798693388395,76.27552473879291
81.1636,76.52478894803696,76.66769652108934,77.13366954640581,76.89607667289127,75.59764505956979,76.59456031269784
82.3442,76.85843991893293,76.99565891772335,77.46338199538239,77.2181092685371,75.86749922860706,76.91358339341843
83.5419,77.17043991893293,77.3009865154008,77.77137946206442,77.51811322832641,76.11554765543009,77.21074229862569
84.757,77.45007280778756,77.57464186292802,78.04694957915851,77.78553988606103,76.33202892720209,77.47584635805926
85.9899,77.70940738709359,77.8276046535384,78.30209120056637,78.0325237208128,76.52847948752466,77.72065393128437
87.2406,77.95107280778757,78.06423974765491,78.54037577770372,78.26297825385207,76.70868335313715,77.94881338365046
88.5096,78.18704042642399,78.29420277836012,78.77194582975126,78.48719905109856,76.88251148361512,78.17072200725615
89.797,78.40169157822473,78.50316596825361,78.98308804327984,78.68960975629909,77.03628758799842,78.3717602492675
91.1031,78.49769157822473,78.59416596825363,79.07551633290208,78.774655882319,77.07250331749799,78.4548032799853
92.4282,78.5320081980442,78.62245740790864,79.10608722130357,78.79684458456775,77.04690135259298,78.4757275700368
93.7726,78.6310081980442,78.71609282561396,79.20108738596542,78.88449685280102,77.08648542690858,78.56174061824258
95.1366,78.77332486768722,78.85305649308495,79.3393734763463,79.01508977977744,77.16987433048101,78.69113913571866
96.5204,78.94197612264993,79.01669204501148,79.50451669536336,79.17273699810276,77.28037466844782,78.84741093683672
97.9243,79.19464158715797,79.26434864527013,79.75337475911869,79.41394634222381,77.47517639866015,79.08765209975188
99.3486,79.46860966229181,79.53298430561895,80.02351837265674,79.67580239504983,77.69184601570188,79.3491396754331
100.794,79.71694420024284,79.77762001929311,80.26880535573584,79.91302591002568,77.88411708411606,79.58597677364867
102.26,79.93426102041435,79.98958424522718,80.48166428354546,80.1188453726322,78.04533800681247,79.79110640214293
103.747,80.16157789042629,80.211912754956,80.70523771807467,80.33467990710884,78.21757393879,80.00668992254367
105.256,80.33322932627048,80.37918455907476,80.87309616714847,80.49430468028595,78.33431578591586,80.16669879724245
106.787,80.4868948102829,80.52782054109865,81.02309935688719,80.6369564651474,78.43379894636628,80.30899765325063
108.34,80.66854627156312,80.70545657642774,81.20095954272973,80.80676430585673,78.56198905983102,80.47944556828331
109.916,80.85886326670672,80.89242136330301,81.38839077174084,80.98678959693387,78.70055597247449,80.65953022878065
111.515,81.01686326670674,81.04605753277146,81.54296536066093,81.13263679523993,78.80569044636417,80.8064750368768
113.137,81.11183187614127,81.13602255966798,81.63325639046937,81.21547643446854,78.8480933375055,80.89006055074431
114.783,81.19683187614126,81.21665886325766,81.71454575941888,81.28872870513308,78.88182326963098,80.96434506032301
116.452,81.25448349285037,81.27060274354656,81.76897752160559,81.33515015815087,78.88915648779385,81.01182271119707
118.146,81.30346616660478,81.31556809372367,81.81426986506611,81.37219970208616,78.88820209019411,81.05040366374483
119.865,81.36111783419383,81.36984118041502,81.86827620820287,81.41803344854878,78.89652662830133,81.09795225485229
121.608,81.42376955404904,81.42747780366483,81.92642288188861,81.46828470253504,78.90906605837908,81.14977955066807
123.377,81.46908682496824,81.46911448017963,81.96771670771655,81.50192835392949,78.90674857416666,81.18517436015826
125.171,81.49208682496823,81.48838799299068,81.98672429853008,81.5115817601288,78.88089627198909,81.19779455696465
126.992,81.49505596876497,81.48702482928026,81.98558837625045,81.5022299440501,78.83679254999056,81.19070456891788
128.839,81.50205596876498,81.4912986616107,81.98945280988389,81.49710993343054,78.79714497819232,81.18836072588795
130.713,81.51137336488911,81.49693565764483,81.99474873588889,81.49376287163183,78.75977937617512,81.18784104306631
132.615,81.48802526558569,81.46988056490524,81.96761399382639,81.45799299723893,78.69095071498077,81.15493985826818
134.543,81.42634273704304,81.40415487461553,81.90105518688299,81.38251671780526,78.5822614649083,81.08294529004905
136.5,81.3906602583957,81.36479210931701,81.86106553362175,81.33317671661719,78.500177872894,81.03730767049286
138.486,81.35031226222927,81.32106673839581,81.81693204645934,81.28021053085439,78.41901991897689,80.98808060872823
140.5,81.34062985892815,81.3073415803533,81.80251655003214,81.25690951570348,78.36528447471149,80.96860912538385
142.544,81.37894750553286,81.34228719397537,81.83681588648399,81.28058470439902,78.35607849495955,80.99689802505168
144.617,81.29559961250119,81.25556240662695,81.74882813408107,81.18331186978381,78.23070155596781,80.90416135278882
146.721,81.20656951911641,81.16350833181122,81.65612863212544,81.08115767373741,78.10173662031798,80.80648543775604
148.855,81.22288731644632,81.17645441071824,81.66729261322436,81.08206446684602,78.07374045179041,80.81279928993187
151.02,81.28553957877538,81.23536810210888,81.72559459102072,81.12940126151608,78.09341789428498,80.86576420738959
153.217,81.1308574514779,81.07731457142819,81.56618294645686,80.9598778062239,77.89687434553684,80.70163623581242
155.445,80.77817537410938,80.72092043514866,81.20820496076017,80.59160562958967,77.50344925192132,80.33928766431747
157.706,80.62814573757859,80.56786721997999,81.05365381783787,80.42651488606231,77.3140703185327,80.18021997684363
160.0,80.53846378553516,80.4744525324229,80.95867766514195,80.31987349787431,77.18128650175416,80.08039996084905
162.327,80.49443437746321,80.42703820942884,80.90970249350367,80.25942878863142,77.09617747891625,80.02675150563728
164.688,80.5730869236993,80.50231538070146,80.9825846312464,80.32135641141674,77.13734617948771,80.09591670263164
167.084,80.7714051224597,80.69757188713689,81.17589164155832,80.50310008016783,77.29611459700163,80.28485500677179
169.514,80.7097233711764,80.6321272854058,81.108353349748,80.42268947920216,77.19203482145129,80.2127258721939
171.98,80.44934707166422,80.36807539055266,80.84224749048255,80.14349517258191,76.88958255652902,79.94200175981678
174.481,80.303665471224,80.219301982454,80.69127741838412,79.98007771151688,76.70747978451625,79.78702790637081
177.019,80.26463675086661,80.17658052793446,80.64645380756313,79.92303666493135,76.63160420439813,79.73837727022998
179.594,79.95260818359044,79.86147813695969,80.32920654355445,79.59244014632509,76.2813051670275,79.41677952855575
182.206,79.54457976939699,79.44906676068614,79.91382067570204,79.16249008305338,75.83099148048778,78.9973092061442
184.856,79.54589844526328,79.44729552230233,79.90900776207071,79.14335923207415,75.79208131319984,78.98831530236129
187.545,79.60787025961179,79.50588500636343,79.96447919057263,79.18460471694446,75.81728095522452,79.04012384798132
190.273,79.43484222705267,79.32911494488788,79.78481979648033,78.98988237639175,75.60515468233038,78.85642953479561
193.041,79.34481434758737,79.23534556415018,79.68772611571882,78.8777669176004,75.47636611113685,78.75561138634743
195.849,79.37245230215542,79.25924658431337,79.70835635847033,78.88284173530721,75.46643493113326,78.77252070213655
198.697,79.26810564897569,79.15111917652624,79.59670305088022,78.75436531188299,75.321815921795,78.65682148078358
201.587,79.0453973044736,78.9243519636344,79.36605187869613,78.5065294412729,75.05902227187762,78.42239007319705
204.52,79.01137003529914,78.88725499981864,79.32525628208624,78.4485100041505,74.98687987593044,78.37760232619256
207.494,79.09266227358017,78.96413033894495,79.39862395913977,78.50448562055084,75.02952195327939,78.44725968703017
210.512,79.28031595629027,79.14736529290738,79.57770334134533,78.66408225918698,75.17612637754705,78.62238040277856
213.574,79.15792820731403,79.0209119891642,79.44721801038139,78.51416621298861,75.01349670068626,78.48787827224957
216.681,78.87558207067543,78.73410157497139,79.1560173830655,78.20496142704287,74.69413602732703,78.19360057359984
219.833,78.91652936769565,78.77098115058843,79.18882993722201,78.21686044413252,74.69581737615765,78.22228302971303
223.03,79.02116898199819,78.87153103661974,79.28436033292716,78.29100263348782,74.75864280249826,78.31393643944924
226.274,79.11879721046549,78.96472452213953,79.37261976000084,78.35759083842969,74.8151264395356,78.39843112041468
229.565,79.03877147050204,78.87925037547832,79.2824429142273,78.24496804058057,74.69382654188269,78.304570589075
232.905,78.8420660181855,78.67844683046141,79.07615116960245,78.01557772843609,74.45692881823004,78.09460323749315
