Freq "Floor Bounce"
20.0 32.911914485355
20.2909 32.54356150141467
20.586 32.09987343130999
20.8855 31.70318541062781
21.1893 31.7184974393723
21.4975 32.24445668760373
21.8102 33.069416088560416
22.1274 33.9474160885604
22.4492 34.65137564224449
22.7758 35.04468794482071
23.1071 35.09800029685161
23.4432 34.89060766001478
23.7841 34.69760766001477
24.1301 34.92923271284468
24.4811 35.71188032323525
24.8372 36.78550562470144
25.1984 37.80446608869471
25.5649 38.55742670545362
25.9368 38.98907457492223
26.3141 39.163387474980226
26.6968 39.235348397276624
27.0851 39.39566142172231
27.4791 39.77797449568499
27.8788 40.349935720536365
28.2843 40.991248918921514
28.6957 41.62489709817544
29.1131 42.23285862860419
29.5365 42.82017197681256
29.9661 43.37913373495496
30.402 43.8904472076365
30.8442 44.34909564589802
31.2929 44.82040919351482
31.748 45.36637133220262
32.2098 46.00633362370192
32.6783 46.687647370784674
33.1536 47.32360989005977
33.6359 47.88992376169031
34.1251 48.42323768291064
34.6215 48.984200504965656
35.125 49.583849408667504
35.6359 50.18816347985873
36.1543 50.76547760065674
36.6802 51.32179177106585
37.2137 51.89108988816659
37.755 52.484069343849
38.3041 53.078032849470134
38.8613 53.65468206286573
39.4265 54.22399650795566
40.0 54.80496031930744
40.5818 55.390960319307425
41.1721 55.948924283527376
41.771 56.468573730400394
42.3785 56.96788840061737
42.9949 57.47020312049236
43.6203 57.980852670579324
44.2548 58.50216746551672
44.8985 59.05079720440179
45.5515 59.61644688310345
46.2141 60.162446883103456
46.8863 60.675411608973434
47.5683 61.201726653423265
48.2602 61.75904174756303
48.9621 62.28469160728007
49.6743 62.74200677652189
50.3968 63.192321995464255
51.1299 63.686971958387375
51.8736 64.19197195838738
52.6281 64.66993729316138
53.3936 65.140252662341
54.1702 65.61056808123818
54.9581 66.0622182251541
55.7575 66.49321822515408
56.5685 66.9085337191865
57.3914 67.2924995100605
58.2261 67.6414995100605
59.073 67.96946545386201
59.9323 68.2867811479261
60.804 68.6197811479261
61.6884 68.9844315505928
62.5857 69.34909689173537
63.496 69.70074731981884
64.4196 70.04971364464942
65.3566 70.38802953880209
66.3073 70.69268012241965
67.2717 70.98934548271686
68.2502 71.32034548271686
69.2429 71.67131211085713
70.2501 72.02196279765435
71.2719 72.37862817973284
72.3086 72.74259503602939
73.3603 73.0965950360294
74.4274 73.4172458260042
75.5099 73.7182458260042
76.6083 74.00456204528938
77.7226 74.2818783143642
78.8531 74.59152920751451
80.0 74.92084555181054
81.1636 75.25484555181056
82.3442 75.58849652270655
83.5419 75.90049652270653
84.757 76.18012941156118
85.9899 76.4394639908672
87.2406 76.68112941156116
88.5096 76.91709703019758
89.797 77.13174818199833
91.1031 77.22774818199834
92.4282 77.26206480181781
93.7726 77.3610648018178
95.1366 77.50338147146083
96.5204 77.67203272642352
97.9243 77.92469819093158
99.3486 78.19866626606542
100.794 78.44700080401645
102.26 78.66431762418796
103.747 78.8916344941999
105.256 79.06328593004407
106.787 79.21695141405651
108.34 79.39860287533672
109.916 79.58891987048034
111.515 79.74691987048033
113.137 79.84188847991487
114.783 79.92688847991485
116.452 79.98454009662396
118.146 80.03352277037838
119.865 80.09117443796744
121.608 80.15382615782264
123.377 80.19914342874183
125.171 80.22214342874183
126.992 80.22511257253858
128.839 80.23211257253858
130.713 80.24142996866271
132.615 80.2180818693593
134.543 80.15639934081665
136.5 80.12071686216929
138.486 80.08036886600289
140.5 80.07068646270176
142.544 80.10900410930647
144.617 80.0256562162748
146.721 79.93662612289002
148.855 79.95294392021992
151.02 80.01559618254898
153.217 79.8609140552515
155.445 79.50823197788299
157.706 79.35820234135218
160.0 79.26852038930876
162.327 79.2244909812368
164.688 79.30314352747288
167.084 79.5014617262333
169.514 79.43977997495
171.98 79.17940367543783
174.481 79.0337220749976
177.019 78.99469335464022
179.594 78.68266478736405
182.206 78.27463637317061
184.856 78.27595504903688
187.545 78.3379268633854
190.273 78.16489883082627
193.041 78.07487095136098
195.849 78.10250890592903
198.697 77.99816225274928
201.587 77.77545390824721
204.52 77.74142663907274
207.494 77.82271887735378
210.512 78.01037256006387
213.574 77.88798481108765
216.681 77.60563867444904
219.833 77.64658597146925
223.03 77.7512255857718
226.274 77.84885381423909
229.565 77.76882807427563
232.905 77.5721226219591
236.292 77.23941752409554
239.729 77.3207127807289
243.216 77.52800839190306
246.754 77.72163853854418
250.343 77.62393483613182
253.984 77.52356567485525
257.678 77.38418367474239
261.426 77.11548113939708
265.229 77.11843439627232
269.087 77.17005414273083
273.001 77.08668700099108
276.972 76.88630783761832
281.0 76.86694148916695
285.088 77.15889750023639
289.234 77.50952003681923
293.441 77.69947727034473
297.709 77.43677857039505
302.04 77.22005953034775
306.433 76.91468460176809
310.89 76.77464428087924
315.412 76.65294746015152
320.0 76.7059082106189
324.655 76.80453564184373
329.377 76.99618266947684
334.168 77.04514494691163
339.028 77.05145013279216
343.959 76.60343173071513
348.962 76.49707966830249
354.038 76.4367278076246
359.188 76.57238569187234
364.412 76.48205195294645
369.713 76.27506043354903
375.09 76.30440265371041
380.546 76.24110558270704
386.081 76.23481886903798
391.697 76.11088528130574
397.394 76.05364057723904
403.175 75.84142998457315
409.039 75.72125809665442
414.989 75.60380817489076
421.025 75.51575584925223
427.149 75.3188057072567
433.362 75.15594760035464
439.665 74.96126278701158
446.06 74.71977055645976
452.548 74.46113505653324
459.131 74.23016726806696
465.809 74.04019574665828
472.584 73.85319173629087
479.458 73.71252156547322
486.432 73.57585287376486
493.507 73.4951016899007
500.686 73.40243792130357
507.968 73.34294388949611
515.357 73.35103500604646
522.853 73.41739298541435
530.458 73.52581779058539
538.174 73.66454612909844
546.002 73.8303651063772
553.943 74.01793493595324
562.001 74.2186975916945
570.175 74.42648099966692
578.469 74.63339582281327
586.883 74.83012351559034
595.419 75.01289989523708
604.08 75.18235195361348
612.866 75.33622721317974
621.78 75.47178102072787
630.824 75.58782926117331
640.0 75.68169646464834
649.309 75.75507496282493
658.753 75.81028036500855
668.335 75.84931055840231
678.056 75.87351315636354
687.919 75.88588864815351
697.925 75.89109582614492
708.077 75.89286068076221
718.376 75.89575582523112
728.825 75.90418676481094
739.426 75.92275860060542
750.181 75.95474653814207
761.093 76.00314563565792
772.163 76.06692924490065
783.394 76.14628891460087
794.789 76.24095662942156
806.349 76.34377839420965
818.078 76.45211709389628
829.977 76.55867536959312
842.05 76.65866766588682
854.298 76.74591914870189
866.724 76.81434657365931
879.33 76.86148175962026
892.12 76.88217258530611
905.097 76.87394116380044
918.262 76.83508132742877
931.618 76.76533688946682
945.169 76.6660372505356
958.917 76.53992727029944
972.864 76.39141697474435
987.015 76.22514537920583
1001.37 76.04216673469737
1015.94 75.85924926375193
1030.71 75.6867188084808
1045.71 75.52932608796493
1060.92 75.39545780670815
1076.35 75.29630958970604
1092.0 75.23369034339997
1107.89 75.2102128096836
1124.0 75.22374572551479
1140.35 75.27185023351717
1156.94 75.34846183492849
1173.77 75.44610419667394
1190.84 75.55747460851852
1208.16 75.67337788604888
1225.73 75.78842204600615
1243.56 75.89359523177203
1261.65 75.98276048289463
1280.0 76.04922530597798
1298.62 76.09029273180953
1317.51 76.1047218787582
1336.67 76.09271434147782
1356.11 76.05886710581197
1375.84 76.00829535011272
1395.85 75.94963448056984
1416.15 75.89225344498348
1436.75 75.84250515454296
1457.65 75.80372865039155
1478.85 75.77301773325894
1500.36 75.7433687042726
1522.19 75.70530351604692
1544.33 75.64651124593085
1566.79 75.5618098374983
1589.58 75.44958886558658
1612.7 75.32171945447489
1636.16 75.19666336679474
1659.95 75.10143409251678
1684.1 75.0623768739313
1708.6 75.09485979073528
1733.45 75.19479431932768
1758.66 75.34393056718785
1784.24 75.5091716953207
1810.19 75.66112389844892
1836.52 75.78180868627834
1863.24 75.86580566051646
1890.34 75.92035153064562
1917.83 75.9619012315367
1945.73 76.00621878722788
1974.03 76.0608761754691
2002.74 76.12136319391138
2031.87 76.17513613194194
2061.43 76.20789675952776
2091.41 76.21148914194545
2121.83 76.19043914931723
2152.69 76.15660664743464
2184.01 76.12272350183474
2215.77 76.09386657310978
2248.0 76.06472601591062
2280.7 76.02310708650108
2313.87 75.95683038935324
2347.53 75.86454926476283
2381.68 75.75102241491
2416.32 75.62234218092715
2451.46 75.47714819751936
2487.12 75.30344185619762
2523.3 75.08869514714186
2560.0 74.83580488736834
2597.24 74.56579114648022
2635.01 74.30422540520121
2673.34 74.06329539813004
2712.23 73.8307010160214
2751.68 73.59177163717519
2791.7 73.36089607367512
2832.31 73.18848384288441
2873.5 73.1158769250583
2915.3 73.1225634148149
2957.7 73.13398181318864
3000.72 73.09363614072535
3044.37 73.01971976818659
3088.65 72.97724571488197
3133.58 73.0002701182023
3179.16 73.04080159029246
3225.4 73.03666234663265
3272.31 72.99711368759836
3319.91 72.99642061846723
3368.2 73.07160580869821
3417.19 73.16290494806334
3466.89 73.19226509053466
3517.32 73.1639883054153
3568.48 73.14744887195016
3620.39 73.17037671174685
3673.05 73.19655077858431
3726.47 73.20387581438743
3780.67 73.22493259950298
3835.67 73.27251463288509
3891.46 73.29810770755141
3948.06 73.27361047209936
4005.49 73.23933963726905
4063.75 73.22418102550559
4122.86 73.18984341598176
4182.82 73.10418598815365
4243.66 72.99867787911472
4305.39 72.91954703782199
4368.01 72.87720688119445
4431.55 72.85630210391727
4496.01 72.84488048331838
4561.4 72.84959990625212
4627.75 72.87659454152447
4695.06 72.86968245734488
4763.35 72.81040911359095
4832.64 72.84914060492336
4902.93 73.03768661269304
4974.24 73.13469730695493
5046.6 73.00846231085475
5120.0 72.80802626658755
5194.47 72.6025838566244
5270.03 72.36620027390852
5346.68 72.2357097085789
5424.45 72.24915576408146
5503.35 72.27473683833315
5583.4 72.34294576911198
5664.61 72.51968900330682
5747.01 72.73103240080904
5830.6 72.95434570164213
5915.41 73.29268434777462
6001.45 73.71670786813199
6088.74 74.06375134946121
6177.3 74.34352150303089
6267.15 74.60044510309304
6358.31 74.75804607534809
6450.8 74.78889110242037
6544.62 74.73291206644433
6639.82 74.63799943474153
6736.4 74.47455507618085
6834.38 74.2157186915899
6933.79 74.00894395686598
7034.64 73.92479499758585
7136.96 73.90110742113899
7240.77 73.99809893826568
7346.09 74.19413970431964
7452.94 74.43988552196726
7561.35 74.70035556524363
7671.33 74.91438745993729
7782.91 75.06229931684405
7896.12 75.11315589478204
8010.97 75.04149416493898
8127.49 74.91189542073546
8245.71 74.82421555743575
8365.65 74.75972980174606
8487.33 74.71393216052704
8610.78 74.61828016242188
8736.03 74.38637570735844
8863.09 74.14096303366256
8992.01 74.0174736379042
9122.8 73.9033275469032
9255.5 73.77088553640172
9390.12 73.5215975139763
9526.7 73.20728617516514
9665.27 72.9690771804835
9805.86 72.88667458853041
9948.49 72.89623428652776
10093.2 72.8580157564646
10240.0 72.85703866002645
10388.9 72.88984089986374
10540.1 72.81693832720167
10693.4 72.78778740137494
10848.9 72.86995579395264
11006.7 73.07660559014914
11166.8 73.28141221832533
11329.2 73.48279623554112
11494.0 73.63365875264368
11661.2 73.70841187723069
11830.8 73.78089294649153
12002.9 73.87738030191154
12177.5 73.90043846000107
12354.6 73.77158926181637
12534.3 73.55377037948388
12716.6 73.30355497968173
12901.6 73.01577931864287
13089.2 72.7181076819601
13279.6 72.3192648281506
13472.8 71.91242813032994
13668.8 71.47996002417808
13867.6 70.98102961975476
14069.3 70.48034602384779
14273.9 69.87663762593485
14481.5 69.24833519472503
14692.2 68.76081284400351
14905.9 68.27278389275955
15122.7 67.50977196400635
15342.7 66.39940760015378
15565.8 65.24803791633167
15792.2 64.32873493205972
16021.9 63.40014224986491
16255.0 62.340131877603
16491.4 61.624127605229035
16731.3 61.1880509088419
16974.7 60.84885092575267
17221.6 60.79410123454218
17472.1 60.960953227961184
17726.2 60.93969305629227
17984.0 60.63920851816066
18245.6 60.418792705298955
18511.0 60.26759307350298
18780.2 60.18718934510744
19053.4 60.30864990634686
19330.5 60.22821117273594
19611.7 60.09012839984722
19897.0 59.89565740349438
