Freq "Side Wall Bounce"
20.0 35.015430749415955
20.2909 34.62935621296744
20.586 34.16810264507943
20.8855 33.75324441612473
21.1893 33.75018979068416
21.4975 34.25813339366509
21.8102 35.065258456547085
22.1274 35.92460380751878
22.4492 36.610162376519625
22.7758 36.984894606865666
23.1071 37.018255305075755
23.4432 36.79197195672724
23.7841 36.57934373962324
24.1301 36.79172054404283
24.4811 37.55507724471151
24.8372 38.608850522416745
25.1984 39.60781425526291
25.5649 40.34078181237716
25.9368 40.75215943023916
26.3141 40.9069513729995
26.6968 40.958526219420335
27.0851 41.09832304769016
27.4791 41.45992446480277
27.8788 42.01211783832902
28.2843 42.63231546300484
28.6957 43.245736746597075
29.1131 43.83295299602547
29.5365 44.39918733985239
29.9661 44.93761068078284
30.402 45.42785023031409
30.8442 45.86631300325881
31.2929 46.316567322774475
31.748 46.842022753297485
32.2098 47.46128389184061
32.6783 48.12156241255785
33.1536 48.73664444607893
33.6359 49.28314113565132
34.1251 49.795038008772266
34.6215 50.33474655395493
35.125 50.91386194620971
35.6359 51.498187174574994
36.1543 52.055117731633445
36.6802 52.59066212565311
37.2137 53.139806370003996
37.755 53.712366639020075
38.3041 54.286732571310566
38.8613 54.843108116271154
39.4265 55.39288763669194
40.0 55.95387807367348
40.5818 56.51967695771337
41.1721 57.05808475888209
41.771 57.55869898228234
42.3785 58.039123789867105
42.9949 58.521951810374006
43.6203 59.01339490347175
44.2548 59.51643835167249
44.8985 60.045895305765626
45.5515 60.59335659365898
46.2141 61.12042259041614
46.8863 61.61489693292364
47.5683 62.12438525256911
48.2602 62.662877057974725
48.9621 63.17076847106635
49.6743 63.6110733113933
50.3968 64.04378552447173
51.1299 64.52109758709189
51.8736 65.00902066944398
52.6281 65.47034931140722
53.3936 65.92348364741773
54.1702 66.37701334280823
54.9581 66.8123575463528
55.7575 67.22751127183922
56.5685 67.62726575860813
57.3914 67.99522468134457
58.2261 68.32839163027357
59.073 68.64115234315203
59.9323 68.94292653810513
60.804 69.26110217928635
61.6884 69.61006717134512
62.5857 69.96085834637177
63.496 70.29724583714109
64.4196 70.63263324939557
65.3566 70.95642294805144
66.3073 71.24701525012301
67.2717 71.52881473926645
68.2502 71.84661921227101
69.2429 72.18420562302107
70.2501 72.52141958510934
71.2719 72.86502605401257
72.3086 73.21562477886977
73.3603 73.55623975469078
74.4274 73.86403050333844
75.5099 74.15206064699204
76.6083 74.42608453570487
77.7226 74.69049018805042
78.8531 74.98850228854458
80.0 75.30431088771586
81.1636 75.62613327666487
82.3442 75.94816587231071
83.5419 76.24816983210002
84.757 76.51559648983464
85.9899 76.76258032458641
87.2406 76.99303485762567
88.5096 77.21725565487216
89.797 77.4196663600727
91.1031 77.5047124860926
92.4282 77.52690118834136
93.7726 77.61455345657463
95.1366 77.74514638355105
96.5204 77.90279360187637
97.9243 78.14400294599741
99.3486 78.40585899882343
100.794 78.64308251379929
102.26 78.8489019764058
103.747 79.06473651088244
105.256 79.22436128405955
106.787 79.36701306892101
108.34 79.53682090963034
109.916 79.71684620070748
111.515 79.86269339901354
113.137 79.94553303824215
114.783 80.01878530890669
116.452 80.06520676192447
118.146 80.10225630585977
119.865 80.14809005232239
121.608 80.19834130630865
123.377 80.23198495770309
125.171 80.24163836390241
126.992 80.2322865478237
128.839 80.22716653720414
130.713 80.22381947540543
132.615 80.18804960101254
134.543 80.11257332157886
136.5 80.0632333203908
138.486 80.010267134628
140.5 79.98696611947709
142.544 80.01064130817262
144.617 79.91336847355741
146.721 79.81121427751101
148.855 79.81212107061963
151.02 79.85945786528968
153.217 79.6899344099975
155.445 79.32166223336327
157.706 79.15657148983591
160.0 79.04993010164792
162.327 78.98948539240503
164.688 79.05141301519035
167.084 79.23315668394143
169.514 79.15274608297577
171.98 78.87355177635551
174.481 78.71013431529049
177.019 78.65309326870495
179.594 78.3224967500987
182.206 77.89254668682699
184.856 77.87341583584775
187.545 77.91466132071807
190.273 77.71993898016535
193.041 77.607823521374
195.849 77.61289833908081
198.697 77.4844219156566
201.587 77.23658604504651
204.52 77.17856660792411
207.494 77.23454222432444
210.512 77.39413886296059
213.574 77.24422281676222
216.681 76.93501803081648
219.833 76.94691704790613
223.03 77.02105923726143
226.274 77.08764744220329
229.565 76.97502464435418
232.905 76.74563433220969
236.292 76.37992113042435
239.729 76.42484005770545
243.216 76.59579289369083
246.754 76.7521923207194
250.343 76.6141044646436
253.984 76.47304976347908
257.678 76.29203815198748
261.426 75.97855660384063
265.229 75.9357026150798
269.087 75.94010486178595
273.001 75.80821887477124
276.972 75.55876543878999
281.0 75.48650491774416
285.088 75.72141253199351
289.234 76.01444801425397
293.441 76.14376723231068
297.709 75.82002424210698
302.04 75.53960465922496
306.433 75.16692152748094
310.89 74.95352843600078
315.412 74.75689410288251
320.0 74.73168808516932
324.655 74.74998309565413
329.377 74.85853484717971
334.168 74.81474075813254
339.028 74.72502142774086
343.959 74.17692712887468
348.962 73.9665757738828
354.038 73.7983899838618
359.188 73.81829083453023
364.412 73.60216725654591
369.713 73.26457320401954
375.09 73.1569809250182
380.546 72.94580346075782
386.081 72.78478741284233
391.697 72.493749682404
397.394 72.25568169537009
403.175 71.86122650756224
409.039 71.54356073015533
414.989 71.21470426083478
421.025 70.90748813457938
427.149 70.48469659717372
433.362 70.09074852610625
439.665 69.64890151862966
446.06 69.16127296133713
452.548 68.66535044537794
459.131 68.20469879746574
465.809 67.80301868000555
472.584 67.43810005017612
479.458 67.1593929180973
486.432 66.9273686052448
493.507 66.79653927452524
500.686 66.69492674353626
507.968 66.65815876160376
515.357 66.70554662549795
522.853 66.81378088750039
530.458 66.95262672551884
538.174 67.097719012231
546.002 67.24006476733184
553.943 67.36710068966609
562.001 67.46627962808161
570.175 67.52845859178944
578.469 67.54411987766044
586.883 67.50822361778245
595.419 67.41846158033513
604.08 67.26978128671593
612.866 67.05769706731
621.78 66.78048784917813
630.824 66.43484151858705
640.0 66.0296311997215
649.309 65.57133362977672
658.753 65.05781044217711
668.335 64.4905456412044
678.056 63.91308686755572
687.919 63.345899033185546
697.925 62.83260645079524
708.077 62.422373833720954
718.376 62.15157566327923
728.825 62.03609266443395
739.426 62.06712486120705
750.181 62.21022445358592
761.093 62.41673506051835
772.163 62.63304577178401
783.394 62.82561668277387
794.789 62.96892429871808
806.349 63.04258314344908
818.078 63.043873259651846
829.977 62.978606575761006
842.05 62.863753670817474
854.298 62.73034995487092
866.724 62.62136982988841
879.33 62.58710203710859
892.12 62.67831363261514
905.097 62.9231916246146
918.262 63.32205740898674
931.618 63.83997842081439
945.169 64.4268556414719
958.917 65.03068655383503
972.864 65.61274440235727
987.015 66.14592858648085
1001.37 66.61576114914946
1015.94 67.01647453359062
1030.71 67.34828717388949
1045.71 67.62782291657618
1060.92 67.86606980191144
1076.35 68.07552086442352
1092.0 68.2750396258969
1107.89 68.48168945125472
1124.0 68.7031831664427
1140.35 68.94260669030571
1156.94 69.19858732431386
1173.77 69.45908893517166
1190.84 69.71210051280225
1208.16 69.94646480545426
1225.73 70.15524169675795
1243.56 70.33447505851859
1261.65 70.48277546035922
1280.0 70.60723229064077
1298.62 70.71885839636077
1317.51 70.83071946961867
1336.67 70.95363230475569
1356.11 71.09338299224822
1375.84 71.25115650241565
1395.85 71.42111332900787
1416.15 71.58894525952697
1436.75 71.74117887632575
1457.65 71.86647099680876
1478.85 71.95361731367916
1500.36 71.99649847514648
1522.19 71.99434248159015
1544.33 71.9512861502552
1566.79 71.87386467520489
1589.58 71.77432792259269
1612.7 71.66556489993096
1636.16 71.56021892501673
1659.95 71.47079057814258
1684.1 71.40654722905016
1708.6 71.37221015251036
1733.45 71.36568928188593
1758.66 71.37692827890386
1784.24 71.38949327902013
1810.19 71.38303842941778
1836.52 71.33749161241441
1863.24 71.23651820679747
1890.34 71.07261778214541
1917.83 70.84910225670703
1945.73 70.58122731456064
1974.03 70.2931635370712
2002.74 70.01627547678984
2031.87 69.77911437267723
2061.43 69.59875583279249
2091.41 69.4773445271196
2121.83 69.41117111281767
2152.69 69.3924336759786
2184.01 69.41749636346589
2215.77 69.48938526268124
2248.0 69.6136369481054
2280.7 69.79092593856772
2313.87 70.01495056792078
2347.53 70.2695042948479
2381.68 70.5292475776516
2416.32 70.77214907791388
2451.46 70.97972047563594
2487.12 71.14377946700507
2523.3 71.26466355753512
2560.0 71.34939392276547
2597.24 71.40361835549378
2635.01 71.43001885123658
2673.34 71.42721082675874
2712.23 71.39287064293201
2751.68 71.33119206637032
2791.7 71.25394096467778
2832.31 71.17995445976862
2873.5 71.12629714368477
2915.3 71.10471893152271
2957.7 71.11718076140833
3000.72 71.15791716167404
3044.37 71.2164481388304
3088.65 71.284418861389
3133.58 71.35945566771812
3179.16 71.44377676912615
3225.4 71.5321862720789
3272.31 71.61057747220237
3319.91 71.65888837993835
3368.2 71.66616615628315
3417.19 71.63152324580443
3466.89 71.55928566510224
3517.32 71.45715316845452
3568.48 71.34514325409359
3620.39 71.25623492411938
3673.05 71.21582056397288
3726.47 71.22375587121435
3780.67 71.25731263321387
3835.67 71.300497935252
3891.46 71.35962664911835
3948.06 71.4497243429401
4005.49 71.56843241247157
4063.75 71.6946455086576
4122.86 71.80137242456816
4182.82 71.88094735797702
4243.66 71.94276885800446
4305.39 71.97812765901733
4368.01 71.95910678970863
4431.55 71.88483592314766
4496.01 71.78853429363504
4561.4 71.69046182628779
4627.75 71.60184887779603
4695.06 71.55426446553952
4763.35 71.54707948243744
4832.64 71.53568870192898
4902.93 71.5160631977294
4974.24 71.50504815862122
5046.6 71.4933489498328
5120.0 71.49905945500466
5194.47 71.489453545074
5270.03 71.3355799020023
5346.68 71.02163675697159
5424.45 70.6529920344032
5503.35 70.30787629026689
5583.4 70.09407276119109
5664.61 70.01895555229109
5747.01 70.01366876572375
5830.6 70.08372433140042
5915.41 70.08629446952718
6001.45 69.94776397901146
6088.74 69.72809395897839
6177.3 69.46003719459277
6267.15 69.32428673151423
6358.31 69.30093826459657
6450.8 69.2754336195188
6544.62 69.16610739981546
6639.82 68.99096620373908
6736.4 68.7795839226879
6834.38 68.43812676940134
6933.79 68.24805588012653
7034.64 68.12443250189033
7136.96 67.98186166053858
7240.77 67.89838952223802
7346.09 67.948883773152
7452.94 67.9917411125714
7561.35 67.99591319465523
7671.33 67.99910096354894
7782.91 68.09295660573395
7896.12 68.08614793685918
8010.97 68.0276204776055
8127.49 68.080500915211
8245.71 68.16581215659771
8365.65 68.07562544654037
8487.33 67.85164221244199
8610.78 67.6012133794189
8736.03 67.3422137865389
8863.09 67.23032981442526
8992.01 67.1601601234328
9122.8 66.8831833352822
9255.5 66.52232714737598
9390.12 66.22446285677678
9526.7 65.97219456044668
9665.27 66.0229469709414
9805.86 66.2052082392849
9948.49 66.3870131689758
10093.2 66.31941550286074
10240.0 66.11924690886593
10388.9 66.10190918608933
10540.1 66.0570597186751
10693.4 66.01632100689923
10848.9 66.02713109464467
11006.7 66.16125688004531
11166.8 66.23809906892578
11329.2 66.38501230503094
11494.0 66.64174963759541
11661.2 67.23094749601682
11830.8 67.98880993529092
12002.9 68.47412984308515
12177.5 68.6498547241654
12354.6 68.59724634037705
12534.3 68.18710246082883
12716.6 67.65124144180281
12901.6 67.03889237065589
13089.2 66.5428081873578
13279.6 66.43602042661631
13472.8 66.53226514026517
13668.8 66.77222848800578
13867.6 66.902278496592
14069.3 66.8709955842279
14273.9 66.65561073221396
14481.5 66.36996249371207
14692.2 66.20295862965791
14905.9 66.10818246602985
15122.7 66.12373279084012
15342.7 66.06211023714178
15565.8 65.76410351326977
15792.2 65.08895897355744
16021.9 64.48070848436227
16255.0 64.04833798501208
16491.4 63.665440511419845
16731.3 63.440365522528694
16974.7 63.146562011506944
17221.6 62.771584641566676
17472.1 62.456647422374814
17726.2 62.21337709523759
17984.0 61.942548808535264
18245.6 61.54664843049646
18511.0 61.0991977518467
18780.2 60.61900716500385
19053.4 60.16968531724426
19330.5 59.83593129430447
19611.7 59.540372692950726
19897.0 59.23670259071072
