Freq "Sound Power DI"
22.4 36.73236408352824
23.0 36.38921100280905
23.6 36.37845739484908
24.0 37.10568325221081
25.0 38.14049828227044
25.8 39.094396987170114
26.5 39.91844116525604
27.2 40.52929843246693
28.0 40.977972535883225
29.0 41.33704707185302
30.0 41.59405269973968
30.7 41.746983144704586
31.5 41.8639517649909
32.5 41.93116993952847
33.5 41.95009823528042
34.5 41.92367522269208
35.5 41.83032324397033
36.5 41.75981717102826
37.5 41.617139853830935
38.7 41.462096949138385
40.0 41.33121376881641
41.2 41.181162333198785
42.5 41.05205211762838
43.7 40.948518373604955
45.0 40.90108563466406
46.2 40.93952723670573
47.5 41.02865290160109
48.7 41.157334152278466
50.0 41.269181824786386
51.5 41.39174867546478
53.0 41.48645498542463
54.5 41.50983720065369
56.0 41.550400137421775
58.0 41.529152937441495
60.0 41.47901393717889
61.5 41.43987510640288
63.0 41.38252621992994
65.0 41.35742528619576
67.0 41.302007308462336
69.0 41.30196396830655
71.0 41.306900726228335
73.0 41.31154801354403
75.0 41.35508310715815
77.5 41.332441206050106
80.0 41.33969497301031
82.5 41.332985042990956
85.0 41.26851389316934
87.5 41.25883213993096
90.0 41.2843470173856
92.5 41.27433052072796
95.0 41.32222915819473
97.5 41.38744581929352
100.0 41.46456043921114
103.0 41.51909498184747
106.0 41.54576258069949
109.0 41.555685097930294
112.0 41.570395906067574
115.0 41.58685479787371
118.0 41.59124451660391
122.0 41.659670334701985
125.0 41.745353693325356
128.0 41.91802968396044
132.0 42.043835172861606
136.0 42.190174919779466
140.0 42.26150698361509
145.0 42.26178182976476
150.0 42.1456652152775
155.0 42.00327311610634
160.0 41.917503052239354
165.0 41.8810609244744
170.0 41.892507881716156
175.0 41.892689543179145
180.0 42.01262101957522
185.0 42.256917650415915
190.0 42.53277836104111
195.0 42.79116594847774
200.0 42.906128814619464
206.0 43.02456541634221
212.0 43.15475496600126
218.0 43.32172533484865
224.0 43.484768302882216
230.0 43.642791101713854
236.0 43.71015559347383
240.0 43.69173118430925
250.0 43.71398437704133
258.0 43.7035722825665
265.0 43.660832500422785
272.0 43.93975660028373
280.0 44.46531310768755
290.0 44.6261588693248
300.0 44.46465317197888
307.0 44.30191488455456
315.0 44.17779438673227
325.0 43.921266786040206
335.0 43.716710961944315
345.0 44.02916887817611
355.0 44.79016897064922
365.0 44.79424192148623
375.0 44.609307320436784
387.0 44.812858761851814
400.0 45.33489451548044
412.0 45.79369701984203
425.0 46.00567394329127
437.0 45.39671509699781
450.0 44.79811021941288
462.0 44.402253844906
475.0 44.28129657173487
487.0 44.43492391722501
500.0 45.30539423243951
515.0 45.703169456251004
530.0 44.984642655883164
545.0 44.748488738123314
560.0 44.86857718819958
580.0 44.231918584851
600.0 43.7328833122572
615.0 43.48553942511988
630.0 43.02686330288783
650.0 43.534268696644176
670.0 45.540807664680244
690.0 45.437858079939275
710.0 45.16730768182646
730.0 45.03777447737089
750.0 45.7968534859358
775.0 47.4308999921071
800.0 48.02324749380257
825.0 47.91489111178218
850.0 47.55120623867715
875.0 46.84468395012581
900.0 46.43213204151675
925.0 46.20749053772393
950.0 45.93887269165543
975.0 45.672664409633654
1000.0 45.755267814698186
1030.0 45.90296682861806
1060.0 45.913633612828136
1090.0 45.99890431727741
1120.0 46.20641804784661
1150.0 46.48803244641924
1180.0 46.773116063031864
1220.0 47.04226961288566
1250.0 46.72359262361229
1280.0 47.24400828121698
1320.0 46.72287092747307
1360.0 46.64470432550472
1400.0 46.863020261511934
1450.0 46.73024635966064
1500.0 46.9440382046768
1550.0 48.04803385250699
1600.0 47.01871090677437
1650.0 47.00958386027877
1700.0 47.52008231020275
1750.0 47.828757992847045
1800.0 47.526122564363035
1850.0 47.748911075773734
1900.0 47.49668086893638
1950.0 47.91818554439179
2000.0 47.993142621201585
2060.0 46.947969910450894
2120.0 46.49157459198291
2180.0 47.833639783239605
2240.0 49.146238736420685
2300.0 49.64426557928566
2360.0 50.06122287064096
2400.0 49.31902970831416
2500.0 49.207984541379375
2580.0 48.855804056321816
2650.0 48.96169457380921
2720.0 47.57648697624491
2800.0 48.44990919870375
2900.0 48.139415751540696
3000.0 48.73693493846167
3070.0 48.27657848300933
3150.0 48.22486142876062
3250.0 49.088473633451585
3350.0 48.974398627960625
3450.0 49.09908389994294
3550.0 49.16128091871258
3650.0 49.73992838963683
3750.0 50.05668558609371
3870.0 50.14644898724153
4000.0 50.26443019810469
4120.0 50.49659587953036
4250.0 50.03603724708829
4370.0 49.13140872280708
4500.0 49.286100055196016
4620.0 48.750669959223984
4750.0 49.055481611247885
4870.0 49.3101225981235
5000.0 49.338307757874105
5150.0 50.0066905990527
5300.0 49.89332396048407
5450.0 49.94792361063402
5600.0 49.4204279217837
5800.0 49.31358076897118
6000.0 48.73512864489213
6150.0 48.75160056622302
6300.0 49.23445180350386
6500.0 50.07638673633309
6700.0 50.37956037727332
6900.0 49.758197275800214
7100.0 49.13222673863517
7300.0 48.89232564432723
7500.0 49.17454231239414
7750.0 50.00191310182328
8000.0 50.1633294930126
8250.0 49.634597890867596
8500.0 49.73033525508713
8750.0 49.78784466445907
9000.0 50.17416880108438
9250.0 49.75540604985807
9500.0 49.87450580296708
9750.0 49.899547913568355
10000.0 49.808443276539535
10300.0 49.637659277061985
10600.0 49.441845606157926
10900.0 49.67703145508965
11200.0 49.816426291527094
11500.0 50.0505559354001
11800.0 50.30340912154864
12200.0 48.041418944111214
12500.0 46.007660668718756
12800.0 46.83042827699184
13200.0 45.29395494203722
13600.0 45.66214901806704
14000.0 46.34362939314691
14500.0 47.041180887462914
15000.0 48.63318514088374
15500.0 50.6666378333755
16000.0 50.79952111577835
16500.0 50.60434820497633
17000.0 51.11309290814452
17500.0 50.288388521724116
18000.0 50.15689167501337
18500.0 50.53553710411835
19000.0 50.43872885543476
19500.0 51.09151270496034
