Freq "Sound Power"
22.4 29.671706296078142
23.0 33.677309211410446
23.6 42.67400121842398
24.0 45.54158327528502
25.0 46.23128055786354
25.8 46.565184787581344
26.5 46.73472554029097
27.2 46.77450854536339
28.0 46.91249486599638
29.0 47.199111151683056
30.0 47.89360629033938
30.7 49.142515839603576
31.5 50.886544662793696
32.5 53.081842153575096
33.5 55.50875499441936
34.5 57.860137417050325
35.5 59.98293372105941
36.5 61.92900560934565
37.5 63.805649629306046
38.7 65.59195773727474
40.0 67.33745896272391
41.2 69.11061901052638
42.5 70.90764685173522
43.7 72.99900736914392
45.0 74.35433740633985
46.2 75.27931050498185
47.5 76.43078117525693
48.7 77.53345721621218
50.0 78.38691621334885
51.5 79.20850717109109
53.0 80.12502570055928
54.5 80.95760024040314
56.0 81.78421692679167
58.0 82.67239383084724
60.0 83.52253283110984
61.5 84.10587845045572
63.0 84.5072451404671
65.0 84.88806919300303
67.0 85.24348717073646
69.0 85.58830860259705
71.0 85.98337184467526
73.0 86.37898695020588
75.0 86.79067044970044
77.5 87.24655150513884
80.0 87.58323612947032
82.5 87.7899460594897
85.0 87.9544172093113
87.5 87.97526542299114
90.0 87.81616466065489
92.5 87.4933529574434
95.0 86.9567635529942
97.5 86.52529895869687
100.0 86.20363853845028
103.0 85.9936497961429
106.0 85.92394760726815
109.0 85.90269162743952
112.0 85.88798081930224
115.0 85.8946852432416
118.0 85.8902955245114
122.0 85.8012313749068
125.0 85.61554801628341
128.0 85.31959807617729
132.0 85.01680234733666
136.0 84.75910540578451
140.0 84.58576561270941
145.0 84.50767070577977
150.0 84.42227602028748
155.0 84.30846274100952
160.0 84.10542805024129
165.0 83.97528379399796
170.0 84.18799228920844
175.0 84.41059495084637
180.0 84.34828069003356
185.0 83.88372031461422
190.0 83.05478884024024
195.0 82.40846291445978
200.0 82.35937559525492
206.0 82.67640362528172
212.0 83.14621407562267
218.0 83.459624530664
224.0 83.49658156263042
230.0 83.49099875489367
236.0 83.53127868997046
240.0 83.56996313716486
250.0 83.525218843881
258.0 83.43563093835581
265.0 83.28192912492989
272.0 82.80752182649644
280.0 82.20675323576674
290.0 82.1411946921193
300.0 82.26430898497038
307.0 82.32455549986445
315.0 82.36113713669769
325.0 82.5189626174367
335.0 82.63780785836065
345.0 81.96855712516904
355.0 80.9816146486139
365.0 80.83682177329693
375.0 80.81767709315697
387.0 80.34293510904848
400.0 79.76755493987788
412.0 79.18017396805631
425.0 78.7442793098641
437.0 79.5165133123971
450.0 80.42729440464423
462.0 80.99452485452433
475.0 81.19349817347026
487.0 80.9041071116517
500.0 79.61085466946437
515.0 78.9262155277149
530.0 79.54955082808219
545.0 79.58894336939976
560.0 79.39837252590146
580.0 79.71780096179596
600.0 80.29225143632243
615.0 80.91804816677016
630.0 81.10976720944286
650.0 80.56490648905442
670.0 77.79010233092357
690.0 77.54072392926714
710.0 78.42855299549343
730.0 78.97029378600118
750.0 77.92261225718643
775.0 76.0959992331383
800.0 75.20047198547903
825.0 75.40586097999586
850.0 75.86876435993051
875.0 76.83402889884668
900.0 77.40570031451729
925.0 77.3616375577968
950.0 78.1154390123893
975.0 78.57026499444015
1000.0 78.8689262889547
1030.0 78.70461198318502
1060.0 78.76415133738062
1090.0 78.53921233088299
1120.0 78.16601078063118
1150.0 77.80206788160709
1180.0 77.55651881763323
1220.0 77.51340310850428
1250.0 78.07899127149726
1280.0 77.46512149480681
1320.0 77.60225921086827
1360.0 77.57112949715459
1400.0 77.01546147284813
1450.0 76.94030246973998
1500.0 76.93883087442138
1550.0 76.1914398543414
1600.0 76.96798162046527
1650.0 77.80198030597963
1700.0 77.71959243347904
1750.0 76.27225167864377
1800.0 76.26190554680431
1850.0 75.29091615650485
1900.0 75.00056459841507
1950.0 75.04981639693747
2000.0 75.66035533805412
2060.0 77.09608484250371
2120.0 77.60714981735345
2180.0 75.97925212405153
2240.0 73.52113511453975
2300.0 72.94305643834527
2360.0 72.38791353078705
2400.0 73.63105302821076
2500.0 73.96751785955412
2580.0 74.52789393331835
2650.0 74.29106319601259
2720.0 76.19822960903898
2800.0 74.54300401395703
2900.0 73.88718648523141
3000.0 73.66633785414622
3070.0 74.74175130133189
3150.0 75.11695350664884
3250.0 74.64568860811197
3350.0 74.66506052996425
3450.0 74.99248439289042
3550.0 76.13195050777418
3650.0 76.14315716720932
3750.0 75.37948837651979
3870.0 74.97862568740679
4000.0 74.16592309745916
4120.0 73.11109470989616
4250.0 72.42296252905795
4370.0 74.05543931410516
4500.0 75.64238280424125
4620.0 77.66707217917825
4750.0 79.60397617154763
4870.0 77.88446742054941
5000.0 76.19576613793221
5150.0 73.90915948158921
5300.0 73.21288451962192
5450.0 72.91891208755973
5600.0 73.10310435684825
5800.0 75.29001847225831
6000.0 77.62321666081289
6150.0 78.48231198401798
6300.0 77.77992694410304
6500.0 74.90697621459549
6700.0 73.844980175959
6900.0 74.53571122109413
7100.0 76.6716091531111
7300.0 77.12963849010332
7500.0 76.35096836061864
7750.0 74.93197283826844
8000.0 75.16287569091385
8250.0 77.45359784275009
8500.0 76.87375737847648
8750.0 76.07749597944637
9000.0 76.6509751367203
9250.0 78.17021383810258
9500.0 77.72311486341894
9750.0 77.4798757914074
10000.0 76.36350410973374
10300.0 75.41568575920903
10600.0 76.13633642744675
10900.0 77.84141640707851
11200.0 76.18847830991147
11500.0 74.07205298742178
11800.0 74.42738856548017
12200.0 77.3951667913243
12500.0 81.88270945690786
12800.0 76.91499098940997
13200.0 82.38188223425796
13600.0 83.88379495274357
14000.0 78.6050688438617
14500.0 76.9317833243876
15000.0 76.11064969491376
15500.0 73.97575355143141
16000.0 73.18640967364998
16500.0 73.02267529332362
17000.0 73.32638758201118
17500.0 72.83616355012198
18000.0 68.61040991094742
18500.0 67.26875318164697
19000.0 64.45939458768244
19500.0 61.945251436324256
