Freq,On Axis,Listening Window,Sound Power,Early Reflections,Early Reflections DI,Sound Power DI,DI offset
22.4,32.0,31.83138991269317,28.08912032167595,30.09835731139046,41.73303260130271,43.74226959101722,40
23.0,34.0,33.74305920444644,30.03251154449606,32.032456372788005,41.710602831658434,43.71054765995038,40
23.6,36.0,35.80901422493406,32.08893912054941,34.087831280391555,41.721182944542505,43.72007510438465,40
24.0,38.79999999999998,38.54305920444645,34.84971185437246,36.84574651011087,41.69731269433558,43.69334735007399,40
25.0,40.20000000000002,39.943059204446456,36.21958422121406,38.22401749540279,41.719041709043665,43.72347498323239,40
25.8,41.29999999999998,41.05443265823527,37.38020436496507,39.35141432023656,41.703018337998714,43.674228293270204,40
26.5,42.400000000000006,42.197252971940884,38.521041583034844,40.501058383169294,41.69619458877159,43.67621138890604,40
27.2,43.70000000000002,43.443059204446456,39.7790160976991,41.753839805599824,41.68921939884663,43.66404310674736,40
28.0,45.099999999999994,44.84305920444646,41.183383836949616,43.15575948914031,41.68729971530615,43.659675367496845,40
29.0,45.599999999999994,45.39725297194087,41.75782629911674,43.72130521157558,41.67594776036529,43.63942667282413,40
30.0,46.5,46.29725297194088,42.64674629671052,44.59582741281292,41.701425559127955,43.65050667523036,40
30.7,47.29999999999998,47.04305920444645,43.423846836482255,45.37141740392664,41.67164180051981,43.619212367964195,40
31.5,49.0,48.79725297194088,45.181236800081166,47.11612734920905,41.68112562273183,43.61601617185971,40
32.5,50.5,50.30901422493406,46.69695833461961,48.61873724924263,41.69027697569143,43.61205589031445,40
33.5,51.70000000000002,51.42074371294615,47.82831679247627,49.75591199628579,41.66483171666036,43.592426920469876,40
34.5,53.0,52.79725297194085,49.19589454413074,51.118526112383535,41.678726859557315,43.60135842781011,40
35.5,54.599999999999994,54.36285172742657,50.7834052034336,52.70022714496474,41.66262458246183,43.57944652399297,40
36.5,56.400000000000006,56.197252971940884,52.630377992223856,54.5339230628752,41.66332990906568,43.56687497971703,40
37.5,58.400000000000006,58.14305920444647,54.58951316695493,56.48159749847363,41.66146170597284,43.55354603749154,40
38.7,60.400000000000006,60.162851727426585,56.60728971336391,58.488933720188754,41.67391800723783,43.55556201406267,40
40.0,61.7,61.50901422493408,57.974228636103135,59.84889545998449,41.66011876494959,43.53478558883094,40
41.2,63.599999999999994,63.39725297194087,59.89063025966671,61.7573718296009,41.63988114233997,43.506622712274165,40
42.5,65.2,64.99725297194088,61.480015992124436,63.34944766351606,41.64780530842482,43.517236979816445,40
43.7,66.5,66.24063796503015,62.747302446592656,64.59429641500617,41.646341550023976,43.49333551843749,40
45.0,67.8,67.59725297194088,64.12713231948258,65.97581679590517,41.6214361760357,43.47012065245829,40
46.2,68.8,68.56285172742658,65.06635523562407,66.90875375361377,41.65409797381281,43.4964964918025,40
47.5,69.79999999999998,69.54063796503013,66.07339638593125,67.90270489462291,41.637933070407215,43.46724157909888,40
48.7,70.6,70.36285172742657,66.90398103415706,68.73171600277936,41.63113572464721,43.45887069326952,40
50.0,71.5,71.27417353315727,67.82587960014405,69.63830196283129,41.635871570325975,43.44829393301322,40
51.5,72.29999999999998,72.11725487435672,68.67963299735592,70.48568882814685,41.63156604620987,43.437621877000794,40
53.0,73.2,73.01725487435674,69.59926067813085,71.39630739176742,41.620947482589315,43.41799419622589,40
54.5,74.2,73.99725297194087,70.57030892774456,72.36540157555002,41.63185139639084,43.426944044196304,40
56.0,75.2,75.01725487435672,71.61299685214345,73.40712247267476,41.610132401681966,43.40425802221327,40
58.0,76.3,76.05201775310968,72.67316482585265,74.44887877285163,41.60313898025805,43.37885292725703,40
60.0,77.4,77.1830123290281,73.79528367371783,75.56970596775338,41.613306361274724,43.38772865531027,40
61.5,78.4,78.21725487435674,74.83661249049095,76.60586646491457,41.61138840944217,43.38064238386579,40
63.0,79.5,79.22896215694925,75.85685061244929,77.6194886791584,41.60947347779086,43.37211154449996,40
65.0,80.5,80.2722285934395,76.91005219198932,78.67042267576645,41.60180591767305,43.36217640145017,40
67.0,81.4,81.18301232902812,77.8108941869403,79.58190931037926,41.60110301864886,43.372118142087814,40
69.0,82.29999999999998,82.11725487435672,78.75762506630943,80.5101365925906,41.60711828176612,43.35962980804729,40
71.0,83.1,82.91725487435673,79.56309186618566,81.31155482723346,41.605700047123264,43.35416300817107,40
73.0,83.9,83.64063796503012,80.29215047594286,82.0349787104264,41.60565925460372,43.34848748908726,40
75.0,84.6,84.36090170960878,80.99272503035024,82.73608365520349,41.624818054405296,43.36817667925854,40
77.5,85.1,84.89428176701229,81.52644461571445,83.26913498624819,41.6251467807641,43.367837151297834,40
80.0,85.6,85.34928032556397,81.98860028897731,83.73033235321415,41.618947972349815,43.36068003658666,40
82.5,85.9,85.6609017096088,82.3015118076987,84.04630633227232,41.61459537733647,43.35938990191009,40
85.0,86.0,85.81725487435673,82.46533188123838,84.2082795564434,41.608975317913334,43.35192299311835,40
87.5,86.0,85.81725487435673,82.45945227390003,84.20943697098403,41.607817903372705,43.35780260045671,40
90.0,86.0,85.76090170960879,82.39948338049862,84.14674684643111,41.614154863177674,43.361418329110165,40
92.5,85.9,85.69531834297536,82.31143389761954,84.06149732958127,41.63382101339408,43.38388444535582,40
95.0,85.80000000000001,85.61725487435673,82.22770060122178,83.97727307231989,41.63998180203684,43.38955427313495,40
97.5,85.7,85.51725487435674,82.13175529467117,83.87710310484746,41.64015176950927,43.38549957968557,40
100.0,85.6,85.4376277601377,82.0378543888117,83.79119511135706,41.646432648780646,43.399773371326006,40
103.0,85.6,85.39531834297534,81.99003802147143,83.75296787086445,41.64235047211089,43.40528032150391,40
106.0,85.6,85.39531834297534,81.98090631658025,83.74126242531023,41.65405591766512,43.4144120263951,40
109.0,85.7,85.44928032556396,82.02265108985381,83.80089354596832,41.64838677959564,43.42662923571015,40
112.0,85.7,85.4722285934395,82.04675294003098,83.82172034331197,41.65050825012753,43.42547565340851,40
115.0,85.7,85.44928032556396,82.00549563870695,83.79010084405459,41.65917948150937,43.443784686857015,40
118.0,85.6,85.34928032556397,81.89349047199275,83.68759229948662,41.66168802607734,43.45578985357122,40
122.0,85.4,85.21725487435673,81.73476578688486,83.53196433289907,41.68529054145766,43.48248908747186,40
125.0,85.2,85.01725487435672,81.53640149223844,83.34433772156082,41.672917152795904,43.48085338211828,40
128.0,85.0,84.81725487435673,81.31438679816362,83.1298688802743,41.68738599408243,43.50286807619311,40
132.0,84.79999999999998,84.56063752019827,81.05685306931987,82.8697839967514,41.690853523446876,43.5037844508784,40
136.0,84.5,84.29531834297535,80.77012434666847,82.59819556095876,41.69712278201659,43.52519399630688,40
140.0,84.3,84.04928032556397,80.48758445525564,82.32903711463402,41.72024321092995,43.56169587030833,40
145.0,84.0,83.78378881309229,80.21254414860482,82.05915976121761,41.72462905187467,43.571244664487466,40
150.0,83.9,83.62896215694924,80.02364403441454,81.88300206821754,41.74596008873171,43.6053181225347,40
155.0,83.8,83.54928032556396,79.91811337624233,81.79154733208594,41.757732993478015,43.631166949321624,40
160.0,83.69999999999999,83.46063752019828,79.83348429163084,81.70198264390098,41.7586548762973,43.62715322856744,40
165.0,83.6,83.3837888130923,79.74038698959156,81.62262126940206,41.761167543690235,43.64340182350074,40
170.0,83.6,83.31752171595781,79.64241840240345,81.53943646412401,41.7780852518338,43.67510331355436,40
175.0,83.5,83.24928032556397,79.54902758057676,81.4467289756613,41.80255134990267,43.70025274498721,40
180.0,83.4,83.14928032556395,79.44852341783474,81.37505369743323,41.77422662813072,43.700756907729215,40
185.0,83.30000000000001,83.08378881309228,79.34759721244512,81.27487219137575,41.808916621716534,43.73619160064716,40
190.0,83.2,82.98378881309227,79.23281469424359,81.17216825314944,41.81162055994284,43.75097411884869,40
195.0,83.1,82.86063752019827,79.09840702823423,81.03278963137062,41.82784788882765,43.76223049196403,40
200.0,83.0,82.72896215694925,78.94527558996154,80.90987536152319,41.81908679542606,43.78368656698771,40
206.0,82.9,82.62896215694926,78.82399832490293,80.78255537043962,41.84640678650963,43.804963832046326,40
212.0,82.8,82.58405159795619,78.74958340867184,80.72249704089953,41.861554557056664,43.83446818928435,40
218.0,82.9,82.61778246766357,78.74473594320409,80.7377136260709,41.880068841592674,43.87304652445948,40
224.0,82.9,82.6840515979562,78.80088417660241,80.80912365115503,41.874927946801165,43.88316742135379,40
230.0,83.0,82.78405159795618,78.87415969225862,80.8945280709062,41.889523527049974,43.90989190569756,40
236.0,83.1,82.82948833002334,78.89146626809683,80.91920939764618,41.91027893237715,43.9380220619265,40
240.0,83.1,82.82948833002334,78.87545795285736,80.92384473478607,41.905643595237265,43.95403037716598,40
250.0,83.1,82.85280582280592,78.86391601186989,80.92802639798057,41.924779424825346,43.98888981093603,40
258.0,83.2,82.92948833002333,78.87435638943487,80.95187490650616,41.97761342351717,44.05513194058847,40
265.0,83.2,82.95280582280594,78.88067817886899,80.97391465109486,41.97889117171108,44.07212764393695,40
272.0,83.2,82.96468789709037,78.8379735634785,80.96051419569746,42.004173701392915,44.12671433361187,40
280.0,83.2,82.87653755130846,78.73600131385002,80.8660987027827,42.010438848525766,44.140536237458434,40
290.0,83.0,82.75385262189533,78.58410374455111,80.7357014958864,42.01815112600893,44.16974887734422,40
300.0,82.9,82.65385262189534,78.4109235733477,80.59625647311888,42.057596148776454,44.24292904854764,40
307.0,82.8,82.53401895001014,78.22686580515449,80.43173498584986,42.10228396416028,44.30715314485565,40
315.0,82.7,82.39987890724903,78.05943481577755,80.28241752755825,42.11746137969078,44.34044409147148,40
325.0,82.6,82.2672979666485,77.85859408368442,80.11228784935733,42.15501011729117,44.408703882964076,40
335.0,82.5,82.14752574274888,77.69572904859335,79.97279484867423,42.174730894074656,44.45179669415553,40
345.0,82.4,82.1355965561174,77.60815176722002,79.91670137403295,42.21889518208445,44.527444788897384,40
355.0,82.5,82.159982113983,77.5886560806228,79.91833430053731,42.241647813445695,44.57132603336021,40
365.0,82.6,82.259982113983,77.59517118198822,79.95008848817187,42.30989362581113,44.66481093199478,40
375.0,82.7,82.30835278297042,77.6048407798152,79.98922301647319,42.31912976649723,44.70351200315521,40
387.0,82.7,82.32121419279594,77.59242918394295,79.98595678212969,42.335257410666244,44.72878500885298,40
400.0,82.7,82.32121419279594,77.53852339498451,79.94553869984904,42.3756754929469,44.782690797811426,40
412.0,82.7,82.32121419279594,77.47327824790591,79.89549202674087,42.42572216605507,44.847935944890025,40
425.0,82.6,82.2480420339692,77.3815857984612,79.81743775503841,42.43060427893079,44.866456235508,40
437.0,82.5,82.09506684592404,77.17700545752412,79.61731953030247,42.47774731562157,44.91806138839992,40
450.0,82.20000000000002,81.80857465254616,76.88310859110484,79.3096589452161,42.498915707330056,44.92546606144131,40
462.0,82.0,81.52085739477135,76.6010330751819,79.02702258935328,42.493834805418075,44.91982431958945,40
475.0,81.8,81.39391938272047,76.47633615732066,78.88575159781792,42.508167784902554,44.91758322539981,40
487.0,81.9,81.44425991863868,76.50814618662889,78.93205702362903,42.51220289500965,44.93611373200979,40
500.0,82.0,81.5347797728999,76.57535845288581,79.0082742397446,42.5265055331553,44.95942132001409,40
515.0,81.9,81.47316364800221,76.53966154179017,78.98145207870193,42.49171156930028,44.933502106212046,40
530.0,81.8,81.32440714610351,76.34053422869823,78.8571182733033,42.46728887280021,44.98387291740528,40
545.0,81.6,81.125898410424,76.10673124974753,78.72218410203988,42.403714308384124,45.019167160676474,40
560.0,81.6,81.12869938079263,75.98942228859845,78.73982539633232,42.388873984460304,45.13927709219418,40
580.0,81.7,81.23505922482036,75.97356029018114,78.87650155018027,42.358557674640096,45.26149893463922,40
600.0,81.8,81.26947808528709,75.86403064801297,78.92460419647125,42.34487388881584,45.40544743727412,40
615.0,81.8,81.24736600249199,75.6669835108386,78.88629750712809,42.361068495363895,45.58038249165338,40
630.0,81.7,81.18203452191247,75.47265252106482,78.82299972353982,42.35903479837265,45.709382000847654,40
650.0,81.8,81.29379727703491,75.42985230038362,78.88144263527825,42.412354641756664,45.8639449766513,40
670.0,82.0,81.4937972770349,75.49707624006395,79.05016771617747,42.44362956085743,45.99672103697095,40
690.0,82.4,81.81563455766236,75.7022815482991,79.32883114627437,42.486803411387996,46.113353009363266,40
710.0,82.7,82.11709860777876,75.86191000038005,79.55792937101941,42.559169236759345,46.25518860739871,40
730.0,82.9,82.31134343023534,75.91145704199383,79.6757178905302,42.635625539705146,46.39988638824151,40
750.0,83.1,82.50011823558957,75.96592152586666,79.76144084592931,42.73867738966025,46.534196709722906,40
775.0,83.30000000000001,82.66194837322438,75.9703359369726,79.79743137094705,42.864517002277324,46.69161243625177,40
800.0,83.4,82.67862790457697,75.82496615099413,79.65312418197828,43.025503722598685,46.85366175358284,40
825.0,83.30000000000001,82.56831407660194,75.59714526876633,79.38751617428237,43.18079790231957,46.97116880783561,40
850.0,83.2,82.427749031714,75.36450863326824,79.10863827403608,43.31911075767792,47.06324039844576,40
875.0,83.0,82.20366829648718,75.10743293911807,78.7600975243705,43.443570772116686,47.09623535736911,40
900.0,82.7,81.88982970143839,74.85295812180453,78.39591725506885,43.493912446369535,47.03687157963385,40
925.0,82.4,81.64057398451808,74.78706683058368,78.19863546294478,43.441938521573306,46.8535071539344,40
950.0,82.20000000000002,81.44438352234087,74.8029097796285,78.13478052437014,43.30960299797073,46.64147374271238,40
975.0,82.20000000000002,81.45812204099735,74.94634364606965,78.25561879031761,43.20250325067974,46.5117783949277,40
1000.0,82.29999999999998,81.58934837690573,74.94400611158534,78.35978809282625,43.22956028407948,46.645342265320394,40
1030.0,82.5,81.64083182091221,74.48424673741376,78.12378805586432,43.51704376504789,47.156585083498456,40
1060.0,82.6,81.56008191031559,73.69288349726595,77.63212131557002,43.92796059474557,47.867198413049636,40
1090.0,82.9,81.59378483214438,72.97719786298421,77.19542535890675,44.39835947323763,48.61658696916017,40
1120.0,83.2,81.73613859072772,72.59283736773494,76.961880078221,44.77425851250672,49.143301222992775,40
1150.0,83.30000000000001,81.83181573486985,72.45201895651613,76.8372478876945,44.99456784717535,49.37979677835372,40
1180.0,83.4,81.85129060288585,72.49198740956533,76.77638884670655,45.0749017561793,49.35930319332053,40
1220.0,83.30000000000001,81.75426022869732,72.53616524266438,76.70586230449328,45.04839792420404,49.21809498603294,40
1250.0,83.1,81.61652207986504,72.61661698699936,76.69193495584683,44.9245871240182,48.999905092865674,40
1280.0,82.9,81.48082528582006,72.7525393184072,76.76839686598339,44.71242841983667,48.72828596741286,40
1320.0,82.8,81.42577818594938,72.92949338166015,76.96812894488696,44.45764924106243,48.49628480428923,40
1360.0,82.6,81.35722717143264,73.08532734230347,77.1557507786557,44.20147639277694,48.27189982912917,40
1400.0,82.5,81.3654787633368,73.26363074303522,77.38125884173517,43.98421992160162,48.101848020301574,40
1450.0,82.4,81.37643430590485,73.39198143995347,77.54990527823786,43.82652902766699,47.98445286595138,40
1500.0,82.20000000000002,81.35537577900661,73.39267094496414,77.59767492994222,43.75770084906439,47.96270483404247,40
1550.0,82.1,81.20832392259564,73.18313584046268,77.4762732090359,43.732050713559744,48.025188082132956,40
1600.0,82.1,81.09792394649509,72.97121222997808,77.36455220523823,43.73337174125686,48.12671171651701,40
1650.0,82.20000000000002,81.07826203550798,72.85094312953902,77.32491264864021,43.75334938686777,48.22731890596896,40
1700.0,82.20000000000002,81.05097702573278,72.67632429419704,77.22507363158005,43.82590339415273,48.37465273153573,40
1750.0,82.20000000000002,81.03990103351074,72.47381620586003,77.07585044101491,43.96405059249584,48.56608482765071,40
1800.0,82.29999999999998,80.96206934161363,72.1085686135008,76.78648169003479,44.17558765157884,48.853500728112834,40
1850.0,82.29999999999998,80.80072701645632,71.62828766650469,76.36835928029154,44.43236773616478,49.17243934995163,40
1900.0,82.29999999999998,80.62280755736566,71.16957761901993,75.9328201325574,44.689987424808265,49.45322993834573,40
1950.0,82.4,80.64348065985199,71.04539237187652,75.7959788423728,44.847501817479184,49.59808828797547,40
2000.0,82.5,80.75738216680449,71.12646299342285,75.78170108916302,44.97568107764147,49.63091917338164,40
2060.0,82.6,80.90385969899546,71.3089178750303,75.85642899758987,45.04743070140559,49.59494182396516,40
2120.0,82.7,81.1564708967324,71.65197335036893,76.01794042064348,45.13853047608892,49.50449754636347,40
2180.0,82.9,81.33173204017467,71.86113253801417,76.1035979485571,45.22813409161758,49.470599502160496,40
2240.0,82.9,81.28598767299596,71.80097064873492,75.97249793096805,45.31348974202791,49.48501702426104,40
2300.0,83.0,81.36084702622628,71.77715932818336,75.94810008156304,45.41274694466324,49.58368769804292,40
2360.0,83.0,81.38391512836255,71.68978812652938,75.91352999208885,45.47038513627369,49.694127001833166,40
2400.0,82.9,81.38164005361511,71.6081295737639,75.90727671587317,45.47436333774195,49.77351047985121,40
2500.0,82.7,81.14994313891745,71.39316739232886,75.68297442458501,45.46696871433244,49.75677574658859,40
2580.0,82.5,80.96882778862445,71.24627064780697,75.49539805084103,45.47342973778342,49.722557140817486,40
2650.0,82.4,80.71964284366942,71.00807921130726,75.29883207981449,45.42081076385493,49.71156363236216,40
2720.0,82.29999999999998,80.41633819804608,70.63297007384918,75.04516587047658,45.3711723275695,49.7833681241969,40
2800.0,82.5,80.22272134997101,70.24015213036114,74.83083543932712,45.39188591064389,49.98256921960987,40
2900.0,82.5,80.16202623542421,70.04787823356162,74.71944314798901,45.442583087435196,50.11414800186259,40
3000.0,82.7,80.45517088996709,70.35223994988917,75.01986559371109,45.435305296256004,50.102930940077925,40
3070.0,82.9,80.7855152671097,70.68040712945027,75.41714282293559,45.36837244417411,50.10510813765943,40
3150.0,82.9,81.0149684751284,70.97822478519385,75.75416063524466,45.26080783988374,50.03674368993455,40
3250.0,82.9,81.15798698499131,71.20320267148813,75.94841010596735,45.209576879023956,49.95478431350318,40
3350.0,83.1,81.25999200151685,71.39042361781699,76.10921443376775,45.1507775677491,49.86956838369986,40
3450.0,83.2,81.18185454347405,71.30453167984042,76.01111255459216,45.170741988881886,49.87732286363362,40
3550.0,83.4,81.37472656650878,71.55302715750103,76.23013054421261,45.14459602229617,49.82169940900775,40
3650.0,83.6,81.6073707462511,71.81090001525853,76.46209339694235,45.145277349308756,49.79647073099258,40
3750.0,83.2,81.2541511569552,71.42360819850774,76.05638791346502,45.197763243490186,49.83054295844747,40
3870.0,82.9,81.27210547772614,71.43218474511949,76.04232712331941,45.22977835440673,49.83992073260666,40
4000.0,83.0,81.61827670869887,71.7690609448093,76.3578725915786,45.260404117120274,49.849215763889575,40
4120.0,83.1,82.03707577161322,72.24691772044814,76.823901527843,45.21317424377021,49.79015805116508,40
4250.0,83.0,81.90994553265134,71.92350492436799,76.64590133048917,45.26404420216217,49.986440608283345,40
4370.0,82.8,81.31498716217226,71.14218555451012,76.00730381500752,45.30768334716474,50.17280160766214,40
4500.0,82.8,81.13084949197476,70.82297200523783,75.79282507388098,45.33802441809378,50.30787748673693,40
4620.0,83.1,81.82199433944511,71.50975791051847,76.46324478823122,45.35874955121389,50.31223642892664,40
