Freq,On Axis,Listening Window,Sound Power,Early Reflections,Early Reflections DI,Sound Power DI,DI offset
22.4,32.61012658227848,32.44151649497165,28.699246903954432,30.70848389366894,41.73303260130271,43.74226959101722,40
23.0,34.61012658227848,34.35318578672492,30.642638126774543,32.64258295506649,41.710602831658434,43.71054765995038,40
23.6,36.61012658227848,36.41914080721254,32.699065702827895,34.69795786267004,41.721182944542505,43.72007510438465,40
24.0,39.410126582278465,39.15318578672493,35.45983843665094,37.45587309238935,41.69731269433558,43.69334735007399,40
25.0,40.8101265822785,40.55318578672494,36.829710803492546,38.83414407768127,41.719041709043665,43.72347498323239,40
25.8,41.910126582278465,41.66455924051375,37.99033094724355,39.96154090251504,41.703018337998714,43.674228293270204,40
26.5,43.01012658227849,42.80737955421937,39.131168165313326,41.11118496544778,41.69619458877159,43.67621138890604,40
27.2,44.3101265822785,44.05318578672494,40.38914267997758,42.36396638787831,41.68921939884663,43.66404310674736,40
28.0,45.71012658227848,45.453185786724944,41.7935104192281,43.76588607141879,41.68729971530615,43.659675367496845,40
29.0,46.21012658227848,46.007379554219355,42.367952881395226,44.331431793854065,41.67594776036529,43.63942667282413,40
30.0,47.11012658227848,46.90737955421936,43.256872878989,45.205953995091406,41.701425559127955,43.65050667523036,40
30.7,47.910126582278465,47.65318578672493,44.03397341876074,45.981543986205125,41.67164180051981,43.619212367964195,40
31.5,49.61012658227848,49.40737955421936,45.79136338235965,47.726253931487534,41.68112562273183,43.61601617185971,40
32.5,51.11012658227848,50.91914080721254,47.30708491689809,49.22886383152111,41.69027697569143,43.61205589031445,40
33.5,52.3101265822785,52.03087029522463,48.438443374754755,50.36603857856427,41.66483171666036,43.592426920469876,40
34.5,53.61012658227848,53.40737955421933,49.80602112640922,51.72865269466202,41.678726859557315,43.60135842781011,40
35.5,55.21012658227848,54.972978309705056,51.393531785712085,53.310353727243225,41.66262458246183,43.57944652399297,40
36.5,57.01012658227849,56.80737955421937,53.24050457450234,55.144049645153686,41.66332990906568,43.56687497971703,40
37.5,59.01012658227849,58.753185786724956,55.19963974923341,57.091724080752115,41.66146170597284,43.55354603749154,40
38.7,61.01012658227849,60.77297830970507,57.217416295642394,59.09906030246724,41.67391800723783,43.55556201406267,40
40.0,62.310126582278485,62.11914080721256,58.58435521838162,60.45902204226297,41.66011876494959,43.53478558883094,40
41.2,64.21012658227848,64.00737955421936,60.50075684194519,62.36749841187938,41.63988114233997,43.506622712274165,40
42.5,65.81012658227849,65.60737955421936,62.09014257440292,63.95957424579454,41.64780530842482,43.517236979816445,40
43.7,67.11012658227848,66.85076454730863,63.35742902887114,65.20442299728465,41.646341550023976,43.49333551843749,40
45.0,68.41012658227848,68.20737955421936,64.73725890176107,66.58594337818366,41.6214361760357,43.47012065245829,40
46.2,69.41012658227848,69.17297830970506,65.67648181790256,67.51888033589225,41.65409797381281,43.4964964918025,40
47.5,70.41012658227847,70.15076454730861,66.68352296820973,68.5128314769014,41.637933070407215,43.46724157909888,40
48.7,71.21012658227848,70.97297830970506,67.51410761643554,69.34184258505785,41.63113572464721,43.45887069326952,40
50.0,72.11012658227848,71.88430011543575,68.43600618242253,70.24842854510977,41.635871570325975,43.44829393301322,40
51.5,72.91012658227847,72.7273814566352,69.2897595796344,71.09581541042533,41.63156604620987,43.437621877000794,40
53.0,73.81012658227849,73.62738145663522,70.20938726040933,72.0064339740459,41.620947482589315,43.41799419622589,40
54.5,74.81012658227849,74.60737955421935,71.18043551002305,72.9755281578285,41.63185139639084,43.426944044196304,40
56.0,75.81012658227849,75.6273814566352,72.22312343442194,74.01724905495324,41.610132401681966,43.40425802221327,40
58.0,76.91012658227848,76.66214433538816,73.28329140813113,75.05900535513011,41.60313898025805,43.37885292725703,40
60.0,78.01012658227849,77.79313891130658,74.40541025599632,76.17983255003186,41.613306361274724,43.38772865531027,40
61.5,79.01012658227849,78.82738145663522,75.44673907276943,77.21599304719305,41.61138840944217,43.38064238386579,40
63.0,80.11012658227848,79.83908873922773,76.46697719472778,78.22961526143688,41.60947347779086,43.37211154449996,40
65.0,81.11012658227848,80.88235517571798,77.5201787742678,79.28054925804493,41.60180591767305,43.36217640145017,40
67.0,82.01012658227849,81.7931389113066,78.42102076921879,80.19203589265774,41.60110301864886,43.372118142087814,40
69.0,82.91012658227847,82.7273814566352,79.36775164858791,81.12026317486908,41.60711828176612,43.35962980804729,40
71.0,83.71012658227848,83.52738145663521,80.17321844846414,81.92168140951195,41.605700047123264,43.35416300817107,40
73.0,84.51012658227849,84.2507645473086,80.90227705822134,82.64510529270488,41.60565925460372,43.34848748908726,40
75.0,85.21012658227848,84.97102829188727,81.60285161262873,83.34621023748197,41.624818054405296,43.36817667925854,40
77.5,85.71012658227848,85.50440834929077,82.13657119799294,83.87926156852667,41.6251467807641,43.367837151297834,40
80.0,86.21012658227848,85.95940690784245,82.59872687125579,84.34045893549263,41.618947972349815,43.36068003658666,40
82.5,86.51012658227849,86.27102829188728,82.91163838997718,84.6564329145508,41.61459537733647,43.35938990191009,40
85.0,86.61012658227848,86.42738145663522,83.07545846351687,84.81840613872188,41.608975317913334,43.35192299311835,40
87.5,86.61012658227848,86.42738145663522,83.06957885617851,84.81956355326251,41.607817903372705,43.35780260045671,40
90.0,86.61012658227848,86.37102829188727,83.0096099627771,84.7568734287096,41.614154863177674,43.361418329110165,40
92.5,86.51012658227849,86.30544492525384,82.92156047989802,84.67162391185975,41.63382101339408,43.38388444535582,40
95.0,86.4101265822785,86.22738145663521,82.83782718350027,84.58739965459837,41.63998180203684,43.38955427313495,40
97.5,86.31012658227849,86.12738145663522,82.74188187694965,84.48722968712595,41.64015176950927,43.38549957968557,40
100.0,86.21012658227848,86.04775434241618,82.64798097109018,84.40132169363554,41.646432648780646,43.399773371326006,40
103.0,86.21012658227848,86.00544492525383,82.60016460374992,84.36309445314293,41.64235047211089,43.40528032150391,40
106.0,86.21012658227848,86.00544492525383,82.59103289885873,84.35138900758871,41.65405591766512,43.4144120263951,40
109.0,86.31012658227849,86.05940690784244,82.63277767213229,84.4110201282468,41.64838677959564,43.42662923571015,40
112.0,86.31012658227849,86.08235517571798,82.65687952230947,84.43184692559045,41.65050825012753,43.42547565340851,40
115.0,86.31012658227849,86.05940690784244,82.61562222098543,84.40022742633307,41.65917948150937,43.443784686857015,40
118.0,86.21012658227848,85.95940690784245,82.50361705427123,84.2977188817651,41.66168802607734,43.45578985357122,40
122.0,86.01012658227849,85.82738145663521,82.34489236916335,84.14209091517755,41.68529054145766,43.48248908747186,40
125.0,85.81012658227849,85.6273814566352,82.14652807451692,83.9544643038393,41.672917152795904,43.48085338211828,40
128.0,85.61012658227848,85.42738145663522,81.92451338044211,83.73999546255278,41.68738599408243,43.50286807619311,40
132.0,85.41012658227847,85.17076410247675,81.66697965159835,83.47991057902988,41.690853523446876,43.5037844508784,40
136.0,85.11012658227848,84.90544492525383,81.38025092894695,83.20832214323724,41.69712278201659,43.52519399630688,40
140.0,84.91012658227848,84.65940690784245,81.09771103753413,82.9391636969125,41.72024321092995,43.56169587030833,40
145.0,84.61012658227848,84.39391539537077,80.8226707308833,82.6692863434961,41.72462905187467,43.571244664487466,40
150.0,84.51012658227849,84.23908873922773,80.63377061669303,82.49312865049602,41.74596008873171,43.6053181225347,40
155.0,84.41012658227848,84.15940690784244,80.52823995852081,82.40167391436442,41.757732993478015,43.631166949321624,40
160.0,84.31012658227847,84.07076410247676,80.44361087390932,82.31210922617946,41.7586548762973,43.62715322856744,40
165.0,84.21012658227848,83.99391539537078,80.35051357187004,82.23274785168054,41.761167543690235,43.64340182350074,40
170.0,84.21012658227848,83.92764829823629,80.25254498468193,82.14956304640249,41.7780852518338,43.67510331355436,40
175.0,84.11012658227848,83.85940690784246,80.15915416285524,82.05685555793978,41.80255134990267,43.70025274498721,40
180.0,84.01012658227849,83.75940690784243,80.05865000011322,81.98518027971171,41.77422662813072,43.700756907729215,40
185.0,83.9101265822785,83.69391539537077,79.9577237947236,81.88499877365423,41.808916621716534,43.73619160064716,40
190.0,83.81012658227849,83.59391539537076,79.84294127652207,81.78229483542792,41.81162055994284,43.75097411884869,40
195.0,83.71012658227848,83.47076410247675,79.70853361051272,81.6429162136491,41.82784788882765,43.76223049196403,40
200.0,83.61012658227848,83.33908873922773,79.55540217224002,81.52000194380167,41.81908679542606,43.78368656698771,40
206.0,83.51012658227849,83.23908873922774,79.43412490718141,81.3926819527181,41.84640678650963,43.804963832046326,40
212.0,83.41012658227848,83.19417818023467,79.35970999095032,81.33262362317801,41.861554557056664,43.83446818928435,40
218.0,83.51012658227849,83.22790904994206,79.35486252548257,81.34784020834938,41.880068841592674,43.87304652445948,40
224.0,83.51012658227849,83.29417818023468,79.41101075888089,81.41925023343352,41.874927946801165,43.88316742135379,40
230.0,83.61012658227848,83.39417818023466,79.4842862745371,81.50465465318469,41.889523527049974,43.90989190569756,40
236.0,83.71012658227848,83.43961491230182,79.50159285037532,81.52933597992467,41.91027893237715,43.9380220619265,40
240.0,83.71012658227848,83.43961491230182,79.48558453513584,81.53397131706456,41.905643595237265,43.95403037716598,40
250.0,83.71012658227848,83.4629324050844,79.47404259414837,81.53815298025906,41.924779424825346,43.98888981093603,40
258.0,83.81012658227849,83.53961491230181,79.48448297171335,81.56200148878465,41.97761342351717,44.05513194058847,40
265.0,83.81012658227849,83.56293240508442,79.49080476114747,81.58404123337334,41.97889117171108,44.07212764393695,40
272.0,83.81012658227849,83.57481447936885,79.44810014575698,81.57064077797594,42.004173701392915,44.12671433361187,40
280.0,83.81012658227849,83.48666413358694,79.34612789612851,81.47622528506118,42.010438848525766,44.140536237458434,40
290.0,83.61012658227848,83.36397920417382,79.1942303268296,81.34582807816489,42.01815112600893,44.16974887734422,40
300.0,83.51012658227849,83.26397920417382,79.02105015562618,81.20638305539737,42.057596148776454,44.24292904854764,40
307.0,83.41012658227848,83.14414553228862,78.83699238743297,81.04186156812834,42.10228396416028,44.30715314485565,40
315.0,83.31012658227849,83.01000548952752,78.66956139805603,80.89254410983673,42.11746137969078,44.34044409147148,40
325.0,83.21012658227848,82.87742454892698,78.4687206659629,80.72241443163581,42.15501011729117,44.408703882964076,40
335.0,83.11012658227848,82.75765232502737,78.30585563087183,80.58292143095271,42.174730894074656,44.45179669415553,40
345.0,83.01012658227849,82.74572313839589,78.2182783494985,80.52682795631144,42.21889518208445,44.527444788897384,40
355.0,83.11012658227848,82.77010869626149,78.19878266290128,80.52846088281579,42.241647813445695,44.57132603336021,40
365.0,83.21012658227848,82.87010869626148,78.2052977642667,80.56021507045035,42.30989362581113,44.66481093199478,40
375.0,83.31012658227849,82.9184793652489,78.21496736209369,80.59934959875167,42.31912976649723,44.70351200315521,40
387.0,83.31012658227849,82.93134077507442,78.20255576622144,80.59608336440817,42.335257410666244,44.72878500885298,40
400.0,83.31012658227849,82.93134077507442,78.14864997726299,80.55566528212752,42.3756754929469,44.782690797811426,40
412.0,83.31012658227849,82.93134077507442,78.08340483018439,80.50561860901935,42.42572216605507,44.847935944890025,40
425.0,83.21012658227848,82.85816861624768,77.99171238073968,80.4275643373169,42.43060427893079,44.866456235508,40
437.0,83.11012658227848,82.70519342820252,77.7871320398026,80.22744611258095,42.47774731562157,44.91806138839992,40
450.0,82.8101265822785,82.41870123482464,77.49323517338333,79.91978552749458,42.498915707330056,44.92546606144131,40
462.0,82.61012658227848,82.13098397704984,77.21115965746039,79.63714917163176,42.493834805418075,44.91982431958945,40
475.0,82.41012658227848,82.00404596499895,77.08646273959914,79.4958781800964,42.508167784902554,44.91758322539981,40
487.0,82.51012658227849,82.05438650091716,77.11827276890737,79.54218360590751,42.51220289500965,44.93611373200979,40
500.0,82.61012658227848,82.14490635517838,77.18548503516429,79.61840082202308,42.5265055331553,44.95942132001409,40
515.0,82.51012658227849,82.0832902302807,77.14978812406865,79.59157866098042,42.49171156930028,44.933502106212046,40
530.0,82.41012658227848,81.934533728382,76.95066081097671,79.46724485558178,42.46728887280021,44.98387291740528,40
545.0,82.21012658227848,81.73602499270248,76.71685783202601,79.33231068431836,42.403714308384124,45.019167160676474,40
560.0,82.21012658227848,81.73882596307111,76.59954887087693,79.3499519786108,42.388873984460304,45.13927709219418,40
580.0,82.31012658227849,81.84518580709884,76.58368687245962,79.48662813245875,42.358557674640096,45.26149893463922,40
600.0,82.41012658227848,81.87960466756557,76.47415723029145,79.53473077874973,42.34487388881584,45.40544743727412,40
615.0,82.41012658227848,81.85749258477047,76.27711009311709,79.49642408940657,42.361068495363895,45.58038249165338,40
630.0,82.31012658227849,81.79216110419095,76.0827791033433,79.4331263058183,42.35903479837265,45.709382000847654,40
650.0,82.41012658227848,81.9039238593134,76.0399788826621,79.49156921755673,42.412354641756664,45.8639449766513,40
670.0,82.61012658227848,82.10392385931338,76.10720282234243,79.66029429845595,42.44362956085743,45.99672103697095,40
690.0,83.01012658227849,82.42576113994085,76.31240813057758,79.93895772855285,42.486803411387996,46.113353009363266,40
710.0,83.31012658227849,82.72722519005724,76.47203658265853,80.1680559532979,42.559169236759345,46.25518860739871,40
730.0,83.51012658227849,82.92147001251382,76.52158362427231,80.28584447280868,42.635625539705146,46.39988638824151,40
750.0,83.71012658227848,83.11024481786805,76.57604810814514,80.3715674282078,42.73867738966025,46.534196709722906,40
775.0,83.9101265822785,83.27207495550286,76.58046251925109,80.40755795322553,42.864517002277324,46.69161243625177,40
800.0,84.01012658227849,83.28875448685545,76.43509273327261,80.26325076425677,43.025503722598685,46.85366175358284,40
825.0,83.9101265822785,83.17844065888042,76.20727185104481,79.99764275656085,43.18079790231957,46.97116880783561,40
850.0,83.81012658227849,83.03787561399248,75.97463521554673,79.71876485631456,43.31911075767792,47.06324039844576,40
875.0,83.61012658227848,82.81379487876566,75.71755952139655,79.37022410664898,43.443570772116686,47.09623535736911,40
900.0,83.31012658227849,82.49995628371687,75.46308470408302,79.00604383734733,43.493912446369535,47.03687157963385,40
925.0,83.01012658227849,82.25070056679657,75.39719341286217,78.80876204522326,43.441938521573306,46.8535071539344,40
950.0,82.8101265822785,82.05451010461935,75.41303636190698,78.74490710664863,43.30960299797073,46.64147374271238,40
975.0,82.8101265822785,82.06824862327584,75.55647022834813,78.8657453725961,43.20250325067974,46.5117783949277,40
1000.0,82.91012658227847,82.19947495918422,75.55413269386382,78.96991467510473,43.22956028407948,46.645342265320394,40
1030.0,83.11012658227848,82.2509584031907,75.09437331969224,78.7339146381428,43.51704376504789,47.156585083498456,40
1060.0,83.21012658227848,82.17020849259407,74.30301007954444,78.2422478978485,43.92796059474557,47.867198413049636,40
1090.0,83.51012658227849,82.20391141442286,73.5873244452627,77.80555194118523,44.39835947323763,48.61658696916017,40
1120.0,83.81012658227849,82.3462651730062,73.20296395001343,77.57200666049948,44.77425851250672,49.143301222992775,40
1150.0,83.9101265822785,82.44194231714833,73.06214553879461,77.44737446997298,44.99456784717535,49.37979677835372,40
1180.0,84.01012658227849,82.46141718516434,73.10211399184381,77.38651542898504,45.0749017561793,49.35930319332053,40
1220.0,83.9101265822785,82.3643868109758,73.14629182494286,77.31598888677176,45.04839792420404,49.21809498603294,40
1250.0,83.71012658227848,82.22664866214352,73.22674356927784,77.30206153812532,44.9245871240182,48.999905092865674,40
1280.0,83.51012658227849,82.09095186809854,73.36266590068568,77.37852344826187,44.71242841983667,48.72828596741286,40
1320.0,83.41012658227848,82.03590476822787,73.53961996393863,77.57825552716544,44.45764924106243,48.49628480428923,40
1360.0,83.21012658227848,81.96735375371112,73.69545392458195,77.76587736093418,44.20147639277694,48.27189982912917,40
1400.0,83.11012658227848,81.97560534561528,73.8737573253137,77.99138542401366,43.98421992160162,48.101848020301574,40
1450.0,83.01012658227849,81.98656088818333,74.00210802223195,78.16003186051634,43.82652902766699,47.98445286595138,40
1500.0,82.8101265822785,81.96550236128509,74.00279752724262,78.2078015122207,43.75770084906439,47.96270483404247,40
1550.0,82.71012658227848,81.81845050487412,73.79326242274117,78.08639979131438,43.732050713559744,48.025188082132956,40
1600.0,82.71012658227848,81.70805052877357,73.58133881225656,77.97467878751671,43.73337174125686,48.12671171651701,40
1650.0,82.8101265822785,81.68838861778646,73.4610697118175,77.93503923091869,43.75334938686777,48.22731890596896,40
1700.0,82.8101265822785,81.66110360801126,73.28645087647553,77.83520021385853,43.82590339415273,48.37465273153573,40
1750.0,82.8101265822785,81.65002761578923,73.08394278813851,77.68597702329339,43.96405059249584,48.56608482765071,40
1800.0,82.91012658227847,81.57219592389211,72.71869519577928,77.39660827231327,44.17558765157884,48.853500728112834,40
1850.0,82.91012658227847,81.4108535987348,72.23841424878317,76.97848586257003,44.43236773616478,49.17243934995163,40
1900.0,82.91012658227847,81.23293413964414,71.77970420129842,76.54294671483588,44.689987424808265,49.45322993834573,40
1950.0,83.01012658227849,81.25360724213047,71.655518954155,76.40610542465129,44.847501817479184,49.59808828797547,40
2000.0,83.11012658227848,81.36750874908297,71.73658957570133,76.3918276714415,44.97568107764147,49.63091917338164,40
2060.0,83.21012658227848,81.51398628127394,71.91904445730879,76.46655557986836,45.04743070140559,49.59494182396516,40
2120.0,83.31012658227849,81.76659747901088,72.26209993264742,76.62806700292197,45.13853047608892,49.50449754636347,40
2180.0,83.51012658227849,81.94185862245315,72.47125912029266,76.71372453083558,45.22813409161758,49.470599502160496,40
2240.0,83.51012658227849,81.89611425527444,72.4110972310134,76.58262451324653,45.31348974202791,49.48501702426104,40
2300.0,83.61012658227848,81.97097360850476,72.38728591046184,76.55822666384152,45.41274694466324,49.58368769804292,40
2360.0,83.61012658227848,81.99404171064103,72.29991470880786,76.52365657436734,45.47038513627369,49.694127001833166,40
2400.0,83.51012658227849,81.9917666358936,72.21825615604239,76.51740329815165,45.47436333774195,49.77351047985121,40
2500.0,83.31012658227849,81.76006972119593,72.00329397460735,76.2931010068635,45.46696871433244,49.75677574658859,40
2580.0,83.11012658227848,81.57895437090293,71.85639723008545,76.10552463311951,45.47342973778342,49.722557140817486,40
2650.0,83.01012658227849,81.3297694259479,71.61820579358574,75.90895866209297,45.42081076385493,49.71156363236216,40
2720.0,82.91012658227847,81.02646478032456,71.24309665612766,75.65529245275506,45.3711723275695,49.7833681241969,40
2800.0,83.11012658227848,80.83284793224949,70.85027871263962,75.4409620216056,45.39188591064389,49.98256921960987,40
2900.0,83.11012658227848,80.77215281770269,70.6580048158401,75.3295697302675,45.442583087435196,50.11414800186259,40
