Freq "Early Reflections"
22.4 43.52769343037336
23.0 44.96595228966804
23.6 46.38024930942696
24.0 47.74886495048243
25.0 49.07634100603714
25.8 50.36123426380625
26.5 51.60555916511289
27.2 52.859108416905215
28.0 54.053076778686275
29.0 55.253076778686264
30.0 56.39107235527099
30.7 57.51394749247105
31.5 58.615862932229064
32.5 59.731423953255074
33.5 60.82544389377482
34.5 61.89700351651909
35.5 62.95410564781987
36.5 64.01249301905436
37.5 65.01521594549409
38.7 66.0252563219175
40.0 67.02525632191751
41.2 68.02525632191751
42.5 68.99255500677452
43.7 69.98674989300537
45.0 70.9788505659916
46.2 71.95802314319242
47.5 72.93714938933452
48.7 73.8500270875107
50.0 74.76317957188087
51.5 75.62882296828094
53.0 76.45719880245187
54.5 77.19147456556456
56.0 77.88938888114963
58.0 78.51838236686886
60.0 79.11459646943372
61.5 79.71459646943372
63.0 80.23059480996358
65.0 80.65968250815486
67.0 81.0328925610721
69.0 81.34923619815176
71.0 81.68318574454874
73.0 81.94976641007307
75.0 82.17848404804347
77.5 82.35456461509355
80.0 82.51739869680674
82.5 82.60826581808337
85.0 82.7002616790986
87.5 82.72007588343267
90.0 82.71207243525164
92.5 82.70156964209438
95.0 82.68184316925634
97.5 82.61475249852762
100.0 82.46819241746213
103.0 82.33984125071846
106.0 82.17641913407445
109.0 81.98132248021182
112.0 81.79359875119427
115.0 81.57227750712015
118.0 81.29926820678085
122.0 81.04767362852527
125.0 80.75298212251346
128.0 80.4684683829514
132.0 80.23382361345774
136.0 79.9846242035874
140.0 79.78090510914666
145.0 79.58092698505699
150.0 79.33960473835968
155.0 79.10590504680098
160.0 78.82756096090851
165.0 78.59188795712002
170.0 78.39962844320955
175.0 78.24110914355164
180.0 78.09877698940296
185.0 78.00526075215909
190.0 77.99790783044152
195.0 78.02706929065945
200.0 78.0312298859207
206.0 78.00843125167013
212.0 77.95564798982777
218.0 77.84827524466763
224.0 77.73232845927608
230.0 77.66283107445119
236.0 77.69887039192716
240.0 77.87840744319617
250.0 78.09760452051617
258.0 78.30805186797957
265.0 78.38545166056925
272.0 78.31050136177407
280.0 78.1800059220925
290.0 77.98407691031586
300.0 77.86888665535739
307.0 77.84426768734595
315.0 77.85978506659323
325.0 77.86009404639505
335.0 77.81838462352813
345.0 77.80030950636093
355.0 77.79340092755326
365.0 77.80436277170689
375.0 77.73788887141176
387.0 77.65677358998737
400.0 77.73465734579183
412.0 78.01024587101435
425.0 78.33380666778325
437.0 78.36577503458862
450.0 77.58334396075034
462.0 75.04737035561412
475.0 72.72498322086084
487.0 72.88589809353843
500.0 73.1754124599516
515.0 73.49504219732628
530.0 74.78434313927514
545.0 76.83372584765071
560.0 78.24878215377137
580.0 78.5612990812825
600.0 78.42287431709079
615.0 78.10029487859309
630.0 77.21626134507709
650.0 76.21833747441966
670.0 77.05191427327235
690.0 78.55486008457495
710.0 79.3394256586628
730.0 79.20669874478938
750.0 78.28271514975069
775.0 77.94904725366291
800.0 76.25076880291053
825.0 72.26596087697335
850.0 72.42398792700904
875.0 72.50560211778333
900.0 72.462988244297
925.0 72.90824605939729
950.0 72.88688145833488
975.0 75.90146924298396
1000.0 77.89069985788491
1030.0 78.18591992191732
1060.0 75.16653474294884
1090.0 72.10718816677557
1120.0 72.69932016853339
1150.0 72.93131843464295
1180.0 74.1313184729195
1220.0 74.0214302527249
1250.0 74.48834103847656
1280.0 74.84822905351045
1320.0 75.1550762228125
1360.0 75.4539304512673
1400.0 75.31691614768407
1450.0 75.12715440578735
1500.0 75.22597993548408
1550.0 75.17129766006089
1600.0 75.32688135309945
1650.0 75.43558457859581
1700.0 74.50766106230395
1750.0 73.77703493418436
1800.0 74.31192265542134
1850.0 74.92435525319678
1900.0 75.36923176538865
1950.0 74.98747460326335
2000.0 74.54421749887437
2060.0 73.99622148393372
2120.0 73.95450308679995
2180.0 73.55250173651002
2240.0 72.57081355317946
2300.0 72.56557617901285
2360.0 73.27135141537984
2400.0 73.35584810165214
2500.0 73.30920467526214
2580.0 73.52549048709663
2650.0 73.16644662885092
2720.0 71.8710767109379
2800.0 72.0189431664906
2900.0 72.82086063883082
3000.0 72.64926844676421
3070.0 72.15105981274198
3150.0 72.27793842663603
3250.0 72.12961889473111
3350.0 72.74497246222643
3450.0 73.02111751547406
3550.0 72.6951461937184
3650.0 72.29667456810587
3750.0 72.31583299605036
3870.0 70.97316536551354
4000.0 70.44013304614471
4120.0 70.79786467711443
4250.0 71.3334529704846
4370.0 72.48869297293867
4500.0 73.39539358432287
4620.0 73.42190997774662
4750.0 71.98713003200338
4870.0 70.48343430906542
5000.0 69.52648479526401
5150.0 69.63137098217697
5300.0 70.23620525902857
5450.0 72.37432031464884
5600.0 72.28169176936568
5800.0 72.31103624415482
6000.0 71.00409735707132
6150.0 71.57326885933627
6300.0 71.2247340619722
6500.0 70.70841514366883
6700.0 70.96196116057864
6900.0 70.28050254903638
7100.0 71.80502666873734
7300.0 71.82367648825691
7500.0 71.63636489528001
7750.0 72.93362080618881
8000.0 75.21343154310256
8250.0 74.62423806753826
8500.0 70.7487880963081
8750.0 68.5174781414649
9000.0 67.9185525163978
9250.0 72.25824116810918
9500.0 74.99675061591716
9750.0 77.3321486240868
10000.0 77.96844048066502
10300.0 76.0358892379642
10600.0 73.86004043326145
10900.0 74.06019836593515
11200.0 69.9007466177347
11500.0 67.7704307482838
11800.0 74.01464923258109
12200.0 75.42259812637118
12500.0 79.69181793713012
12800.0 79.27624269680744
13200.0 73.44100834015349
13600.0 72.61325299041401
14000.0 70.30993583723419
14500.0 75.81883264441389
15000.0 75.3432103495003
15500.0 72.36810878078607
16000.0 75.59373766705274
16500.0 74.15915865397112
17000.0 65.27301841480669
17500.0 63.42772156063174
18000.0 64.08134158785421
18500.0 59.34902099597407
19000.0 69.71742603301371
19500.0 66.63857825396634
