Freq,On Axis,Listening Window,Sound Power,Early Reflections,Early Reflections DI,Sound Power DI,DI offset
22.4,29.18227848101266,31.03853755061708,30.85422805888753,31.133975384606387,39.90456216601069,40.18430949172955,40
23.0,30.982278481012642,32.66017899606199,32.53649608422889,32.75855155296192,39.90162744310007,40.1236829118331,40
23.6,32.582278481012665,34.11080213036614,34.04790924817563,34.24835574548324,39.8624463848829,40.06289288219051,40
24.0,33.98227848101264,35.36775744148518,35.36456088280032,35.55893157982196,39.80882586166322,40.00319655868486,40
25.0,35.38227848101265,36.620106837213584,36.632947119581374,36.79450618841592,39.82560064879766,39.98715971763221,40
25.8,38.48227848101264,39.261449807475586,39.17328503831679,39.338934691851975,39.92251511562361,40.088164769158794,40
26.5,41.38227848101265,41.98167569473951,41.830256041205345,41.99811831305219,39.98355738168732,40.15141965353416,40
27.2,43.68227848101266,44.17639507338099,43.97800558200724,44.143472443838576,40.03292262954241,40.198389491373746,40
28.0,45.582278481012665,46.00348452666741,45.78195507149074,45.940763185335996,40.06272134133141,40.221529455176665,40
29.0,47.18227848101266,47.560074484525686,47.35116841335268,47.51442824765111,40.045646236874575,40.208906071173004,40
30.0,48.582278481012665,48.96047483923921,48.73444371541238,48.89561877951472,40.06485605972449,40.22603112382683,40
30.7,50.78227848101265,51.1656437403053,50.89481782262045,51.065720844368215,40.099922895937084,40.270825917684846,40
31.5,53.68227848101266,53.98734364291083,53.618235357602074,53.81742510917077,40.16991853374006,40.369108285308755,40
32.5,55.88227848101265,56.16142446523766,55.7539337172003,55.95902687357854,40.20239759165912,40.40749074803736,40
33.5,57.68227848101266,57.95838516864852,57.5025334647227,57.725000203122065,40.233384965526454,40.455851703925816,40
34.5,59.28227848101265,59.4906507979381,59.00244943605337,59.24819345400469,40.24245734393341,40.488201361884734,40
35.5,60.78227848101265,61.03548308132602,60.513243544137495,60.755780790429085,40.279702290896935,40.522239537188526,40
36.5,62.98227848101264,63.10858373757638,62.470905296199675,62.74626725912714,40.362316478449245,40.63767844137671,40
37.5,64.78227848101265,64.85833163833469,64.16087325160593,64.45859393105255,40.39973770728214,40.697458386728755,40
38.7,66.28227848101265,66.40358768493029,65.64917705331438,65.9585561406446,40.44503154428568,40.75441063161591,40
40.0,67.58227848101265,67.71309724879163,66.92777530718296,67.25681922197343,40.4562780268182,40.78532194160867,40
41.2,69.28227848101265,69.30942856815267,68.43225768974575,68.77838916777293,40.53103940037974,40.877170878406915,40
42.5,70.98227848101264,71.01675738402903,70.0632110408234,70.42695857601053,40.5897988080185,40.95354634320563,40
43.7,72.48227848101266,72.49584373607888,71.46045046265151,71.84793612972054,40.647907606358345,41.035393273427374,40
45.0,73.78227848101265,73.76984021982858,72.7045451769587,73.1161856015733,40.653654618255274,41.06529504286988,40
46.2,74.98227848101266,74.91610690069727,73.7908787986734,74.21093195394154,40.70517494675573,41.12522810202387,40
47.5,75.98227848101264,75.91162887552784,74.72287072503883,75.18353208501836,40.72809679050948,41.18875815048901,40
48.7,76.98227848101267,76.82280707182723,75.57643646587373,76.05530110962002,40.76750596220721,41.2463706059535,40
50.0,77.78227848101265,77.64659739385435,76.37856169820574,76.87299894988445,40.7735984439699,41.26803569564861,40
51.5,78.48227848101264,78.3225596108514,76.99316312079678,77.52564237363543,40.796917237215965,41.32939649005462,40
53.0,79.08227848101265,78.87696057587847,77.5155346117971,78.08955117461853,40.787409401259936,41.36142596408138,40
54.5,79.68227848101264,79.4207820032257,78.01822259409961,78.61980692079861,40.80097508242709,41.402559409126084,40
56.0,80.18227848101264,79.95308118706207,78.51597157210564,79.15480453892776,40.798276648134305,41.43710961495643,40
58.0,80.68227848101263,80.43090815988253,78.97512803080171,79.65363061005489,40.777277549827645,41.45578012908082,40
60.0,81.08227848101265,80.84057802761352,79.32910615771864,80.04465381953985,40.79592420807367,41.511471869894876,40
61.5,81.38227848101265,81.16195403881414,79.65045992454516,80.37795214759635,40.7840018912178,41.511494114268984,40
63.0,81.68227848101266,81.41613110269193,79.89702459915834,80.64834794889619,40.76778315379575,41.51910650353359,40
65.0,81.88227848101265,81.63762748302625,80.11440179439904,80.87574937773918,40.76187810528707,41.52322568862721,40
67.0,82.08227848101264,81.89132890182549,80.36560317982502,81.14122489551755,40.750104006307936,41.52572572200047,40
69.0,82.38227848101265,82.14561417668507,80.6312244938362,81.42834829108357,40.717265885601506,41.51438968284887,40
71.0,82.58227848101265,82.36649166299443,80.85616075448554,81.67529386389991,40.691197799094525,41.51033090850889,40
73.0,82.78227848101265,82.61946393687295,81.11590452979824,81.94706423335035,40.6723997035226,41.503559407074704,40
75.0,82.98227848101266,82.84169532041712,81.35462609777652,82.19548437294083,40.64621094747629,41.4870692226406,40
77.5,83.18227848101263,83.01866683894488,81.52112774182636,82.36311070800127,40.65555613094361,41.49753909711852,40
80.0,83.28227848101265,83.1527684816855,81.66639860319712,82.52200734848272,40.63076113320278,41.486369878488375,40
82.5,83.38227848101265,83.26254504393005,81.77202423919391,82.6336681945194,40.628876849410645,41.490520804736136,40
85.0,83.48227848101264,83.37382159986659,81.86071596924239,82.72704129801774,40.64678030184885,41.513105630624196,40
87.5,83.58227848101265,83.42927480346036,81.89905963324364,82.773623001714,40.65565180174636,41.53021517021672,40
90.0,83.58227848101265,83.48506895177927,81.9197183729254,82.81232525165933,40.67274370011994,41.56535057885387,40
92.5,83.58227848101265,83.49628725054261,81.90152814582076,82.79599814849612,40.70028910204648,41.594759104721845,40
95.0,83.68227848101264,83.53003417229688,81.86616701784011,82.79224621094845,40.73778796134843,41.66386715445677,40
97.5,83.68227848101264,83.53003417229688,81.81921254003896,82.74896005862546,40.78107411367142,41.71082163225792,40
100.0,83.68227848101264,83.56327548042916,81.81031046031602,82.7645297698247,40.79874571060445,41.75296502011314,40
103.0,83.78227848101265,83.6189028190697,81.78764768169056,82.76822875632712,40.850674062742584,41.831255137379145,40
106.0,83.78227848101265,83.65272688325959,81.7691855590573,82.77692424879451,40.875802634465074,41.883541324202284,40
109.0,83.88227848101265,83.73153000002355,81.7390500513577,82.78038769956596,40.95114230045759,41.99247994866586,40
112.0,83.98227848101266,83.80924046300886,81.70175211442927,82.78572802900194,41.02351243400692,42.107488348579594,40
115.0,83.98227848101266,83.83153000002356,81.64553803804787,82.76928329880349,41.062246701220076,42.18599196197569,40
118.0,84.08227848101265,83.8431514610497,81.5703824059894,82.747606274393,41.09554518665671,42.272769055060294,40
122.0,84.08227848101265,83.85422091496052,81.48169792417757,82.69825638505128,41.15596452990924,42.372522990782954,40
125.0,84.08227848101265,83.86553661976814,81.41679393128777,82.68113729647588,41.184399323292254,42.448742688480365,40
128.0,84.08227848101265,83.84340374664536,81.32382272214845,82.61073966628439,41.232664080360976,42.519581024496915,40
132.0,83.98227848101266,83.83178296160482,81.23064206400636,82.5781588227271,41.25362413887771,42.601140897598455,40
136.0,83.98227848101266,83.81000334265653,81.1086133653697,82.49961826822678,41.310385074429746,42.70138997728682,40
140.0,83.98227848101266,83.76553661976814,80.9834636351353,82.41728580585227,41.34825081391587,42.78207298463285,40
145.0,83.88227848101265,83.72039657746583,80.83734648699479,82.31934624866899,41.40105032879684,42.883050090471045,40
150.0,83.78227848101265,83.63178296160483,80.71281396071483,82.23000344902574,41.40177951257908,42.91896900089,40
155.0,83.78227848101265,83.60998597888606,80.58570777403482,82.14435236844254,41.46563361044352,43.02427820485124,40
160.0,83.68227848101264,83.53304821902029,80.4347369547347,82.04302994313844,41.49001827588185,43.098311264285584,40
165.0,83.58227848101265,83.48706824282702,80.30297700935529,81.95108017947918,41.535988063347844,43.18409123347173,40
170.0,83.58227848101265,83.4325365374737,80.1777315244015,81.87442929527472,41.55810724219897,43.2548050130722,40
175.0,83.58227848101265,83.42239162216096,80.05660813123099,81.79319072919468,41.62920089296628,43.36578349092997,40
180.0,83.48227848101264,83.36607939721384,79.95351416052473,81.72551989910504,41.6405594981088,43.412565236689105,40
185.0,83.48227848101264,83.37709063939388,79.87020900560513,81.6864167951032,41.690673844290686,43.50688163378875,40
190.0,83.48227848101264,83.36704938813051,79.7883289940544,81.64395365507731,41.7230957330532,43.578720394076115,40
195.0,83.48227848101264,83.35707865545416,79.72133034055001,81.62631356121376,41.7307650942404,43.63574831490415,40
200.0,83.48227848101264,83.3799048881713,79.69044780860908,81.61542556450019,41.76447932367111,43.68945707956222,40
206.0,83.48227848101264,83.4020844912135,79.66555177973835,81.63652602965607,41.76555846155743,43.73653271147515,40
212.0,83.58227848101265,83.45707865545415,79.6485394939799,81.63869431609545,41.8183843393587,43.80853916147426,40
218.0,83.58227848101265,83.46890078806129,79.61657806361232,81.65320776280413,41.81569302525716,43.85232272444897,40
224.0,83.58227848101265,83.50268881178748,79.60246961113415,81.65454018864324,41.84814862314424,43.900219200653325,40
230.0,83.68227848101264,83.5240547835917,79.56671045260963,81.65291379950808,41.87114098408361,43.95734433098207,40
236.0,83.68227848101264,83.5462686115637,79.53434856367801,81.64352378418126,41.90274482738245,44.011920047885695,40
240.0,83.78227848101265,83.55785075224739,79.4890834402806,81.62448460502289,41.933366147224504,44.068767311966795,40
250.0,83.78227848101265,83.52581791958077,79.41398783163416,81.56899229442003,41.95682562516075,44.111830087946615,40
258.0,83.78227848101265,83.52581791958077,79.31602406017483,81.5059573418717,42.01986057770907,44.20979385940595,40
265.0,83.78227848101265,83.4278234644583,79.12588948783561,81.36045605031742,42.067367414140875,44.30193397662269,40
272.0,83.68227848101264,83.32860077938388,78.91629086644699,81.19015461341867,42.138446165965206,44.41230991293689,40
280.0,83.58227848101265,83.17420555562428,78.6736076351129,80.99189890071082,42.18230665491346,44.50059792051138,40
290.0,83.58227848101265,83.0769674363314,78.44402603310702,80.82323670789533,42.25373072843607,44.63294140322438,40
300.0,83.48227848101264,82.98958382522285,78.20006075107354,80.6351376962588,42.35444612896406,44.789523074149315,40
307.0,83.48227848101264,82.89460185221608,77.97963392322703,80.48376282691201,42.41083902530407,44.91496792898906,40
315.0,83.38227848101265,82.8494097787436,77.7913071854191,80.35962870791444,42.48978107082917,45.058102593324506,40
325.0,83.38227848101265,82.80809424711401,77.62450687804218,80.26975864284084,42.53833560427317,45.18358736907183,40
335.0,83.38227848101265,82.82032839306149,77.49799712704906,80.23194740226448,42.588380990797006,45.32233126601243,40
345.0,83.38227848101265,82.82477594342525,77.37326057341281,80.18817779136384,42.63659815206141,45.451515370012444,40
355.0,83.48227848101264,82.84968838170644,77.29803904418831,80.1859463119208,42.66374206978564,45.55164933751813,40
365.0,83.48227848101264,82.89171959372759,77.25103242857983,80.20661420492453,42.68510538880305,45.64068716514775,40
375.0,83.48227848101264,82.94857020310445,77.1931443209693,80.22419678733252,42.724373415771936,45.75542588213516,40
387.0,83.48227848101264,82.96313578347353,77.11979302283585,80.2278180782932,42.735317705180336,45.84334276063768,40
400.0,83.48227848101264,82.96313578347353,77.03950926584308,80.22362907665357,42.73950670681997,45.92362651763045,40
412.0,83.38227848101265,82.93016580848064,76.90521159462907,80.14862202731031,42.78154378117033,46.02495421385157,40
425.0,83.38227848101265,82.87743123032456,76.7854411478154,80.10464281758722,42.77278841273734,46.091990082509156,40
437.0,83.28227848101265,82.84189425108924,76.6862024789949,80.05168991583112,42.790204335258125,46.15569177209434,40
450.0,83.28227848101265,82.76642085275141,76.54595996843528,79.96360910778805,42.802811744963364,46.220460884316125,40
462.0,83.28227848101265,82.76939564736408,76.48849309882472,79.95414439045835,42.815251256905725,46.28090254853936,40
475.0,83.28227848101265,82.7586162563462,76.41359462598028,79.92517897749521,42.833437278850994,46.34502163036592,40
487.0,83.28227848101265,82.74730009861914,76.35880058655823,79.9118134248573,42.835486673761835,46.3884995120609,40
500.0,83.38227848101265,82.75999502019042,76.34250078029683,79.91751015506537,42.842484865125044,46.417494239893585,40
515.0,83.38227848101265,82.72159310084056,76.28898721691215,79.87025994782897,42.851333153011595,46.43260588392842,40
530.0,83.38227848101265,82.68790528978657,76.23048588699267,79.81981005767446,42.86809523211211,46.4574194027939,40
545.0,83.38227848101265,82.61332798751367,76.16254067209424,79.75642248047089,42.85690550704278,46.45078731541943,40
560.0,83.28227848101265,82.51375609843082,76.08301773100551,79.6687345773043,42.84502152112651,46.430738367425306,40
580.0,83.18227848101263,82.38383626109916,75.98181928083159,79.5470526163697,42.836783644729465,46.402016980267575,40
600.0,83.08227848101266,82.2367634650055,75.88786367501483,79.43091503504316,42.80584842996234,46.34889978999067,40
615.0,82.88227848101265,82.11014232114317,75.7965769506611,79.2943690723186,42.81577324882457,46.31356537048207,40
630.0,82.68227848101264,81.96850542016168,75.71154365001152,79.16544958414536,42.80305583601631,46.256961770150156,40
650.0,82.48227848101266,81.78674873540616,75.53396625193575,78.95548649564053,42.831262239765636,46.25278248347041,40
670.0,82.18227848101264,81.60572804155471,75.37422769232914,78.7636175565304,42.84211048502431,46.23150034922557,40
690.0,81.88227848101265,81.4319055826542,75.20878281942424,78.56332567951796,42.86857990313624,46.22312276322995,40
710.0,81.68227848101266,81.26489324024764,75.02095451509466,78.3623226043929,42.902570635854744,46.24393872515299,40
730.0,81.58227848101265,81.19127965994446,74.88499733663193,78.24914133114363,42.94213832880082,46.30628232331253,40
750.0,81.68227848101266,81.21429984340158,74.80627532781342,78.22479447804018,42.989505365361396,46.40802451558815,40
775.0,81.88227848101265,81.39289711560446,74.85956487625467,78.32242583886705,43.07047127673741,46.53333223934979,40
800.0,82.08227848101264,81.54091266592364,74.85765932158068,78.3930092318431,43.14790343408055,46.68325334434296,40
825.0,82.38227848101265,81.83589338664731,74.96258530846323,78.56555086725292,43.27034251939439,46.87330807818408,40
850.0,82.78227848101265,82.12520348466677,75.02546463724313,78.6967275883705,43.42847589629626,47.09973884742364,40
875.0,82.98227848101266,82.27215677982689,74.91550252727777,78.6610179660807,43.61113881374618,47.35665425254912,40
900.0,83.28227848101265,82.41506888190365,74.84767082187156,78.66103918171432,43.754029700189335,47.56739806003209,40
925.0,83.28227848101265,82.4471997874762,74.70714538814046,78.50856176226726,43.93863802520893,47.74005439933573,40
950.0,83.28227848101265,82.42078281610347,74.55785571782816,78.32732498103233,44.093457835071135,47.86292709827531,40
975.0,83.18227848101263,82.30768672758445,74.34884355391749,78.04860947889533,44.259077248689124,47.95884317366696,40
1000.0,83.08227848101266,82.17229924789517,74.224505814301,77.81519656728238,44.35710268061278,47.94779343359417,40
1030.0,82.98227848101266,82.00543863523531,74.14040769780452,77.6170386887729,44.388399946462414,47.86503093743079,40
1060.0,82.78227848101265,81.75394923887428,74.08255279844042,77.36181094366097,44.392138295213314,47.67139644043387,40
1090.0,82.58227848101265,81.45001264644652,73.99688132164195,77.07611274181703,44.373899904629496,47.45313132480457,40
1120.0,82.38227848101265,81.24106301651801,73.99488589185894,76.91739128766925,44.323671728848765,47.24617712465907,40
1150.0,82.48227848101266,81.20959520404244,74.1465370986052,76.98449928983568,44.22509591420676,47.06305810543725,40
1180.0,82.78227848101265,81.38888545410177,74.5219979945975,77.32304031476534,44.06584513933643,46.86688745950427,40
1220.0,83.08227848101266,81.57841867401156,74.90561749514431,77.71687730119865,43.86154137281291,46.672801178867246,40
1250.0,83.18227848101263,81.66650408211271,75.16028375648392,78.03481841014354,43.631685671969166,46.50622032562879,40
1280.0,83.28227848101265,81.66862326196171,75.27283757447556,78.22249158585389,43.446131676107825,46.39578568748615,40
1320.0,83.48227848101264,81.92196728436693,75.57687146581024,78.64267621835954,43.27929106600739,46.345095818556686,40
1360.0,83.48227848101264,81.96658357766101,75.67974896255414,78.8455637083194,43.12101986934161,46.28683461510687,40
1400.0,82.78227848101265,81.3564186731351,75.05789306459322,78.33956536137724,43.016853311757856,46.29852560854188,40
1450.0,81.78227848101265,80.49698404341719,74.17529665575113,77.56563091415799,42.93135312925919,46.32168738766606,40
1500.0,81.28227848101265,80.22782991959335,73.86223963265536,77.35987952798179,42.86795039161156,46.36559028693799,40
1550.0,81.18227848101264,80.26789691909129,73.84427566527303,77.43402689228547,42.83387002680581,46.423621253818254,40
1600.0,81.28227848101265,80.55808775732491,74.00715489436794,77.69116935708733,42.86691840023758,46.55093286295697,40
1650.0,81.58227848101265,80.95978543771427,74.20307898718217,77.99136161974333,42.968423817970944,46.75670645053211,40
1700.0,81.48227848101266,80.94274618642346,73.88087050108936,77.78448296794282,43.15826321848064,47.0618756853341,40
1750.0,81.48227848101266,80.91682272602309,73.53359855399596,77.56883734248277,43.34798538354032,47.38322417202713,40
1800.0,81.48227848101266,80.94878620641707,73.27210280525783,77.39880523551619,43.549980970900876,47.67668340115924,40
1850.0,81.38227848101265,80.80273473738602,72.84665755407467,77.06877088982965,43.73396384755637,47.95607718331135,40
1900.0,81.08227848101265,80.50575321748158,72.23426871857224,76.55663726086847,43.94911595661311,48.271484498909345,40
1950.0,80.68227848101263,80.0481127870191,71.51182936809548,75.90939573378277,44.13871705323632,48.53628341892362,40
2000.0,80.38227848101265,79.66424448376772,70.90492167573063,75.38272819080389,44.28151629296383,48.75932280803708,40
2060.0,80.78227848101265,79.86196036339099,70.89628398575508,75.4339889657335,44.42797139765749,48.965676377635916,40
2120.0,81.58227848101265,80.49565551428012,71.34899910196502,75.92264297518894,44.57301253909118,49.146656412315096,40
2180.0,82.48227848101266,81.12572944604133,71.80086327934546,76.42834721050353,44.6973822355378,49.32486616669587,40
2240.0,83.18227848101263,81.59896392445965,72.13006917826479,76.78816138839183,44.810802536067825,49.46889474619486,40
2300.0,83.68227848101264,81.89271547086868,72.28327535819231,76.9692741600501,44.923441310818575,49.60944011267637,40
2360.0,84.08227848101265,82.07274250634825,72.32451628769525,77.05478308676564,45.01795941958261,49.748226218653,40
2400.0,84.38227848101265,82.12164929562447,72.28822651075455,77.02019605091914,45.101453244705326,49.83342278486991,40
2500.0,84.48227848101267,82.12502522251654,72.27711116725335,77.00022749097259,45.12479773154395,49.84791405526319,40
2580.0,84.28227848101265,81.93033902756376,72.1504516292678,76.83105695804217,45.09928206952159,49.779887398295955,40
2650.0,83.88227848101265,81.5832416529692,71.9653061398905,76.56411290249063,45.01912875047857,49.617935513078706,40
2720.0,83.48227848101264,81.40760555478082,71.99308104631726,76.48151732981717,44.92608822496365,49.41452450846356,40
2800.0,83.28227848101265,81.45920291151215,72.26910083588369,76.65608061912302,44.80312229238913,49.19010207562846,40
