Freq "On Axis"
22.4 28.60000000000001
23.0 30.39999999999999
23.6 31.999999999999986
24.0 33.39999999999999
25.0 34.8
25.8 37.89999999999999
26.5 40.8
27.2 43.10000000000001
28.0 44.999999999999986
29.0 46.60000000000001
30.0 47.999999999999986
30.7 50.2
31.5 53.10000000000001
32.5 55.3
33.5 57.10000000000001
34.5 58.7
35.5 60.2
36.5 62.39999999999999
37.5 64.2
38.7 65.7
40.0 67.00000000000001
41.2 68.7
42.5 70.4
43.7 71.9
45.0 73.2
46.2 74.4
47.5 75.4
48.7 76.4
50.0 77.2
51.5 77.9
53.0 78.49999999999999
54.5 79.1
56.0 79.59999999999998
58.0 80.1
60.0 80.5
61.5 80.8
63.0 81.1
65.0 81.3
67.0 81.5
69.0 81.8
71.0 82.00000000000001
73.0 82.2
75.0 82.39999999999999
77.5 82.6
80.0 82.7
82.5 82.8
85.0 82.9
87.5 83.0
90.0 83.0
92.5 83.0
95.0 83.10000000000001
97.5 83.10000000000001
100.0 83.10000000000001
103.0 83.2
106.0 83.2
109.0 83.3
112.0 83.40000000000002
115.0 83.40000000000002
118.0 83.49999999999999
122.0 83.49999999999999
125.0 83.49999999999999
128.0 83.49999999999999
132.0 83.40000000000002
136.0 83.40000000000002
140.0 83.40000000000002
145.0 83.3
150.0 83.2
155.0 83.2
160.0 83.10000000000001
165.0 83.0
170.0 83.0
175.0 83.0
180.0 82.9
185.0 82.9
190.0 82.9
195.0 82.9
200.0 82.9
206.0 82.9
212.0 83.0
218.0 83.0
224.0 83.0
230.0 83.10000000000001
236.0 83.10000000000001
240.0 83.2
250.0 83.2
258.0 83.2
265.0 83.2
272.0 83.10000000000001
280.0 83.0
290.0 83.0
300.0 82.9
307.0 82.9
315.0 82.8
325.0 82.8
335.0 82.8
345.0 82.8
355.0 82.9
365.0 82.9
375.0 82.9
387.0 82.9
400.0 82.9
412.0 82.8
425.0 82.8
437.0 82.7
450.0 82.7
462.0 82.7
475.0 82.7
487.0 82.7
500.0 82.8
515.0 82.8
530.0 82.8
545.0 82.8
560.0 82.7
580.0 82.6
600.0 82.5
615.0 82.3
630.0 82.09999999999998
650.0 81.9
670.0 81.6
690.0 81.3
710.0 81.1
730.0 80.99999999999999
750.0 81.1
775.0 81.3
800.0 81.5
825.0 81.8
850.0 82.2
875.0 82.39999999999999
900.0 82.7
925.0 82.7
950.0 82.7
975.0 82.6
1000.0 82.5
1030.0 82.39999999999999
1060.0 82.2
1090.0 82.00000000000001
1120.0 81.8
1150.0 81.9
1180.0 82.2
1220.0 82.5
1250.0 82.6
1280.0 82.7
1320.0 82.9
1360.0 82.9
1400.0 82.2
1450.0 81.2
1500.0 80.7
1550.0 80.60000000000001
1600.0 80.7
1650.0 80.99999999999999
1700.0 80.90000000000002
1750.0 80.90000000000002
1800.0 80.90000000000002
1850.0 80.8
1900.0 80.5
1950.0 80.1
2000.0 79.8
2060.0 80.2
2120.0 80.99999999999999
2180.0 81.9
2240.0 82.6
2300.0 83.10000000000001
2360.0 83.49999999999999
2400.0 83.8
2500.0 83.9
2580.0 83.7
2650.0 83.3
2720.0 82.9
2800.0 82.7
2900.0 82.39999999999999
3000.0 81.8
3070.0 81.3
3150.0 79.89999999999999
3250.0 77.6
3350.0 75.90000000000002
3450.0 76.6
3550.0 78.49999999999999
3650.0 79.8
3750.0 80.3
3870.0 80.7
4000.0 81.1
4120.0 81.8
4250.0 82.9
4370.0 83.9
4500.0 84.1
4620.0 83.49999999999999
4750.0 82.3
4870.0 80.5
5000.0 78.3
5150.0 74.89999999999999
5300.0 73.8
5450.0 76.9
5600.0 79.7
5800.0 81.3
6000.0 81.7
6150.0 81.4
6300.0 80.8
6500.0 80.3
6700.0 80.3
6900.0 80.4
7100.0 80.90000000000002
7300.0 81.8
7500.0 82.5
7750.0 82.39999999999999
8000.0 81.3
8250.0 79.1
8500.0 76.3
8750.0 76.8
9000.0 80.90000000000002
9250.0 84.0
9500.0 83.49999999999999
9750.0 80.8
10000.0 77.8
10300.0 76.6
10600.0 79.8
10900.0 81.9
11200.0 80.8
11500.0 77.8
11800.0 78.8
12200.0 82.3
12500.0 83.7
12800.0 82.6
13200.0 80.90000000000002
13600.0 80.99999999999999
14000.0 81.3
14500.0 79.8
15000.0 79.3
15500.0 81.2
16000.0 80.90000000000002
16500.0 77.7
17000.0 76.2
17500.0 76.8
18000.0 76.1
18500.0 74.3
19000.0 73.8
19500.0 71.4
