Freq "Sound Power"
22.4 30.27194957787485
23.0 31.954217603216264
23.6 33.46563076716298
24.0 34.78228240178764
25.0 36.05066863856872
25.8 38.59100655730411
26.5 41.247977560192666
27.2 43.39572710099456
28.0 45.19967659047809
29.0 46.76888993234
30.0 48.1521652343997
30.7 50.3125393416078
31.5 53.035956876589395
32.5 55.17165523618765
33.5 56.92025498371005
34.5 58.42017095504072
35.5 59.93096506312483
36.5 61.88862681518701
37.5 63.5785947705933
38.7 65.06689857230172
40.0 66.3454968261703
41.2 67.8499792087331
42.5 69.48093255981077
43.7 70.87817198163884
45.0 72.12226669594604
46.2 73.20860031766074
47.5 74.1405922440262
48.7 74.99415798486108
50.0 75.7962832171931
51.5 76.41088463978413
53.0 76.93325613078444
54.5 77.43594411308696
56.0 77.93369309109298
58.0 78.39284954978908
60.0 78.74682767670599
61.5 79.06818144353251
63.0 79.31474611814569
65.0 79.53212331338638
67.0 79.78332469881238
69.0 80.04894601282355
71.0 80.27388227347288
73.0 80.53362604878559
75.0 80.77234761676387
77.5 80.93884926081373
80.0 81.08412012218446
82.5 81.18974575818125
85.0 81.27843748822976
87.5 81.31678115223099
90.0 81.33743989191275
92.5 81.3192496648081
95.0 81.28388853682746
97.5 81.23693405902631
100.0 81.22803197930338
103.0 81.20536920067792
106.0 81.18690707804465
109.0 81.15677157034506
112.0 81.11947363341663
115.0 81.06325955703524
118.0 80.98810392497676
122.0 80.89941944316493
125.0 80.8345154502751
128.0 80.7415442411358
132.0 80.64836358299372
136.0 80.52633488435704
140.0 80.40118515412264
145.0 80.25506800598215
150.0 80.13053547970217
155.0 80.00342929302217
160.0 79.85245847372207
165.0 79.72069852834265
170.0 79.59545304338883
175.0 79.47432965021834
180.0 79.37123567951208
185.0 79.2879305245925
190.0 79.20605051304175
195.0 79.13905185953737
200.0 79.10816932759643
206.0 79.0832732987257
212.0 79.06626101296723
218.0 79.03429958259967
224.0 79.02019113012149
230.0 78.98443197159698
236.0 78.95207008266534
240.0 78.90680495926794
250.0 78.83170935062152
258.0 78.73374557916217
265.0 78.54361100682296
272.0 78.33401238543433
280.0 78.09132915410026
290.0 77.86174755209439
300.0 77.6177822700609
307.0 77.39735544221439
315.0 77.20902870440646
325.0 77.04222839702953
335.0 76.91571864603641
345.0 76.79098209240017
355.0 76.71576056317566
365.0 76.66875394756718
375.0 76.61086583995665
387.0 76.53751454182321
400.0 76.45723078483044
412.0 76.32293311361643
425.0 76.20316266680277
437.0 76.10392399798225
450.0 75.96368148742265
462.0 75.90621461781205
475.0 75.83131614496764
487.0 75.7765221055456
500.0 75.76022229928417
515.0 75.70670873589948
530.0 75.64820740598003
545.0 75.58026219108157
560.0 75.50073924999285
580.0 75.39954079981892
600.0 75.30558519400218
615.0 75.21429846964845
630.0 75.12926516899888
650.0 74.95168777092312
670.0 74.7919492113165
690.0 74.6265043384116
710.0 74.43867603408202
730.0 74.30271885561926
750.0 74.22399684680077
775.0 74.27728639524203
800.0 74.27538084056805
825.0 74.3803068274506
850.0 74.44318615623048
875.0 74.33322404626512
900.0 74.2653923408589
925.0 74.12486690712781
950.0 73.97557723681551
975.0 73.76656507290484
1000.0 73.64222733328835
1030.0 73.55812921679188
1060.0 73.50027431742777
1090.0 73.41460284062931
1120.0 73.41260741084629
1150.0 73.56425861759253
1180.0 73.93971951358483
1220.0 74.32333901413166
1250.0 74.57800527547128
1280.0 74.6905590934629
1320.0 74.99459298479759
1360.0 75.09747048154148
1400.0 74.47561458358057
1450.0 73.59301817473848
1500.0 73.27996115164271
1550.0 73.26199718426038
1600.0 73.42487641335528
1650.0 73.62080050616953
1700.0 73.2985920200767
1750.0 72.9513200729833
1800.0 72.68982432424517
1850.0 72.26437907306202
1900.0 71.6519902375596
1950.0 70.92955088708281
2000.0 70.322643194718
2060.0 70.31400550474241
2120.0 70.76672062095236
2180.0 71.21858479833281
2240.0 71.54779069725215
2300.0 71.70099687717965
2360.0 71.74223780668258
2400.0 71.70594802974192
2500.0 71.69483268624072
2580.0 71.56817314825517
2650.0 71.38302765887786
2720.0 71.41080256530459
2800.0 71.68682235487104
2900.0 71.966112455305
3000.0 72.2244288134839
3070.0 72.45163926871619
3150.0 71.71501743285167
3250.0 69.82921360013303
3350.0 68.49479911586614
3450.0 69.3042154534434
3550.0 71.22480852192332
3650.0 72.15893412054571
3750.0 72.01894969668523
3870.0 71.80814722858803
4000.0 71.68356421569494
4120.0 71.98875187043222
4250.0 72.7742292608594
4370.0 73.61367744519384
4500.0 74.0753807277052
4620.0 74.07469516599473
4750.0 73.72566234733833
4870.0 72.79133105099243
5000.0 71.17769578120118
5150.0 68.22160348641388
5300.0 67.41994393256229
5450.0 70.66366482666083
5600.0 73.45830087247471
5800.0 74.91800542480765
6000.0 74.95557796696978
6150.0 74.36327476311679
6300.0 73.47207655551769
6500.0 72.81415543810192
6700.0 72.73517402227951
6900.0 72.83437630537695
7100.0 73.34097274934926
7300.0 74.39661749949616
7500.0 75.25625355303323
7750.0 75.41463056331624
8000.0 74.53103115567477
8250.0 72.5267241302712
8500.0 69.99918196227297
8750.0 70.74294973244709
9000.0 75.01867548352033
9250.0 78.17254323788924
9500.0 77.65594969633614
9750.0 74.86227222277306
10000.0 71.7055532272092
10300.0 70.37044806230769
10600.0 73.35909469446608
10900.0 75.16859276599357
11200.0 73.76334789118341
11500.0 70.37046440572406
11800.0 70.86085928773215
12200.0 73.93856698389554
12500.0 75.00360608420354
12800.0 73.65686611095872
13200.0 71.6226943808544
13600.0 71.45725208409412
14000.0 71.54315511739108
14500.0 69.83499243251917
15000.0 69.0898583353625
15500.0 70.83235812573362
16000.0 70.35575715145484
16500.0 67.05643824634443
17000.0 65.50081032011576
17500.0 66.06145235639188
18000.0 65.32377249285251
18500.0 63.54516267004365
19000.0 62.940431625980196
19500.0 60.49744700251982
