Freq "Sound Power"
22.4 30.85422805888753
23.0 32.53649608422889
23.6 34.04790924817563
24.0 35.36456088280032
25.0 36.632947119581374
25.8 39.17328503831679
26.5 41.830256041205345
27.2 43.97800558200724
28.0 45.78195507149074
29.0 47.35116841335268
30.0 48.73444371541238
30.7 50.89481782262045
31.5 53.618235357602074
32.5 55.7539337172003
33.5 57.5025334647227
34.5 59.00244943605337
35.5 60.513243544137495
36.5 62.470905296199675
37.5 64.16087325160593
38.7 65.64917705331438
40.0 66.92777530718296
41.2 68.43225768974575
42.5 70.0632110408234
43.7 71.46045046265151
45.0 72.7045451769587
46.2 73.7908787986734
47.5 74.72287072503883
48.7 75.57643646587373
50.0 76.37856169820574
51.5 76.99316312079678
53.0 77.5155346117971
54.5 78.01822259409961
56.0 78.51597157210564
58.0 78.97512803080171
60.0 79.32910615771864
61.5 79.65045992454516
63.0 79.89702459915834
65.0 80.11440179439904
67.0 80.36560317982502
69.0 80.6312244938362
71.0 80.85616075448554
73.0 81.11590452979824
75.0 81.35462609777652
77.5 81.52112774182636
80.0 81.66639860319712
82.5 81.77202423919391
85.0 81.86071596924239
87.5 81.89905963324364
90.0 81.9197183729254
92.5 81.90152814582076
95.0 81.86616701784011
97.5 81.81921254003896
100.0 81.81031046031602
103.0 81.78764768169056
106.0 81.7691855590573
109.0 81.7390500513577
112.0 81.70175211442927
115.0 81.64553803804787
118.0 81.5703824059894
122.0 81.48169792417757
125.0 81.41679393128777
128.0 81.32382272214845
132.0 81.23064206400636
136.0 81.1086133653697
140.0 80.9834636351353
145.0 80.83734648699479
150.0 80.71281396071483
155.0 80.58570777403482
160.0 80.4347369547347
165.0 80.30297700935529
170.0 80.1777315244015
175.0 80.05660813123099
180.0 79.95351416052473
185.0 79.87020900560513
190.0 79.7883289940544
195.0 79.72133034055001
200.0 79.69044780860908
206.0 79.66555177973835
212.0 79.6485394939799
218.0 79.61657806361232
224.0 79.60246961113415
230.0 79.56671045260963
236.0 79.53434856367801
240.0 79.4890834402806
250.0 79.41398783163416
258.0 79.31602406017483
265.0 79.12588948783561
272.0 78.91629086644699
280.0 78.6736076351129
290.0 78.44402603310702
300.0 78.20006075107354
307.0 77.97963392322703
315.0 77.7913071854191
325.0 77.62450687804218
335.0 77.49799712704906
345.0 77.37326057341281
355.0 77.29803904418831
365.0 77.25103242857983
375.0 77.1931443209693
387.0 77.11979302283585
400.0 77.03950926584308
412.0 76.90521159462907
425.0 76.7854411478154
437.0 76.6862024789949
450.0 76.54595996843528
462.0 76.48849309882472
475.0 76.41359462598028
487.0 76.35880058655823
500.0 76.34250078029683
515.0 76.28898721691215
530.0 76.23048588699267
545.0 76.16254067209424
560.0 76.08301773100551
580.0 75.98181928083159
600.0 75.88786367501483
615.0 75.7965769506611
630.0 75.71154365001152
650.0 75.53396625193575
670.0 75.37422769232914
690.0 75.20878281942424
710.0 75.02095451509466
730.0 74.88499733663193
750.0 74.80627532781342
775.0 74.85956487625467
800.0 74.85765932158068
825.0 74.96258530846323
850.0 75.02546463724313
875.0 74.91550252727777
900.0 74.84767082187156
925.0 74.70714538814046
950.0 74.55785571782816
975.0 74.34884355391749
1000.0 74.224505814301
1030.0 74.14040769780452
1060.0 74.08255279844042
1090.0 73.99688132164195
1120.0 73.99488589185894
1150.0 74.1465370986052
1180.0 74.5219979945975
1220.0 74.90561749514431
1250.0 75.16028375648392
1280.0 75.27283757447556
1320.0 75.57687146581024
1360.0 75.67974896255414
1400.0 75.05789306459322
1450.0 74.17529665575113
1500.0 73.86223963265536
1550.0 73.84427566527303
1600.0 74.00715489436794
1650.0 74.20307898718217
1700.0 73.88087050108936
1750.0 73.53359855399596
1800.0 73.27210280525783
1850.0 72.84665755407467
1900.0 72.23426871857224
1950.0 71.51182936809548
2000.0 70.90492167573063
2060.0 70.89628398575508
2120.0 71.34899910196502
2180.0 71.80086327934546
2240.0 72.13006917826479
2300.0 72.28327535819231
2360.0 72.32451628769525
2400.0 72.28822651075455
2500.0 72.27711116725335
2580.0 72.1504516292678
2650.0 71.9653061398905
2720.0 71.99308104631726
2800.0 72.26910083588369
2900.0 72.54839093631763
3000.0 72.80670729449656
3070.0 73.03391774972883
3150.0 72.29729591386433
3250.0 70.41149208114568
3350.0 69.0770775968788
3450.0 69.88649393445607
3550.0 71.80708700293596
3650.0 72.74121260155837
3750.0 72.60122817769786
3870.0 72.39042570960069
4000.0 72.26584269670761
4120.0 72.57103035144486
4250.0 73.35650774187204
4370.0 74.19595592620648
4500.0 74.65765920871783
4620.0 74.65697364700738
4750.0 74.30794082835097
4870.0 73.37360953200509
5000.0 71.75997426221382
5150.0 68.80388196742652
5300.0 68.00222241357493
5450.0 71.24594330767347
5600.0 74.04057935348735
5800.0 75.5002839058203
6000.0 75.53785644798242
6150.0 74.94555324412944
6300.0 74.05435503653032
6500.0 73.39643391911456
6700.0 73.31745250329215
6900.0 73.4166547863896
7100.0 73.92325123036191
7300.0 74.97889598050882
7500.0 75.83853203404588
7750.0 75.9969090443289
8000.0 75.11330963668742
8250.0 73.10900261128386
8500.0 70.58146044328562
8750.0 71.32522821345975
9000.0 75.60095396453296
9250.0 78.75482171890191
9500.0 78.23822817734879
9750.0 75.44455070378571
10000.0 72.28783170822186
10300.0 70.95272654332034
10600.0 73.94137317547874
10900.0 75.7508712470062
11200.0 74.34562637219607
11500.0 70.95274288673673
11800.0 71.44313776874479
12200.0 74.52084546490818
12500.0 75.58588456521619
12800.0 74.23914459197137
13200.0 72.20497286186703
13600.0 72.03953056510677
14000.0 72.12543359840372
14500.0 70.41727091353184
15000.0 69.67213681637517
15500.0 71.41463660674626
16000.0 70.9380356324675
16500.0 67.63871672735706
17000.0 66.0830888011284
17500.0 66.64373083740452
18000.0 65.90605097386518
18500.0 64.12744115105629
19000.0 63.52271010699285
19500.0 61.07972548353247
