Freq "On Axis"
22.4 40.000000000000014
23.0 41.000000000000014
23.6 42.3
24.0 44.7
25.0 46.89999999999999
25.8 48.89999999999999
26.5 51.000000000000014
27.2 51.3
28.0 51.2
29.0 50.7
30.0 50.2
30.7 53.000000000000014
31.5 55.39999999999999
32.5 57.7
33.5 59.10000000000001
34.5 59.89999999999999
35.5 60.0
36.5 60.60000000000001
37.5 61.5
38.7 62.39999999999999
40.0 63.39999999999999
41.2 64.3
42.5 65.50000000000001
43.7 67.2
45.0 68.9
46.2 68.3
47.5 68.09999999999998
48.7 68.39999999999999
50.0 69.0
51.5 70.2
53.0 70.89999999999999
54.5 71.7
56.0 72.4
58.0 73.00000000000001
60.0 73.5
61.5 73.8
63.0 74.2
65.0 74.7
67.0 75.2
69.0 75.59999999999998
71.0 75.89999999999999
73.0 76.1
75.0 76.3
77.5 76.4
80.0 76.7
82.5 77.1
85.0 77.4
87.5 77.6
90.0 77.9
92.5 78.2
95.0 78.5
97.5 78.8
100.0 79.10000000000001
103.0 79.3
106.0 79.40000000000002
109.0 79.6
112.0 79.6
115.0 79.8
118.0 79.9
122.0 79.9
125.0 80.1
128.0 80.2
132.0 80.3
136.0 80.4
140.0 80.50000000000001
145.0 80.59999999999998
150.0 80.8
155.0 80.8
160.0 80.8
165.0 80.8
170.0 80.8
175.0 80.8
180.0 80.89999999999999
185.0 81.0
190.0 81.2
195.0 81.4
200.0 81.7
206.0 81.90000000000002
212.0 81.99999999999999
218.0 82.1
224.0 82.2
230.0 82.2
236.0 82.2
240.0 82.2
250.0 82.3
258.0 82.3
265.0 82.3
272.0 82.2
280.0 81.99999999999999
290.0 81.7
300.0 81.5
307.0 81.4
315.0 81.60000000000001
325.0 81.99999999999999
335.0 82.2
345.0 82.3
355.0 82.1
365.0 81.99999999999999
375.0 82.3
387.0 82.9
400.0 83.2
412.0 83.09999999999998
425.0 82.8
437.0 83.00000000000001
450.0 83.9
462.0 84.40000000000002
475.0 84.0
487.0 82.5
500.0 80.4
515.0 80.4
530.0 81.4
545.0 81.2
560.0 80.2
580.0 80.50000000000001
600.0 82.7
615.0 84.40000000000002
630.0 84.8
650.0 84.2
670.0 83.09999999999998
690.0 82.1
710.0 83.00000000000001
730.0 84.3
750.0 84.49999999999999
775.0 84.6
800.0 84.8
825.0 85.0
850.0 85.3
875.0 84.9
900.0 83.9
925.0 83.00000000000001
950.0 81.5
975.0 80.59999999999998
1000.0 79.6
1030.0 80.89999999999999
1060.0 81.2
1090.0 80.8
1120.0 80.1
1150.0 80.0
1180.0 79.9
1220.0 79.49999999999999
1250.0 80.50000000000001
1280.0 81.1
1320.0 80.2
1360.0 80.0
1400.0 80.0
1450.0 79.7
1500.0 80.2
1550.0 81.3
1600.0 81.99999999999999
1650.0 82.7
1700.0 83.5
1750.0 83.5
1800.0 82.5
1850.0 81.2
1900.0 81.0
1950.0 80.4
2000.0 80.1
2060.0 80.50000000000001
2120.0 79.8
2180.0 78.7
2240.0 78.2
2300.0 77.4
2360.0 77.4
2400.0 77.5
2500.0 77.6
2580.0 77.9
2650.0 78.6
2720.0 78.9
2800.0 79.40000000000002
2900.0 80.3
3000.0 81.1
3070.0 81.5
3150.0 81.0
3250.0 81.2
3350.0 81.2
3450.0 80.3
3550.0 79.9
3650.0 80.1
3750.0 80.3
3870.0 80.59999999999998
4000.0 81.3
4120.0 81.4
4250.0 81.90000000000002
4370.0 83.00000000000001
4500.0 83.9
4620.0 82.2
4750.0 80.0
4870.0 79.0
5000.0 79.7
5150.0 79.8
5300.0 78.7
5450.0 76.0
5600.0 74.7
5800.0 74.8
6000.0 75.1
6150.0 75.0
6300.0 76.0
6500.0 77.3
6700.0 79.49999999999999
6900.0 81.60000000000001
7100.0 82.7
7300.0 82.4
7500.0 81.5
7750.0 80.89999999999999
8000.0 79.3
8250.0 77.2
8500.0 78.00000000000001
8750.0 76.8
9000.0 76.2
9250.0 78.09999999999998
9500.0 79.3
9750.0 81.0
10000.0 81.90000000000002
10300.0 82.3
10600.0 83.2
10900.0 83.7
11200.0 82.9
11500.0 81.7
11800.0 80.2
12200.0 80.50000000000001
12500.0 81.5
12800.0 80.50000000000001
13200.0 79.8
13600.0 78.9
14000.0 76.5
14500.0 77.2
15000.0 80.0
15500.0 79.6
16000.0 81.4
16500.0 84.49999999999999
17000.0 83.2
17500.0 81.99999999999999
18000.0 81.90000000000002
18500.0 81.99999999999999
19000.0 81.0
19500.0 76.1
