Freq "Front Wall Bounce"
20.507813 57.29573222011645
21.972656 58.24709073614592
23.4375 59.2335847254425
24.902344 60.37181603456425
26.367188 60.74489330660798
27.832031 61.85103129652664
29.296875 62.86436566905398
30.761719 64.06771983232215
32.226563 65.28117534725631
33.691406 66.53636039869804
35.15625 67.74503193103837
36.621094 68.99235752113364
38.085938 70.09249478616435
39.550781 71.06162383222177
41.015625 71.92804307604541
42.480469 72.82465035394233
43.945313 73.67121117715676
45.410156 74.44712625246332
46.875 75.22454003475923
48.339844 75.88896672970986
51.269531 77.21202752045252
52.734375 77.84423276096051
54.199219 78.4139927298195
55.664063 78.95391241331882
58.59375 79.93045567008748
60.058594 80.36797043479734
62.988281 81.27038428498672
64.453125 81.66820878912918
67.382813 82.33228653955177
68.847656 82.5523754451024
71.777344 82.9368971647287
74.707031 83.33882050572832
77.636719 83.57768412484683
79.101563 83.56296517789038
82.03125 83.56278169162756
84.960938 83.63608866675084
87.890625 83.59266274782901
90.820313 83.51908125692842
95.214844 83.51840335971066
98.144531 83.39294948279264
101.07422 83.4063109777809
105.46875 83.22202739740844
108.39844 83.112105343076
112.79297 83.05613503010656
117.1875 82.97444845173492
120.11719 82.8015663337182
124.51172 82.66623719806104
128.90625 82.62699092582493
133.30078 82.53996521864995
139.16016 82.58662836807646
143.55469 82.37949569635727
147.94922 82.21142369829344
153.80859 82.09467196015201
159.66797 82.30937752576484
165.52734 82.27495856819951
171.38672 82.33491037211377
177.24609 82.13191761169334
183.10547 81.8731850874018
188.96484 81.83568055472075
196.28906 82.31317522613197
203.61328 82.16507398269299
210.9375 81.89268916606825
218.26172 81.74093907385021
225.58594 81.70920817585697
232.91016 82.14557728525344
241.69922 81.9724533680195
250.48828 82.01924197440117
259.27734 82.24389902004636
268.06641 82.30773144362327
276.85547 81.33187714456457
287.10938 81.23143278712034
297.36328 81.54206314947008
307.61719 81.2505471243048
319.33594 81.9419570310789
329.58984 81.80454256433352
341.30859 82.23579392117425
353.02734 82.26012968688191
366.21094 82.11503781128083
379.39453 82.77109136754858
392.57813 83.44826132487876
405.76172 83.32695228240779
420.41016 82.82734022050359
435.05859 83.15739129041243
451.17188 82.99297035670998
465.82031 82.59615268332124
483.39844 83.35732502489566
499.51172 82.71066174862806
517.08984 82.72974956191882
536.13281 82.61609929911602
555.17578 82.72443177890241
574.21875 83.3838202173503
594.72656 83.27724755298664
615.23438 82.78837896034061
637.20703 82.76813287694972
659.17969 82.62028101465697
682.61719 82.8043082210998
707.51953 83.2857463837983
732.42188 83.1127118913033
757.32422 83.89824868001783
785.15625 82.62854142728791
811.52344 83.28936539941849
840.82031 81.95748350944082
870.11719 81.81452090003951
900.87891 81.34982559138575
933.10547 81.17331910521546
965.33203 81.70197783546548
1000.4883 81.87338075893216
1035.6445 82.03986705078205
1072.2656 81.90717207675873
1108.8867 82.62897871331593
1148.4375 82.75756406226282
1189.4531 82.98764098897377
1230.4688 82.61534585956367
1274.4141 82.51285059799085
1319.8242 82.49008027605392
1366.6992 82.41683457499323
1413.5742 81.9339261477631
1463.3789 82.61719334098044
1516.1133 82.19129487980952
1568.8477 81.82102989213205
1624.5117 82.28207092038855
1681.6406 81.78832185132471
1741.6992 82.47835466640603
1803.2227 82.17891648742099
1866.2109 81.72840213027146
1932.1289 81.58091979990925
1999.5117 82.52715384108414
2069.8242 83.35401513339777
2143.0664 82.79652869358489
2219.2383 82.15939933385935
2296.875 82.70201135290286
2378.9063 83.27530645137243
2462.4023 83.0389816813453
2548.8281 82.992248680387
2639.6484 82.62479472937976
2731.9336 82.65316173932975
2828.6133 82.91076228541871
2928.2227 82.59462649948426
3030.7617 81.0868090861678
3137.6953 81.38941488909741
3249.0234 81.2562053105248
3363.2813 80.94758698879383
3481.9336 81.81744649231432
3604.9805 82.46273555967896
3732.4219 82.61970939055065
3864.2578 82.12087082767336
4000.4883 82.63554771501249
4141.1133 81.54167429594077
4287.5977 81.7181585902304
4438.4766 80.78561139611419
4595.2148 80.65630284499643
4756.3477 80.05890505221788
4924.8047 80.08735470591812
5097.6563 80.49248540178883
5277.832 80.5985300846265
5463.8672 80.7688725146014
5657.2266 81.29553813583536
5856.4453 80.78309762765923
6062.9883 81.3536174116365
6276.8555 81.37152395739533
6498.0469 81.57725889753505
6726.5625 81.56341768732284
6963.8672 81.53494214033596
7209.9609 81.98265286044087
7464.8438 82.01244338356493
7727.0508 82.41882257604155
7999.5117 82.94232043025313
8282.2266 83.07578552378192
8573.7305 82.99376874493741
8876.9531 83.06135937546857
9188.9648 82.9395654632642
9514.1602 82.71610789301464
9849.6094 82.58042021431318
10196.777 82.5610845468671
10555.664 82.42977299287112
10927.734 82.37216942596784
11312.988 82.21799675551163
11712.891 82.01253159926446
12125.977 81.926627990783
12553.711 81.98902129606493
12996.094 82.23054912701554
13454.59 82.43531270098555
13929.199 82.50878169225376
14419.922 82.52589860400232
14928.223 82.58747172797126
15455.566 82.7246226900498
16000.488 82.91205274972931
16564.453 83.0813498194045
17148.926 82.9027150822291
17752.441 82.91253026787518
18379.395 82.92326331414968
19026.855 82.83460202122644
19697.754 82.64915310537359
19999.512 82.54946750553347
