Freq,On Axis,Listening Window,Sound Power,Early Reflections,Early Reflections DI,Sound Power DI,DI offset
22.4,52.29999999999998,52.00771903242,54.71849516588347,53.48846457966371,38.519254452756286,37.28922386653653,40
23.0,54.70000000000002,54.60128503993292,56.246190645369694,55.484962624644226,39.11632241528869,38.355094394563224,40
23.6,56.400000000000006,56.40102343142834,57.32547153040693,56.92013884346187,39.48088458796647,39.07555190102141,40
24.0,56.29999999999998,56.38023185332523,56.822601799243245,56.71111853895397,39.66911331437126,39.55763005408198,40
25.0,56.29999999999998,56.35810703740077,56.42197126803757,56.485787432717814,39.87231960468296,39.936135769363204,40
25.8,56.900000000000006,56.93434563061504,56.669693030318825,56.87991441982186,40.05443121079318,40.264652600296216,40
26.5,58.29999999999998,58.37848434425851,57.80636416481468,58.15177938439501,40.2267049598635,40.57212017944383,40
27.2,60.5,60.48900192004663,59.88992635628588,60.221489885521265,40.26751203452537,40.59907556376075,40
28.0,62.29999999999998,62.32242205920517,61.794345248101735,62.06904140478474,40.253380654420425,40.52807681110343,40
29.0,63.7,63.68900192004665,63.16324033092516,63.436348047971194,40.252653872075456,40.52576158912149,40
30.0,65.0,65.02242205920518,64.58742555243876,64.80687271853579,40.2155493406694,40.434996506766424,40
30.7,66.5,66.48900192004663,66.10230250812702,66.29744464673972,40.19155727330691,40.38669941191961,40
31.5,68.0,68.01122549985843,67.53104557306844,67.75738811714044,40.25383738271799,40.48017992678999,40
32.5,69.8,69.72242205920519,69.20540191847032,69.45067733773374,40.27174472147145,40.51702014073487,40
33.5,71.4,71.3669218511605,70.84988129959382,71.09676030460328,40.27016154655722,40.51704055156668,40
34.5,72.9,72.87823306508388,72.36220918242185,72.59410952789004,40.284123537193835,40.516023882662026,40
35.5,74.4,74.3447289505772,73.89716286189943,74.09047501093983,40.25425393963738,40.447566088677775,40
36.5,75.8,75.7447289505772,75.29831981730578,75.50196378073979,40.24276516983741,40.446409133271416,40
37.5,77.1,77.07823306508388,76.62398385243816,76.83510284778423,40.24313021729965,40.45424921264572,40
38.7,78.5,78.44472895057721,77.922608808496,78.16829183754318,40.276437113034035,40.52212014208122,40
40.0,79.9,79.80051167804046,79.18827953299731,79.4701612052905,40.33035047274997,40.61223214504315,40
41.2,81.2,81.17823306508387,80.42276548822252,80.78197596368987,40.396257101394,40.75546757686135,40
42.5,82.5,82.43435732133558,81.55519634061667,81.98599137028732,40.44836595104826,40.87916098071891,40
43.7,83.7,83.62293110248063,82.61334001636399,83.12315413711366,40.499776965366976,41.00959108611664,40
45.0,84.8,84.72293110248063,83.66244607736898,84.2007732994423,40.522157803038326,41.060485025111646,40
46.2,85.8,85.72293110248063,84.6586522175413,85.19354223039753,40.5293888720831,41.06427888493933,40
47.5,86.69999999999999,86.60051167804048,85.63411209371682,86.10945982709688,40.49105185094359,40.96639958432365,40
48.7,87.4,87.30051167804046,86.40009097892039,86.84351334933403,40.45699832870643,40.900420699120076,40
50.0,87.9,87.78951489542683,86.9245991831988,87.34729837642186,40.44221651900497,40.86491571222804,40
51.5,88.1,88.02293110248064,87.15113132558591,87.55916698415652,40.46376411832412,40.87179977689473,40
53.0,88.1,87.98951489542684,87.09641838118951,87.52365881261568,40.46585608281116,40.89309651423733,40
54.5,87.9,87.8343573213356,86.85786381143451,87.32056248579919,40.513794835536416,40.97649350990109,40
56.0,87.6,87.55660314969002,86.50246625593124,87.0048539451804,40.55174920450962,41.05413689375878,40
58.0,87.4,87.26794123556499,86.11794404622668,86.67515324084677,40.59278799471822,41.14999718933831,40
60.0,87.1,87.0020406649343,85.70001468198018,86.32779398518912,40.67424667974518,41.30202598295412,40
61.5,86.9,86.80204066493431,85.31862040388908,86.05188866761165,40.75015199732266,41.483420261045225,40
63.0,86.8,86.70204066493432,85.00319096976038,85.850442450276,40.85159821465831,41.698849695173934,40
65.0,86.9,86.73614605110728,84.81161423649384,85.76191786671423,40.974228184393056,41.924531814613445,40
67.0,87.0,86.81529034765103,84.72901577544297,85.76490380793376,41.050386539717266,42.086274572208055,40
69.0,87.0,86.87076478409546,84.64520298574189,85.7621065355566,41.10865824853886,42.22556179835357,40
71.0,87.1,86.91529034765104,84.47517988904134,85.71276789312202,41.20252245452902,42.440110458609695,40
73.0,87.2,87.00433096972482,84.291011468316,85.70035761529859,41.30397335442623,42.71331950140882,40
75.0,87.3,87.08232889564586,84.16027982183388,85.71071600006144,41.37161289558442,42.922049073811976,40
77.5,87.3,87.15889934695255,84.12003606343791,85.75952736248503,41.39937198446752,43.038863283514644,40
80.0,87.3,87.18102013714312,84.11632408263335,85.78077447531848,41.40024566182464,43.06469605450977,40
82.5,87.1,87.0020406649343,84.00330405997883,85.63844999152629,41.36359067340801,42.99873660495547,40
85.0,86.8,86.70204066493432,83.74234697340563,85.35960677883287,41.342433886101446,42.959693691528685,40
87.5,86.5,86.32445814420117,83.3157681340847,84.94870040225669,41.37575774194448,43.00869001011647,40
90.0,86.2,86.00354610191523,82.83837636335886,84.55154404315203,41.4520020587632,43.16516973855637,40
92.5,86.0,85.83815288443361,82.40734865871983,84.27857350380327,41.55957938063034,43.430804225713786,40
95.0,86.2,85.94980404287097,82.20864011527496,84.27838464951535,41.67141939335562,43.741163927596006,40
97.5,86.4,86.1609017096088,82.2314204494821,84.4535497039994,41.707352005609394,43.92948126012669,40
100.0,86.69999999999999,86.49281329520848,82.445171205017,84.75144414943753,41.741369145770946,44.047642090191474,40
103.0,87.1,86.88154004111531,82.825093885412,85.14510233122098,41.73643770989433,44.05644615570331,40
106.0,87.4,87.22445814420118,83.24356549390266,85.52633895208814,41.69811919211304,43.980892650298514,40
109.0,87.6,87.43487087961414,83.59097134668178,85.80569845808637,41.62917242152777,43.843899532932355,40
112.0,87.5,87.41275652700277,83.76731433775996,85.86986807032545,41.54288845667732,43.645442189242814,40
115.0,87.2,87.11275652700277,83.62827682235259,85.64236197698582,41.47039455001695,43.484479704650184,40
118.0,86.69999999999999,86.62447592572397,83.19628307519005,85.17421431456322,41.450261611160755,43.42819285053392,40
122.0,86.4,86.1935942723577,82.6282189155504,84.69281653668256,41.50077773567514,43.565375356807294,40
125.0,86.2,85.94276162535266,82.150155649309,84.35451474087479,41.58824688447787,43.79260597604366,40
128.0,86.1,85.8354042881971,81.76103131029886,84.13838257111075,41.69702171708634,44.074372977898236,40
132.0,86.2,85.86008065619251,81.54170697289806,84.08023287911222,41.77984777708029,44.31837368329445,40
136.0,86.30000000000001,86.00284559139567,81.40985968892932,84.09575752589969,41.907088065495984,44.59298590246635,40
140.0,86.30000000000001,86.05523164884713,81.26621903004545,84.07177624009003,41.983455408757095,44.78901261880168,40
145.0,86.1,85.83211963372264,80.95115062378618,83.8273237623539,42.00479587136874,44.880969009936464,40
150.0,85.6,85.30096904162393,80.42160638794007,83.32628060649529,41.97468843512864,44.879362653683856,40
155.0,85.1,84.78000361795668,79.83859418187855,82.79458458097531,41.98541903698137,44.94140943607813,40
160.0,84.7,84.36971598837823,79.34876053314547,82.34240930170631,42.02730668667192,45.020955455232766,40
165.0,84.5,84.19073766770674,79.16964058441766,82.17465674024169,42.016080927465055,45.02109708328908,40
170.0,84.7,84.4223133132246,79.49186691996519,82.44198995285632,41.98032336036829,44.930446393259416,40
175.0,84.9,84.62313162372513,79.97689839379353,82.79960671049528,41.823524913229846,44.646233229931596,40
180.0,84.9,84.55150234915641,80.03585875718403,82.83013517488567,41.72136717427074,44.51564359197238,40
185.0,84.4,84.03708998745967,79.45327828717909,82.34325375465367,41.69383623280599,44.58381170028058,40
190.0,83.2,82.76776245471696,78.1564153887739,80.99749690781319,41.77026554690377,44.611347065943065,40
195.0,82.1,81.6132664670196,76.83119044802825,79.39722577485534,42.216040692164256,44.78207601899135,40
200.0,81.9,81.35816440156714,76.41529913986108,78.59776959201044,42.7603948095567,44.94286526170606,40
206.0,82.3,81.83508700316449,76.63949962955358,78.60392834173113,43.231158661433355,45.195587373610906,40
212.0,83.6,83.13915031549685,77.42542915532148,79.50654820917417,43.63260210632268,45.71372116017537,40
218.0,85.0,84.53682816733979,78.24199214559385,80.60440000213177,43.93242816520802,46.29483602174594,40
224.0,85.8,85.3853740591779,78.64371744222008,81.29280661920558,44.09256743997233,46.741656616957826,40
230.0,86.2,85.74827993977394,78.77521418822664,81.64092784301057,44.107352096763364,46.973065751547296,40
236.0,86.4,85.83257117624223,78.75376950884765,81.70281027390095,44.129760902341275,47.07880166739457,40
240.0,86.6,85.97367511985607,78.80871489375176,81.77934563195751,44.19432948789856,47.16496022610431,40
250.0,86.69999999999999,85.95345020629587,78.68342812738214,81.67457537072666,44.27887483556921,47.270022078913726,40
258.0,86.8,85.95923558026382,78.39905740514112,81.51669474931433,44.4425408309495,47.5601781751227,40
265.0,86.6,85.8101542170545,77.96692989486276,81.23160704063103,44.57854717642347,47.843224322191745,40
272.0,86.2,85.43421530864128,77.4291293801217,80.79496370394098,44.639251604700306,48.00508592851959,40
280.0,86.1,85.21009854894629,77.02683669677779,80.49897376235957,44.71112478658672,48.1832618521685,40
290.0,86.2,85.26827666036252,76.92326800461993,80.47995354085053,44.788323119511986,48.34500865574259,40
300.0,86.4,85.49123909823457,77.02961152098217,80.6502745783173,44.84096451991728,48.4616275772524,40
307.0,86.6,85.61553814220774,77.09608593572263,80.74118834870916,44.87434979349858,48.51945220648511,40
315.0,86.8,85.8091709412553,77.17309524722488,80.92426358285073,44.884907358404575,48.636075694030424,40
325.0,86.9,85.93327051643269,77.19226869891828,81.0932551454162,44.84001537101649,48.7410018175144,40
335.0,87.0,85.95398306132356,77.0732354648827,81.1249437563365,44.82903930498705,48.880747596440855,40
345.0,87.0,85.91911429671435,76.9699081430117,81.16454400475085,44.7545702919635,48.94920615370266,40
355.0,86.9,85.74355801819081,76.91107210497373,81.17808013868569,44.565477879505124,48.832485913217084,40
365.0,86.8,85.5899603205741,77.07022044845417,81.35862758316989,44.2313327374042,48.51973987211993,40
375.0,86.69999999999999,85.53005670193409,77.48200086954891,81.72929873714402,43.800757964790066,48.048055832385174,40
387.0,86.69999999999999,85.50092807841021,77.98544492512015,82.17234111110723,43.32858696730298,47.51548315329006,40
400.0,86.8,85.54481061687521,78.45691610050059,82.5242781707406,43.02053244613461,47.08789451637462,40
412.0,86.9,85.63930995820968,78.70753578026955,82.71777746281352,42.921532495396164,46.93177417794013,40
425.0,87.1,85.71686323591474,78.75313010415195,82.73816119545823,42.97870204045651,46.963733131762794,40
437.0,87.0,85.5242080857984,78.72396770262841,82.64539936741255,42.878808718385855,46.80024038316999,40
450.0,86.8,85.31329976316023,78.81090215096995,82.66019389125381,42.65310587190642,46.50239761219028,40
462.0,86.6,85.23522944314415,79.20061944425092,82.97070938846014,42.26452005468401,46.03460999889323,40
475.0,86.6,85.22650929490824,79.67348305649489,83.4077825666077,41.81872672830055,45.55302623841335,40
487.0,86.6,85.31245618381055,79.74976240734495,83.49269115319552,41.81976503061503,45.56269377646561,40
500.0,86.69999999999999,85.5145009064557,79.49797198216763,83.26934229016697,42.24515861628872,46.01652892428807,40
515.0,86.8,85.63185559402666,79.24370220872791,82.97486007946756,42.6569955145591,46.38815338529875,40
530.0,87.0,85.80815141204877,78.94664013602737,82.71668490896809,43.09146650308068,46.8615112760214,40
545.0,87.3,86.04146468807122,78.87179381821782,82.74325467762432,43.298210010446894,47.16967086985339,40
560.0,87.6,86.32358285773726,79.02000256628477,83.04647051359714,43.27711234414012,47.30358029145249,40
580.0,87.9,86.5325600569915,79.0460557658785,83.29389031577834,43.23866974121316,47.48650429111299,40
600.0,87.9,86.63654542971736,79.27991700240045,83.60573238257298,43.03081304714438,47.356628427316906,40
615.0,88.0,86.86953059775028,79.65545331517123,84.03160764445869,42.837922953291596,47.214077282579055,40
630.0,88.2,87.13103344027067,79.98966133897096,84.44314801611513,42.68788542415554,47.14137210129971,40
650.0,88.4,87.51487915177086,80.55729601719645,85.07106527537834,42.44381387639251,46.957583134574406,40
670.0,88.6,88.11242021314786,81.17178178987669,85.66831540418478,42.444104808963075,46.94063842327117,40
690.0,88.80000000000001,88.77459422865776,81.83697876566947,86.26512560785154,42.50946862080622,46.93761546298829,40
710.0,88.4,89.10380011435272,82.36468014410316,86.60794376336152,42.495856350991204,46.73911997024956,40
730.0,87.4,88.67358341244594,81.81523542084602,85.770568828695,42.90301458375093,46.85834799159991,40
750.0,85.9,87.29831459514779,80.18899932001197,83.86354403466301,43.43477056048478,47.10931527513581,40
775.0,84.3,85.48843203549742,78.1029678368863,81.70695364066898,43.78147839482844,47.38546419861113,40
800.0,83.0,83.83802912960488,76.16595758089596,79.8542458286422,43.98378330096267,47.672071548708914,40
825.0,82.2,82.79256814814786,75.12205367138927,79.00262926667538,43.78993888147248,47.6705144767586,40
850.0,82.2,82.72773244398665,75.56507398379617,79.73091947882733,42.99681296515932,47.162658460190485,40
875.0,82.70000000000002,83.19214675750645,76.76184288610116,81.14648741796628,42.045659339540165,46.430303871405286,40
900.0,83.4,84.01605894647214,78.32955833134143,82.89306379688904,41.122995149583105,45.68650061513071,40
925.0,84.19999999999999,84.85943004023308,80.01604994184726,84.65774940382637,40.20168063640671,44.84338009838582,40
950.0,85.0,85.24927178237512,81.11746513915526,85.72857065368999,39.52070112868513,44.13180664321986,40
975.0,85.7,85.3153438073204,81.70932539550682,86.39509991408971,38.92024389323069,43.60601841181358,40
1000.0,86.4,85.15729219350798,81.76918709284678,86.64614214988983,38.51115004361816,43.38810510066121,40
1030.0,87.0,84.92796168073224,81.20621668656315,86.35643211406924,38.571529566663,43.721744994169086,40
1060.0,87.5,84.88496427969602,80.50679474643582,85.96091813982491,38.92404613987111,44.378169533260206,40
1090.0,87.9,85.0421093531336,79.97747102669928,85.65780177745218,39.38430757568142,45.06463832643432,40
1120.0,88.2,85.37530187934532,79.7180334389235,85.53636733648861,39.838934542856705,45.65726844042182,40
1150.0,88.4,85.8972014138012,79.82594740835967,85.82527651499791,40.07192489880329,46.07125400544153,40
1180.0,88.6,86.50100755112297,80.24159546758479,86.36743879587803,40.13356875524494,46.25941208353818,40
1220.0,88.5,87.03755128589694,80.8402656484304,87.0728437408605,39.96470754503643,46.197285637466535,40
1250.0,88.3,87.37423393007718,81.27792876109277,87.55650169862562,39.81773223145156,46.096305168984415,40
1280.0,88.0,87.43674064231612,81.47280133971205,87.74130649741107,39.69543414490505,45.963939302604075,40
1320.0,87.79999999999998,87.38945654581687,81.54956396963733,87.7782238273513,39.61123271846557,45.83989257617954,40
1360.0,87.6,87.31857614926479,81.578205002941,87.798305685079,39.520270464185785,45.74037114632378,40
1400.0,87.4,87.27861277753564,81.58574513278685,87.82632163630241,39.45229114123323,45.69286764474879,40
1450.0,87.1,87.15515390881538,81.43870995093732,87.72781176362133,39.42734214519405,45.716443957878056,40
1500.0,86.8,87.03088001306259,81.19377432246017,87.5285274249896,39.50235258807298,45.837105690602414,40
1550.0,86.5,86.91672362409545,80.82261849817911,87.13342299854469,39.783300625550766,46.09410512591634,40
1600.0,86.1,86.69903979809922,80.33249647613269,86.5259680070599,40.17307179103932,46.36654332196653,40
1650.0,85.9,86.73824923709157,80.14097235470561,86.09997467869373,40.63827455839784,46.597276882385955,40
1700.0,85.9,86.93113504348375,80.3045445019661,86.0207052933336,40.91042975015014,46.62659054151764,40
1750.0,86.0,87.00645270194909,80.44885691078917,85.97785685309313,41.02859584885596,46.55759579115991,40
1800.0,86.2,86.89960451090481,80.48126322520324,85.93230902564794,40.96729548525687,46.41834128570157,40
1850.0,86.30000000000001,86.75563244914814,80.3349916064787,85.78132434910401,40.97430810004413,46.42064084266944,40
1900.0,86.4,86.69800574866804,80.13066856129336,85.64814783969956,41.04985790896848,46.567337187374676,40
1950.0,86.5,86.76095703204012,80.09707877823232,85.82067682305204,40.940280208988085,46.66387825380781,40
2000.0,86.5,86.70595975496994,80.1420108277319,86.14940409486763,40.556555660102305,46.563948927238044,40
2060.0,86.4,86.5378685023969,80.27165222919552,86.52161753143693,40.01625097095997,46.26621627320138,40
2120.0,86.2,86.34240066315937,80.34826433418024,86.68613335112683,39.65626731203254,45.994136328979124,40
2180.0,86.0,86.12839469392247,80.24046765803122,86.59792061928596,39.530474074636516,45.88792703589125,40
2240.0,85.6,85.76510820658022,79.90630082146382,86.2071766005956,39.55793160598462,45.85880738511641,40
2300.0,85.1,85.42851588152195,79.5666263898052,85.77077815769424,39.65773772382771,45.86188949171675,40
2360.0,85.0,85.29570275102502,79.40787544923941,85.53492732694653,39.76077542407849,45.887827301785606,40
2400.0,85.20000000000002,85.23285840420522,79.2244856622419,85.25829609324026,39.974562310964956,46.00837274196331,40
2500.0,85.7,85.37251539809334,79.01787334370684,84.998195771843,40.37431962625034,46.3546420543865,40
2580.0,86.30000000000001,85.47621886028963,78.44811485916006,84.3991174850921,41.07710137519753,47.02810400112958,40
2650.0,86.6,85.37488836609045,77.13311224433554,83.12667146118216,42.24821690490829,48.24177612175491,40
2720.0,86.8,85.49483540063336,76.28653349916577,82.31190290594432,43.18293249468904,49.20830190146759,40
2800.0,87.3,86.05880425546619,76.56034766146144,82.62545841799218,43.43334583747401,49.49845659400475,40
2900.0,87.79999999999998,86.68535598759719,77.3729954918531,83.5099434821758,43.17541250542139,49.31236049574409,40
3000.0,88.6,87.3547542110349,78.6109891713271,84.81896211928957,42.535792091745336,48.743765039707796,40
3070.0,89.1,87.73000909359499,79.4711197815653,85.7535298617207,41.97647923187429,48.25888931202968,40
3150.0,89.5,87.81338593722546,79.43440370920449,85.83620395183226,41.9771819853932,48.37898222802097,40
3250.0,90.0,88.1187100475576,79.24881397595735,85.72351080603792,42.39519924151968,48.86989607160025,40
3350.0,90.29999999999998,88.24614383545563,79.00221729805412,85.50685587064558,42.739287964810046,49.24392653740151,40
3450.0,90.4,88.35664276735011,78.85821017645239,85.37693508601323,42.979707681336876,49.49843259089772,40
3550.0,90.6,88.55901730870609,78.94577325325932,85.46730916035293,43.09170814835316,49.61324405544677,40
3650.0,90.29999999999998,88.29618788253057,78.95562606766954,85.5081263638838,42.78806151864677,49.34056181486103,40
3750.0,89.9,87.81051215175255,78.82863309991522,85.37962634141371,42.430885810338836,48.981879051837325,40
3870.0,89.19999999999999,87.09674331957831,78.74130349531649,85.27411702796195,41.82262629161636,48.35543982426182,40
4000.0,88.0,86.09326484283298,78.72519419855139,85.1615518267657,40.93171301606728,47.36807064428159,40
4120.0,87.1,85.47517335037286,78.68961016510016,84.92536765982518,40.54980569054767,46.78556318527269,40
4250.0,86.4,85.59000763602575,79.20125642864568,85.30680543233295,40.283202203692795,46.38875120738007,40
4370.0,86.2,86.47789693384753,80.31835278631472,86.38392689218551,40.09397004166202,46.15954414753281,40
4500.0,86.5,88.07555805747064,81.90868866675336,87.84606400385937,40.229494053611276,46.16686939071728,40
4620.0,86.30000000000001,89.23272624384819,83.43394148364676,89.1194702363666,40.113256007481596,45.79878476020143,40
4750.0,85.5,89.25065971791845,83.87479123275229,89.28373164762289,39.966928070295566,45.375868485166166,40
