Freq "Ceiling Bounce"
20.0 54.41158606598768
20.2909 55.11604022504358
20.586 55.77083080594571
20.8855 56.49983080594569
21.1893 57.069830805945685
21.4975 57.720064422760686
21.8102 58.22565263674312
22.1274 58.7192794008364
22.4492 59.16436401049913
22.7758 59.66298294571473
23.1071 59.99685095264775
23.4432 60.593937121897056
23.7841 61.01213931632827
24.1301 61.530893337796584
24.4811 62.148198942974375
24.8372 62.62882856673474
25.1984 63.1844128496617
25.5649 63.63357433773774
25.9368 64.14649685065982
26.3141 64.78612306222627
26.6968 65.4088570588317
27.0851 65.9928570588317
27.4791 66.55822348044617
27.8788 67.0472667687942
28.2843 67.66926676879422
28.6957 68.24126676879422
29.1131 68.76426676879422
29.5365 69.36091251829822
29.9661 69.83619800295963
30.402 70.34719800295964
30.8442 70.86810356405856
31.2929 71.36061355743556
31.748 71.82461355743554
32.2098 72.27861355743555
32.6783 72.8980388500297
33.1536 73.3780388500297
33.6359 73.8640388500297
34.1251 74.45956164294319
34.6215 75.03656164294318
35.125 75.5669128372167
35.6359 76.12822310324253
36.1543 76.54322310324252
36.6802 76.96785272128363
37.2137 77.41935766478271
37.755 77.71930637862282
38.3041 78.23530637862282
38.8613 78.58815774934853
39.4265 78.9141577493485
40.0 79.24315774934853
40.5818 79.47615774934852
41.1721 79.81149351030437
41.771 80.08149351030438
42.3785 80.32449351030439
42.9949 80.58407221081177
43.6203 80.75231806766472
44.2548 81.0063180676647
44.8985 81.2633180676647
45.5515 81.59150800786938
46.2141 81.83650800786938
46.8863 81.97144762781258
47.5683 82.19823341107265
48.2602 82.37145083805433
48.9621 82.55245083805433
49.6743 82.67013059177982
50.3968 82.71276431058831
51.1299 82.95176749445562
51.8736 83.11645083805433
52.6281 83.26067935340966
53.3936 83.45676749445562
54.1702 83.56776749445562
54.9581 83.73258982687999
55.7575 83.89391800141854
56.5685 84.13258982687998
57.3914 84.30835340575351
58.2261 84.33258982687997
59.073 84.528
59.9323 84.61036293443578
60.804 84.89633374272367
61.6884 84.899
62.5857 85.03258982687998
63.496 85.19186148114133
64.4196 85.3659218511605
65.3566 85.46592185116049
66.3073 85.6659218511605
67.2717 85.68502143784684
68.2502 85.98718449924824
69.2429 86.09443532748912
70.2501 86.25463926800197
71.2719 86.42052900194571
72.3086 86.60816266502444
73.3603 86.82137134149954
74.4274 87.05116093597704
75.5099 87.19358854199133
76.6083 87.31687391090288
77.7226 87.50496553247095
78.8531 87.73545083805433
80.0 87.91245083805433
81.1636 88.08019904581508
82.3442 88.311843509256
83.5419 88.4145396380325
84.757 88.58942663907276
85.9899 88.88540766673901
87.2406 89.07906957104251
88.5096 89.23706957104251
89.797 89.43471743580545
91.1031 89.80472315979937
92.4282 90.00870138192808
93.7726 90.27050800786937
95.1366 90.4634732467776
96.5204 90.59721129888743
97.9243 90.73721129888743
99.3486 90.86079928521441
100.794 90.87050800786939
102.26 90.83721129888744
103.747 90.80590501035459
105.256 90.98013364079773
106.787 91.05590501035459
108.34 91.20421129888743
109.916 91.33890501035458
111.515 91.5349050103546
113.137 91.6059050103546
114.783 91.52128794164348
116.452 91.55583030471976
118.146 91.61283030471972
119.865 91.50590501035458
121.608 91.50590501035458
123.377 91.5750917544922
125.171 91.61304769441423
126.992 91.60409175449222
128.839 91.66260194795234
130.713 91.54183030471974
132.615 91.6087388342261
134.543 91.50397240953765
136.5 91.37509175449222
138.486 91.36341634289607
140.5 91.30979706288741
142.544 91.13794728344095
144.617 90.96641634289608
146.721 90.89409611023098
148.855 90.75695537372296
151.02 90.64460269665796
153.217 90.52813515893327
155.445 90.4399654992872
157.706 90.30806996881104
160.0 90.1261992998375
162.327 89.95684940328829
164.688 89.80379920008615
167.084 89.67803339132803
169.514 89.62676472736767
171.98 89.47589482168397
174.481 89.29857056092074
177.019 89.08774037893133
179.594 88.82728370808216
182.206 88.71985559833148
184.856 88.66262984200189
187.545 88.53063058685481
190.273 88.4829916854577
193.041 88.47300316770387
195.849 88.31666981048556
198.697 88.19688846059688
201.587 88.06188846059688
204.52 88.00164441739102
207.494 87.95452777300028
210.512 87.92252777300028
213.574 87.8848411990665
216.681 87.863114703213
219.833 87.70282970284298
223.03 87.73182970284299
226.274 87.76282970284298
229.565 87.78182970284297
232.905 87.86482970284297
236.292 87.84814826109434
239.729 87.87116554307308
243.216 87.84682970284298
246.754 87.94082970284298
250.343 88.04640432733297
253.984 88.16785482301036
257.678 88.25963256681621
261.426 88.24500388541928
265.229 88.35344170833571
269.087 88.44270333615486
273.001 88.53152409311804
276.972 88.6416272448144
281.0 88.72316177641943
285.088 88.82953275081981
289.234 88.93648757821063
293.441 89.08367535998056
297.709 89.21775949706208
302.04 89.30152849662824
306.433 89.37239082232408
310.89 89.41990064744158
315.412 89.48337603866182
320.0 89.53563214103178
324.655 89.58019812790054
329.377 89.58119812790056
334.168 89.53237586070519
339.028 89.5086325668162
343.959 89.5086325668162
348.962 89.52130565504807
354.038 89.6086325668162
359.188 89.6086325668162
364.412 89.6086325668162
369.713 89.6086325668162
375.09 89.69021340861516
380.546 89.77178405424844
386.081 89.88037116917523
391.697 89.92985831555382
397.394 89.98446608922697
403.175 90.01645883085908
409.039 90.05955060193001
414.989 90.10348402411415
421.025 90.13201866805069
427.149 90.07718538866673
433.362 90.04141729554419
439.665 90.02079738688896
446.06 90.02079738688896
452.548 90.01351311220031
459.131 89.9654959974529
465.809 89.96094867563767
472.584 90.0109994417607
479.458 90.06751325528714
486.432 90.14299197100668
493.507 90.13688843350354
500.686 90.08939785137191
507.968 90.01821320233947
515.357 89.90088996830764
522.853 89.75031249922955
530.458 89.50738803852198
538.174 89.17090584950074
546.002 88.87316372379443
553.943 88.59314584689272
562.001 88.36536930681862
570.175 88.19513161947688
578.469 88.09387613939984
586.883 88.0498612503774
595.419 88.0367673428554
604.08 88.0367673428554
612.866 88.0367673428554
621.78 88.07003763147614
630.824 88.11479744091241
640.0 88.18061208533422
649.309 88.23874113185845
658.753 88.31640751000187
668.335 88.37677190772173
678.056 88.4576572401787
687.919 88.5170099943834
697.925 88.60099615201011
708.077 88.7290991724398
718.376 88.90809378616638
728.825 89.06763759175439
739.426 89.22427278972557
750.181 89.4032985238224
761.093 89.52467250192616
772.163 89.61661183038188
783.394 89.73652363502526
794.789 89.80543071169006
806.349 89.8854612947663
818.078 89.89079815677408
829.977 89.88847569892019
842.05 89.80145469068366
854.298 89.70590909383117
866.724 89.6071164774077
879.33 89.54162189388147
892.12 89.46510341167836
905.097 89.3196859198897
918.262 89.11999826951521
931.618 88.86675814147999
945.169 88.55473921449621
958.917 88.24600238560619
972.864 87.96477504680418
987.015 87.68990208648071
1001.37 87.35591133898969
1015.94 86.92363392208466
1030.71 86.430007785273
1045.71 85.93943901094228
1060.92 85.5377307808363
1076.35 85.23398259262419
1092.0 84.9854644000701
1107.89 84.7735782969828
1124.0 84.6771901475326
1140.35 84.70721375773911
1156.94 84.82760466200264
1173.77 84.90170989365514
1190.84 84.83719914504225
1208.16 84.63581808429748
1225.73 84.33309151810668
1243.56 83.99753117880854
1261.65 83.62512279422923
1280.0 83.15109539256997
1298.62 82.61640408928125
1317.51 82.10018776349739
1336.67 81.66466852669274
1356.11 81.2994179850557
1375.84 81.07328863499411
1395.85 80.94726755473005
1416.15 80.94793621782603
1436.75 81.02882595266959
1457.65 81.18269393384608
1478.85 81.46031917095672
1500.36 81.79189229710069
1522.19 82.06784667150627
1544.33 82.24981840364968
1566.79 82.44751964746266
1589.58 82.67016032132872
1612.7 82.81675719211567
1636.16 82.9372412523025
1659.95 83.07794344951375
1684.1 83.21824886186128
1708.6 83.3511528002293
1733.45 83.50712846667281
1758.66 83.76702577843128
1784.24 84.0768885412354
1810.19 84.40664502136948
1836.52 84.70828430193043
1863.24 84.99658125272995
1890.34 85.30775300980625
1917.83 85.66986889321981
1945.73 85.95505836290917
1974.03 86.13686679197818
2002.74 86.35520980354923
2031.87 86.50688585997476
2061.43 86.50067802627497
2091.41 86.46559624141071
2121.83 86.42793183399068
2152.69 86.36951221877172
2184.01 86.29417782775077
2215.77 86.25469376942343
2248.0 86.22292922033058
2280.7 86.09815200045985
2313.87 85.83225643382531
2347.53 85.46920943508538
2381.68 85.1956637866524
2416.32 85.03414203007384
2451.46 84.80057180161333
2487.12 84.53236282912033
2523.3 84.11028152836522
2560.0 83.6740008920923
2597.24 83.51990685266604
2635.01 83.39107203343453
2673.34 83.28102258070628
2712.23 83.11798382337435
2751.68 82.9391776797649
2791.7 82.86208519815261
2832.31 82.68961976527642
2873.5 82.46315809120999
2915.3 82.26094323407243
2957.7 82.1545820544282
3000.72 82.11393789286183
3044.37 81.84169392432776
3088.65 81.52206109644379
3133.58 81.25721422087105
3179.16 81.21491880806528
3225.4 81.163358840922
3272.31 81.00667201212991
3319.91 80.74453071107723
3368.2 80.66753487989618
3417.19 80.70123494482223
3466.89 80.80898191618007
3517.32 80.6369130824053
3568.48 80.41408770541761
3620.39 80.32172768067709
3673.05 80.30625561694444
3726.47 80.14053760479615
3780.67 79.83622540279559
3835.67 79.70584485762538
3891.46 79.78373223054821
3948.06 79.93310685826063
4005.49 80.00669977922684
4063.75 80.09545499735071
4122.86 80.2908380502875
4182.82 80.34223381161617
4243.66 80.27743753193428
4305.39 80.35411977969544
4368.01 80.45869226564434
4431.55 80.61214432642976
4496.01 80.82097536656312
4561.4 80.98518258109661
4627.75 81.01856781219288
4695.06 80.90996742944935
4763.35 80.84629388996296
4832.64 80.73650958168393
4902.93 80.65651887799835
4974.24 80.60629238627915
5046.6 80.56566287742548
5120.0 80.73646879274084
5194.47 80.9218613869945
5270.03 80.90642640441447
5346.68 80.87693514466336
5424.45 80.70047802029765
5503.35 80.51438867773402
5583.4 80.58760400605925
5664.61 80.71661936103845
5747.01 80.60743757009331
5830.6 80.40706426913113
5915.41 79.88929400655535
6001.45 79.36936771406498
6088.74 79.05928829503782
6177.3 78.71237857063235
6267.15 78.56130153499655
6358.31 78.36107053893592
6450.8 78.13747364983459
6544.62 77.99175932065133
6639.82 77.97978007627833
6736.4 78.19317398713572
6834.38 78.39292526729778
6933.79 78.52153240230638
7034.64 78.4879559227401
7136.96 78.43461422114869
7240.77 78.54607907779831
7346.09 78.59497349283832
7452.94 78.54931603862977
7561.35 78.42362623398023
7671.33 78.29897316196889
7782.91 78.27046533151501
7896.12 78.6052344077663
8010.97 78.63125152442313
8127.49 78.4998842723273
8245.71 78.50226161835019
8365.65 78.61167896552541
8487.33 78.48547288716625
8610.78 78.38586951130627
8736.03 78.08117493964204
8863.09 77.82205631853778
8992.01 78.09995720754722
9122.8 78.55763293641982
9255.5 78.8518436589084
9390.12 78.99692147120692
9526.7 79.35539394569899
9665.27 79.81707456666265
9805.86 80.24685434763543
9948.49 80.24510831149752
10093.2 80.06157562064823
10240.0 80.07354567828548
10388.9 80.29155530605931
10540.1 80.43200433729628
10693.4 80.49103270545254
10848.9 80.60046141201826
11006.7 80.54099106597
11166.8 80.18127913536966
11329.2 79.08316656297201
11494.0 78.82215464389127
11661.2 79.8596596132811
11830.8 80.57634743611257
12002.9 80.95470035510182
12177.5 81.21059138646551
12354.6 81.27279774642757
12534.3 80.83397548776038
12716.6 79.75436993993277
12901.6 78.60906437808002
13089.2 78.20922252805809
13279.6 78.44330283969185
13472.8 78.60211785542057
13668.8 78.60326444844937
13867.6 78.67899220593543
14069.3 78.98234575593185
14273.9 79.40379351855918
14481.5 79.58973787658124
14692.2 79.57085868459917
14905.9 79.73149169605784
15122.7 79.7527457900717
15342.7 79.61394824004637
15565.8 79.447308846937
15792.2 79.47134891095962
16021.9 79.90046373598496
16255.0 80.25767257675594
16491.4 80.75963380954087
16731.3 81.11848287303906
16974.7 80.988824912225
17221.6 80.67642635285938
17472.1 80.2463563417261
17726.2 79.48523105347242
17984.0 78.79018682071906
18245.6 78.42616827225115
18511.0 78.30950690917915
18780.2 78.16365988332689
19053.4 77.71977972392243
19330.5 76.84233182957283
19611.7 75.16864793853968
19897.0 73.7292292292526
