Freq "Side Wall Bounce"
20.0 55.00747915791118
20.2909 55.724505187274445
20.586 56.38426063612363
20.8855 57.09903293783182
21.1893 57.72082773960315
21.4975 58.3824507701419
21.8102 58.92126435522843
22.1274 59.412902683824285
22.4492 59.840803071834216
22.7758 60.387854697209065
23.1071 60.729747379816814
23.4432 61.3256533325025
23.7841 61.75342053979011
24.1301 62.28165599452859
24.4811 62.923784349051914
24.8372 63.408647201117816
25.1984 63.96567134519759
25.5649 64.4302727376313
25.9368 64.9311787009917
26.3141 65.56893184485628
26.6968 66.17509706833513
27.0851 66.75724416011761
27.4791 67.3175119065269
27.8788 67.86710403346515
28.2843 68.46710167155072
28.6957 69.02598158226047
29.1131 69.54858901211209
29.5365 70.09785346471463
29.9661 70.53377121472322
30.402 71.07807002165721
30.8442 71.58276628269219
31.2929 72.09285680234404
31.748 72.55777418749032
32.2098 73.00100437890099
32.6783 73.5676015266333
33.1536 74.0463913056142
33.6359 74.53155813477801
34.1251 75.06879866536322
34.6215 75.64365544304086
35.125 76.16604687877867
35.6359 76.70504541290558
36.1543 77.10440940528213
36.6802 77.51529547332134
37.2137 77.93858569203881
37.755 78.26357550544566
38.3041 78.79681012061529
38.8613 79.09977458995759
39.4265 79.4127521461717
40.0 79.73510541702427
40.5818 79.95224650674514
41.1721 80.24560493607265
41.771 80.52468864863461
42.3785 80.75432245897095
42.9949 80.996173079974
43.6203 81.14415751341666
44.2548 81.38200239161884
44.8985 81.65759542494531
45.5515 81.97886120229475
46.2141 82.22386120229476
46.8863 82.35733095003059
47.5683 82.58584312800656
48.2602 82.74235819299328
48.9621 82.92335819299328
49.6743 83.04266111620419
50.3968 83.09891986805674
51.1299 83.32430345531509
51.8736 83.48450520749384
52.6281 83.65728772772786
53.3936 83.83406840105734
54.1702 83.92360758515535
54.9581 84.11383750398707
55.7575 84.31683750398709
56.5685 84.57166177703613
57.3914 84.72226192676719
58.2261 84.77262638339693
59.073 84.96741836901705
59.9323 85.0904144245799
60.804 85.36803375693583
61.6884 85.37045091830058
62.5857 85.53228054097207
63.496 85.70097042565739
64.4196 85.89279311754517
65.3566 86.02130982327087
66.3073 86.2487408412668
67.2717 86.26496729845243
68.2502 86.57430179033238
69.2429 86.68556637376389
70.2501 86.85877096732901
71.2719 87.04651509655896
72.3086 87.24382236907655
73.3603 87.48806095050924
74.4274 87.71955237616945
75.5099 87.884859001089
76.6083 88.02379790972797
77.7226 88.22775982190927
78.8531 88.45606095050924
80.0 88.64700391129892
81.1636 88.83019063983707
82.3442 89.04108789742975
83.5419 89.19715917118943
84.757 89.37309082266559
85.9899 89.65754530415472
87.2406 89.85515802476284
88.5096 90.05228792258826
89.797 90.25723453008948
91.1031 90.61115239281031
92.4282 90.85045091830058
93.7726 91.07045091830058
95.1366 91.25258075256716
96.5204 91.41258075256715
97.9243 91.55258075256717
99.3486 91.7060460325402
100.794 91.70377657581352
102.26 91.65933127270245
103.747 91.64104516429269
105.256 91.82316370509628
106.787 91.88504603254022
108.34 92.07829120393772
109.916 92.1932300741517
111.515 92.3580890444208
113.137 92.47680691782405
114.783 92.39800424161885
116.452 92.41200424161886
118.146 92.45708222229074
119.865 92.3722851745621
121.608 92.33608832736384
123.377 92.40088196088307
125.171 92.45941494527216
126.992 92.43234881891418
128.839 92.5058258439796
130.713 92.3657035619288
132.615 92.41862161705718
134.543 92.32405425737437
136.5 92.19279344266174
138.486 92.18211065513977
140.5 92.11924491680534
142.544 91.9341729779485
144.617 91.76285846598095
146.721 91.67607942074699
148.855 91.50894349522112
151.02 91.38994478642985
153.217 91.26441553694389
155.445 91.161662544173
157.706 91.00415714289737
160.0 90.80651850567159
162.327 90.62405139967836
164.688 90.447309786624
167.084 90.31649211124282
169.514 90.25859388850121
171.98 90.09811309211493
174.481 89.92262926176444
177.019 89.70899044330233
179.594 89.42890309266937
182.206 89.32592386116627
184.856 89.27636136743388
187.545 89.18447551976506
190.273 89.10847551976507
193.041 89.09797565541999
195.849 88.93670548707092
198.697 88.80920342916676
201.587 88.68147551976506
204.52 88.63174312170165
207.494 88.56829775748156
210.512 88.55346635065145
213.574 88.47841722476497
216.681 88.4453553019743
219.833 88.2960193241392
223.03 88.29639127774276
226.274 88.31826200998032
229.565 88.29287300510519
232.905 88.3433349978592
236.292 88.32917903013828
239.729 88.33906812013879
243.216 88.3472789540631
246.754 88.44251283116296
250.343 88.58352370114525
253.984 88.68994828432523
257.678 88.79327298047423
261.426 88.81964306277578
265.229 88.9333947321323
269.087 89.04547072018715
273.001 89.1421622816088
276.972 89.26051957973483
281.0 89.3373677180382
285.088 89.42957735694438
289.234 89.52145676989218
293.441 89.6402011449897
297.709 89.7488012986762
302.04 89.7948837863221
306.433 89.83365516914407
310.89 89.86707162020002
315.412 89.88007162020001
320.0 89.89237837671969
324.655 89.91641781851754
329.377 89.89999105245249
334.168 89.88070133062232
339.028 89.86655247944009
343.959 89.85949566921504
348.962 89.90840716219755
354.038 89.93054798992651
359.188 89.93456464033163
364.412 89.97434804047096
369.713 89.98453908921768
375.09 89.99728771941597
380.546 90.06921594958675
386.081 90.09570621916976
391.697 90.09570621916976
397.394 90.08688770048407
403.175 90.06723066208805
409.039 90.04449650765284
414.989 90.06429570340956
421.025 90.06739741320307
427.149 90.0262453687917
433.362 89.97172881225843
439.665 89.95135560639801
446.06 89.95135560639801
452.548 89.94341541396308
459.131 89.8825806320721
465.809 89.83852426806845
472.584 89.77955164305426
479.458 89.73490536873723
486.432 89.65939326139522
493.507 89.53100288802099
500.686 89.38297729212002
507.968 89.18729585909993
515.357 88.988800354245
522.853 88.79590050780945
530.458 88.52308707010016
538.174 88.17231615751376
546.002 87.83353288049827
553.943 87.47704804818886
562.001 87.10059902940225
570.175 86.71169276955243
578.469 86.34235824886986
586.883 86.02376383334281
595.419 85.78497963735967
604.08 85.64657360949329
612.866 85.58302434031225
621.78 85.57604226199165
630.824 85.54594959568725
640.0 85.4806845372461
649.309 85.37435450281014
658.753 85.22704127799938
668.335 85.0762533894812
678.056 84.96435752638635
687.919 84.98391880736128
697.925 85.08215294097499
708.077 85.26810311144538
718.376 85.47935795976505
728.825 85.6067840880917
739.426 85.6944094584833
750.181 85.8036944170616
761.093 85.88483543735552
772.163 85.9958134519703
783.394 86.16904473829652
794.789 86.33150867438889
806.349 86.44993925579136
818.078 86.58746414109011
829.977 86.73565331090418
842.05 86.90114706262094
854.298 87.04695461640956
866.724 87.09427964846881
879.33 87.0664494935211
892.12 86.91917554606964
905.097 86.72313557421327
918.262 86.59897290297201
931.618 86.63975913089234
945.169 86.65195102507352
958.917 86.60623731659774
972.864 86.42564677875365
987.015 86.16763952426324
1001.37 85.93203871730933
1015.94 85.78411401046002
1030.71 85.6872798761109
1045.71 85.60111539575738
1060.92 85.49460239241819
1076.35 85.46765873871118
1092.0 85.534898780694
1107.89 85.70152243114286
1124.0 85.88027576963597
1140.35 86.11663272300395
1156.94 86.47362458399851
1173.77 86.91487989377117
1190.84 87.2994666439647
1208.16 87.51433851077458
1225.73 87.5624172357564
1243.56 87.61081712795239
1261.65 87.82166094120917
1280.0 88.11569805885154
1298.62 88.3767774202468
1317.51 88.54017329079858
1336.67 88.56935689291839
1356.11 88.5305268853806
1375.84 88.41796756647717
1395.85 88.30820061348649
1416.15 88.22457734706123
1436.75 88.07542191262705
1457.65 87.83827401205512
1478.85 87.534767723683
1500.36 87.24063020802723
1522.19 86.92254592255154
1544.33 86.52660817461529
1566.79 86.11940909149033
1589.58 85.76624661905021
1612.7 85.4363952135342
1636.16 85.14779815238856
1659.95 84.91635552906394
1684.1 84.7759172470337
1708.6 84.75372924327151
1733.45 84.79773877057117
1758.66 84.94193797484134
1784.24 85.10829102668413
1810.19 85.25138779221184
1836.52 85.29046734097561
1863.24 85.37511211338368
1890.34 85.47103375686504
1917.83 85.41889059994877
1945.73 85.3166091154948
1974.03 85.21155466125927
2002.74 85.08884967207518
2031.87 84.93622163022621
2061.43 84.85035199747585
2091.41 84.8141884244213
2121.83 84.73880396447223
2152.69 84.74161156561847
2184.01 84.82721926253744
2215.77 84.81940382315769
2248.0 84.82765552958581
2280.7 84.73976966431633
2313.87 84.59535121322952
2347.53 84.41550300955521
2381.68 84.19009576259404
2416.32 84.0013889284067
2451.46 83.82202381212062
2487.12 83.58329433249985
2523.3 83.35253119854539
2560.0 83.0570964152482
2597.24 82.83177843216015
2635.01 82.59634930591899
2673.34 82.3928749938809
2712.23 82.30358811052845
2751.68 82.21063898728183
2791.7 82.1218641699444
2832.31 81.94358106906027
2873.5 81.76502095820602
2915.3 81.69301844792957
2957.7 81.7696623438535
3000.72 81.8255847386142
3044.37 81.70054383485292
3088.65 81.55665858149862
3133.58 81.513032071378
3179.16 81.62366037079332
3225.4 81.62570097152476
3272.31 81.53053485283351
3319.91 81.43769732760084
3368.2 81.38166269394978
3417.19 81.41173227182176
3466.89 81.3855058179984
3517.32 81.21428170392069
3568.48 80.97591612149017
3620.39 80.94045400092908
3673.05 81.04570609568464
3726.47 81.04888048543252
3780.67 80.90235572010896
3835.67 80.9537611337344
3891.46 81.16427964479603
3948.06 81.24870500317712
4005.49 81.258981749098
4063.75 81.48495309369358
4122.86 81.68750788263058
4182.82 81.82287458691864
4243.66 82.03279326560937
4305.39 82.19774394285471
4368.01 82.255683612853
4431.55 82.30983771425801
4496.01 82.29437816475496
4561.4 82.24942990138547
4627.75 82.27645566169187
4695.06 82.29142195727268
4763.35 82.19391765247819
4832.64 82.20602726350933
4902.93 82.41198233706852
4974.24 82.55331318339938
5046.6 82.72680198145832
5120.0 82.81942324512919
5194.47 82.81678306210019
5270.03 82.75929608187262
5346.68 82.76004007868013
5424.45 82.68793094561036
5503.35 82.48831200166178
5583.4 82.47300482358364
5664.61 82.34341507763084
5747.01 82.19093024609376
5830.6 82.05283936913906
5915.41 81.81992513645778
6001.45 81.63545037096452
6088.74 81.47695805234048
6177.3 81.26610747247898
6267.15 81.11374300574494
6358.31 81.10270107965495
6450.8 81.00359415017212
6544.62 81.10284739586473
6639.82 81.131312588642
6736.4 81.24027927720567
6834.38 81.2475221217822
6933.79 81.27956413176113
7034.64 81.32535633192899
7136.96 81.29465178204303
7240.77 81.30117643346755
7346.09 81.28256896897798
7452.94 81.36536344256406
7561.35 81.39877981821587
7671.33 81.43897763158017
7782.91 81.47712425375911
7896.12 81.53488357422435
8010.97 81.55576662116094
8127.49 81.67458083909742
8245.71 81.79910849793342
8365.65 81.87019191284512
8487.33 81.86742297947906
8610.78 81.89932878501556
8736.03 81.89457561077802
8863.09 82.0453070842735
8992.01 82.26433283593386
9122.8 82.49058296300629
9255.5 82.66452090224735
9390.12 82.72764362067412
9526.7 82.83769656689633
9665.27 82.91291584742663
9805.86 82.9881334927809
9948.49 82.95131353125976
10093.2 82.85511529617759
10240.0 82.78916967257139
10388.9 82.83047150762852
10540.1 82.99715978341095
10693.4 83.15994908337414
10848.9 83.24534046821894
11006.7 83.21252624588763
11166.8 83.04730204319965
11329.2 82.10819748447761
11494.0 81.55581355270243
11661.2 82.56224500174247
11830.8 83.0851559982487
12002.9 83.11068763977819
12177.5 82.9753906258118
12354.6 82.76109205464742
12534.3 82.43265024164103
12716.6 81.59571765168643
12901.6 80.54175216514656
13089.2 80.29055989685743
13279.6 80.7018082409994
13472.8 81.14061748176195
13668.8 81.40888261805662
13867.6 81.35120133090123
14069.3 81.07115655053475
14273.9 80.65693124068267
14481.5 79.98276853549797
14692.2 79.20428368129284
14905.9 78.89065365094878
15122.7 79.01546342587406
15342.7 78.93360869595247
15565.8 78.72121899246432
15792.2 78.48356839550848
16021.9 78.2817784108583
16255.0 78.06588567021547
16491.4 77.86078226972327
16731.3 77.89567716907564
16974.7 77.69468219083853
17221.6 77.08562670485888
17472.1 76.35423097245547
17726.2 75.35694991542391
17984.0 74.68312384327976
18245.6 75.3077479133297
18511.0 76.17309288266974
18780.2 76.94729260563463
19053.4 77.51602098689222
19330.5 77.46383239290314
19611.7 76.76050327241515
19897.0 75.68989063536824
