Freq "Listening Window"
22.4 15.727389880654798
23.0 17.25831606697234
23.6 18.54243557617177
24.0 21.371416428514593
25.0 24.295952696659484
25.8 27.311190770615795
26.5 29.76753461453073
27.2 29.725716564157338
28.0 30.639339845664338
29.0 32.69474023015
30.0 34.97639633973289
30.7 34.88804090953862
31.5 36.08726737087791
32.5 37.68413841618859
33.5 40.038165336606355
34.5 42.30990159680506
35.5 44.396735765679736
36.5 46.03965806570851
37.5 47.387471618661536
38.7 48.66059772393679
40.0 50.12209465941156
41.2 51.80835754339809
42.5 53.5176175644783
43.7 55.43225778802356
45.0 57.56264692829252
46.2 58.86768934561613
47.5 60.0356206840857
48.7 61.24675460676936
50.0 62.66948200046485
51.5 64.10102329580307
53.0 65.3784901971291
54.5 66.63358982687997
56.0 68.02242205920518
58.0 69.26743744105683
60.0 70.29055260963752
61.5 71.04472895057721
63.0 71.71199101325602
65.0 72.42267658830113
67.0 72.92419779300913
69.0 73.35837672536981
71.0 73.73435732133558
73.0 73.90328449402553
75.0 74.03762776013771
77.5 74.11377695707036
80.0 74.28127710423244
82.5 74.3699738260637
85.0 74.50328449402552
87.5 74.62419779300915
90.0 74.75837672536981
92.5 75.03409756292211
95.0 75.2454944791988
97.5 75.42293110248065
100.0 75.6015232095018
103.0 75.61476245148909
106.0 75.64037254002032
109.0 75.68703592431402
112.0 75.79531834297536
115.0 75.90328449402553
118.0 76.15634471847234
122.0 76.22419779300913
125.0 76.07222859343949
128.0 76.04411425454224
132.0 76.0673535614441
136.0 76.0262514278532
140.0 76.00279053944192
145.0 75.98362699442416
150.0 75.99073766770672
155.0 76.02869601737451
160.0 76.09177612109562
165.0 76.08050017092458
170.0 75.90578351092603
175.0 75.6262514278532
180.0 75.44312061170451
185.0 75.54985729134677
190.0 75.51453682579611
195.0 75.43090076176759
200.0 75.3245676890087
206.0 75.17960373444528
212.0 75.16691433622724
218.0 75.28848397296757
224.0 75.33090076176758
230.0 75.4596573775646
236.0 75.47892674764837
240.0 75.39073766770672
250.0 75.34776151318478
258.0 75.33610486644204
265.0 75.31426358071855
272.0 75.35265874565063
280.0 75.34873121771166
290.0 75.46663164321835
300.0 75.49139987003264
307.0 75.44823003611104
315.0 75.71149055575546
325.0 75.84793951085678
335.0 75.90592515901442
345.0 75.80187562365971
355.0 75.68709934334696
365.0 75.77147260831013
375.0 75.82513908231583
387.0 76.00442185135391
400.0 75.95995909400564
412.0 75.7736767855623
425.0 75.41755670566171
437.0 75.15685721294182
450.0 75.26717942115835
462.0 75.38742741431004
475.0 75.53178007075303
487.0 75.53394854334472
500.0 75.70941605175368
515.0 76.10151254359708
530.0 76.59021552069451
545.0 76.48225322047253
560.0 76.12098132782891
580.0 75.69870655357111
600.0 75.35711272925325
615.0 74.80865999163457
630.0 74.3587276047606
650.0 74.27714833314134
670.0 74.01783208856249
690.0 74.12244024319229
710.0 74.51336014147854
730.0 75.53288686803111
750.0 76.65363758177976
775.0 76.35712531835948
800.0 75.68261108732814
825.0 76.3190958771222
850.0 76.92178982081013
875.0 76.75791355577333
900.0 76.70639847752558
925.0 76.7198711399969
950.0 76.93281695274736
975.0 76.94735178779536
1000.0 77.20694085681568
1030.0 77.28382925850835
1060.0 77.11398205653576
1090.0 76.72506072596097
1120.0 76.58722516335843
1150.0 76.49774358482607
1180.0 76.41483531868829
1220.0 76.56202928596865
1250.0 76.65140571444452
1280.0 76.53960212957202
1320.0 76.58437975794185
1360.0 77.14931250018152
1400.0 77.30140468492262
1450.0 77.5984758656498
1500.0 77.53804166327988
1550.0 77.46719443109721
1600.0 77.16588683622568
1650.0 77.29827685635556
1700.0 77.62424519048656
1750.0 78.49873962602366
1800.0 78.73437686824589
1850.0 79.08125995687001
1900.0 78.9529948206578
1950.0 78.87095148337865
2000.0 78.32387531906988
2060.0 78.19292929074717
2120.0 77.93176255558329
2180.0 77.77658613364464
2240.0 77.96946414589887
2300.0 78.2811376872253
2360.0 78.47407448891467
2400.0 78.51489034418645
2500.0 77.98083686145586
2580.0 78.00017093295466
2650.0 78.67811645296958
2720.0 78.89460361941899
2800.0 78.97360952858232
2900.0 79.56198569368924
3000.0 79.64344639906939
3070.0 79.27329718133616
3150.0 78.90784744979756
3250.0 78.52589345886655
3350.0 78.33806407487505
3450.0 78.54701335821771
3550.0 79.19380683885163
3650.0 79.67797445470559
3750.0 79.83413597258391
3870.0 79.67083941192726
4000.0 79.22621859441176
4120.0 78.94170749682758
4250.0 78.44096128361157
4370.0 78.0356696066947
4500.0 78.19266997601353
4620.0 78.65940895782123
4750.0 78.43078756890883
4870.0 78.16584964341072
5000.0 79.0480285339044
5150.0 79.80580461791999
5300.0 79.52527175047845
5450.0 79.04493350555335
5600.0 79.13839159708296
5800.0 79.97152981595163
6000.0 80.08511920342151
6150.0 80.14978213914827
6300.0 80.66932255972188
6500.0 80.88279270995898
6700.0 79.92224885604713
6900.0 80.1517299603069
7100.0 79.80494845719257
7300.0 79.323903179776
7500.0 79.79709368748402
7750.0 79.22403009002439
8000.0 79.71440195001456
8250.0 79.34449723322328
8500.0 78.96319459707708
8750.0 77.83688182468573
9000.0 78.94919070650617
9250.0 79.21889967562579
9500.0 79.0662901185069
9750.0 78.02828429558006
10000.0 77.64037371193572
10300.0 76.85466615085097
10600.0 77.17639387602217
10900.0 77.31618805612882
11200.0 78.91944252162831
11500.0 78.64199754826578
11800.0 77.60702087316308
12200.0 77.81765297587661
12500.0 76.91076778899365
12800.0 76.35035228607374
13200.0 75.9972340210502
13600.0 76.40433584675574
14000.0 77.07597303714424
14500.0 78.3340059077995
15000.0 79.31987884133162
15500.0 79.03235499008058
16000.0 76.19783303488857
16500.0 69.88099495125353
17000.0 75.33177132571565
17500.0 75.13076111230872
18000.0 70.79217973262911
18500.0 69.17962511410134
19000.0 66.37918564299198
19500.0 59.730649320028846
