Freq "Ceiling Bounce"
22.4 74.40306957104252
23.0 75.03513059177985
23.6 75.53513059177983
24.0 75.87001488257476
25.0 76.07001488257477
25.8 76.20306957104252
26.5 76.33513059177983
27.2 76.40306957104252
28.0 76.53513059177982
29.0 76.63513059177983
30.0 76.73513059177982
30.7 76.90306957104252
31.5 77.03513059177983
32.5 77.20306957104252
33.5 77.33513059177983
34.5 77.43513059177982
35.5 77.63513059177981
36.5 77.80306957104253
37.5 77.93513059177982
38.7 78.03513059177983
40.0 78.20306957104253
41.2 78.26845083805433
42.5 78.33513059177983
43.7 78.43513059177982
45.0 78.50076749445562
46.2 78.53513059177983
47.5 78.56845083805433
48.7 78.60076749445562
50.0 78.60076749445562
51.5 78.60076749445562
53.0 78.60076749445562
54.5 78.60076749445562
56.0 78.60076749445562
58.0 78.53358982687998
60.0 78.50076749445562
61.5 78.40076749445562
63.0 78.30076749445563
65.0 78.2007674944556
67.0 78.13358982687998
69.0 78.10076749445561
71.0 78.00076749445562
73.0 77.90076749445561
75.0 77.70076749445562
77.5 77.60076749445562
80.0 77.40076749445562
82.5 77.16769521305294
85.0 76.90076749445562
87.5 76.66769521305294
90.0 76.63513059177983
92.5 76.73513059177982
95.0 76.60076749445562
97.5 76.33513059177983
100.0 76.33513059177983
103.0 76.57001488257477
106.0 76.60306957104251
109.0 76.70306957104253
112.0 76.97001488257476
115.0 77.27001488257477
118.0 77.83821129888742
122.0 78.33821129888743
125.0 78.37387961222817
128.0 78.07387961222818
132.0 77.97928732607431
136.0 77.74898514879551
140.0 77.18623512455237
145.0 76.59471929119204
150.0 76.06588846059688
155.0 75.74413052381576
160.0 75.71627783177746
165.0 75.88888547155004
170.0 75.98888547155003
175.0 76.06194867563767
180.0 76.1026545034034
185.0 76.2026545034034
190.0 76.27641629732152
195.0 76.3026545034034
200.0 76.36194867563765
206.0 76.36194867563765
212.0 76.36194867563765
218.0 76.26194867563765
224.0 76.16194867563766
230.0 75.98888547155003
236.0 75.72179738688897
240.0 75.3950645803583
250.0 75.13546263134683
258.0 74.79506458035829
265.0 74.53546263134682
272.0 74.16194867563766
280.0 73.63546263134683
290.0 73.1179278976485
300.0 72.86726558859611
307.0 72.62875610128314
315.0 72.14915203998831
325.0 71.8165581917717
335.0 71.71904449785342
345.0 71.64520516099383
355.0 71.68444762363008
365.0 71.6137899675559
375.0 71.36322504785602
387.0 71.26322504785603
400.0 71.31323574403132
412.0 71.2765534603207
425.0 70.97915446671192
437.0 70.66174268592246
450.0 70.48067853625088
462.0 70.4022520696168
475.0 70.24132986207627
487.0 69.87979693268613
500.0 69.4968278604702
515.0 69.14240010667203
530.0 68.88912251720924
545.0 68.68912251720924
560.0 68.37324980289029
580.0 67.87324980289027
600.0 67.20874768185138
615.0 66.54047078004993
630.0 65.76895445958874
650.0 64.50322505318123
670.0 62.95239591454215
690.0 61.50098799150672
710.0 60.02387236650287
730.0 58.74526939363821
750.0 57.62812833708284
775.0 56.662380649082095
800.0 56.15714739194284
825.0 56.37404084094025
850.0 57.00358107624021
875.0 57.61832676913882
900.0 58.23471536013372
925.0 58.824297365915186
950.0 59.578448060176896
975.0 60.49727311966744
1000.0 61.24560866680687
1030.0 61.89524349537456
1060.0 62.49136661059636
1090.0 62.84845957033629
1120.0 62.87925431413838
1150.0 62.81143475077573
1180.0 62.61626920432785
1220.0 62.40124049713951
1250.0 62.087545109082825
1280.0 61.705786730306954
1320.0 61.24598386899062
1360.0 60.72804554647168
1400.0 59.94881712388168
1450.0 59.95638499396901
1500.0 60.92933043421358
1550.0 62.16180438676477
1600.0 63.56798799488067
1650.0 64.37029338469411
1700.0 64.69021601855896
1750.0 64.67680973966777
1800.0 64.59252429369754
1850.0 64.63821818682473
1900.0 64.28628068200821
1950.0 63.395429389494666
2000.0 61.75559131900752
2060.0 59.42910553192044
2120.0 57.60330865559989
2180.0 56.904170769156494
2240.0 57.08418563826554
2300.0 57.69707547692545
2360.0 58.20234601905355
2400.0 58.061985834381275
2500.0 58.12849859174318
2580.0 58.661667350144256
2650.0 59.263867023784826
2720.0 60.01954103557674
2800.0 60.76054053153601
2900.0 61.458640684878844
3000.0 62.136395596083844
3070.0 62.86493035341094
3150.0 63.52081469862047
3250.0 63.922511524461626
3350.0 64.29682052497529
3450.0 64.56886866580106
3550.0 64.58595472381026
3650.0 64.13393693312071
3750.0 63.27950567378123
3870.0 62.362088567472384
4000.0 61.796812735527354
4120.0 61.52067914588751
4250.0 61.58633240679168
4370.0 61.58382334167595
4500.0 61.36023818113064
4620.0 61.07387961222818
4750.0 61.104645023185356
4870.0 61.35334575272603
5000.0 61.92964495355564
5150.0 62.007853195253404
5300.0 61.40162083231601
5450.0 60.81003436195218
5600.0 60.62178921669374
5800.0 60.58836433477438
6000.0 60.635862720614185
6150.0 60.58626273845486
6300.0 60.299135369514374
6500.0 59.630497514015985
6700.0 58.83696012594369
6900.0 58.157401677866005
7100.0 58.019170982168575
7300.0 58.26945997979283
7500.0 58.28463644517318
7750.0 58.13860833769854
8000.0 58.11480822421639
8250.0 58.2946425189142
8500.0 58.43315001615308
8750.0 58.884739658397365
9000.0 58.95563638500026
9250.0 58.86739147265058
9500.0 58.87610294583499
9750.0 58.90252973822757
10000.0 58.99124872640114
10300.0 58.714983820114696
10600.0 58.06615422006834
10900.0 57.734715360133734
11200.0 57.68656646311247
11500.0 57.64576719438469
11800.0 57.08910480561006
12200.0 56.443317506778556
12500.0 56.56407948744143
12800.0 56.992837812315884
13200.0 57.083683256695295
13600.0 57.10605539942799
14000.0 56.74866444740307
14500.0 55.95706508841212
15000.0 55.58246431273287
15500.0 55.41051628652306
16000.0 54.25681158542005
16500.0 52.752976291648
17000.0 51.71322397933474
17500.0 50.155239113439166
18000.0 48.794028562637806
18500.0 47.090329509670624
19000.0 43.43262046823483
19500.0 40.31873121934558
