Freq,On Axis,Listening Window,Sound Power,Early Reflections,Early Reflections DI,Sound Power DI,DI offset
20.0,43.99900000000001,44.10146368921987,45.56492156477235,44.89510212238598,39.20636156683389,38.53654212444752,40
20.2909,45.03099999999999,45.13414462290656,46.5768765594063,45.915706489757994,39.21843813314857,38.55726806350026,40
20.586,45.94100000000002,46.026525099421676,47.451619773528265,46.79479675721079,39.231728342210886,38.57490532589341,40
20.8855,46.67100000000001,46.740941700473186,48.14247055721232,47.49370172642857,39.24723997404462,38.598471143260866,40
21.1893,47.201999999999984,47.327470077393784,48.71877795870485,48.066261466179284,39.2612086112145,38.608692118688936,40
21.4975,47.69500000000001,47.79877189958269,49.17625253481792,48.53972916636734,39.25904273321535,38.62251936476477,40
21.8102,48.09599999999999,48.18652899113583,49.55097804046757,48.92463023800467,39.26189875313116,38.63555095066826,40
22.1274,48.65400000000001,48.73499307817663,50.08038126884195,49.46035397739122,39.27463910078541,38.65461180933468,40
22.4492,49.29799999999999,49.36594123556499,50.6792309479615,50.06562177737145,39.30031945819354,38.68671028760349,40
22.7758,49.95100000000001,50.03161861897398,51.31235661703984,50.704113120827415,39.327505498146564,38.71926200193414,40
23.1071,50.61399999999999,50.744463647215966,52.02767532240672,51.43294698487979,39.311516662336174,38.716788324809244,40
23.4432,51.28599999999999,51.377053729994984,52.6628232311903,52.0720049490577,39.305048780937284,38.71423049880468,40
23.7841,51.95399999999999,52.04505372999499,53.28874822567768,52.717826584313414,39.327227145681576,38.75630550431731,40
24.1301,52.55999999999999,52.651053729994985,53.8611921459386,53.30145144720943,39.349602282785554,38.78986158405638,40
24.4811,53.26100000000001,53.35205372999498,54.52866393545243,53.97196676608216,39.38008696391282,38.82338979454255,40
24.8372,53.974000000000004,54.06505372999497,55.19729944620151,54.654463471195086,39.410590258799886,38.86775428379346,40
25.1984,54.617000000000004,54.74350199003753,55.89011472061746,55.34895527254177,39.39454671749576,38.85338726942007,40
25.5649,55.229,55.34654850035473,56.48533991420037,55.95649138245072,39.39005711790401,38.86120858615436,40
25.9368,55.89800000000001,55.99306843998066,57.11943218718126,56.60466776262716,39.3884006773535,38.8736362527994,40
26.3141,56.501999999999995,56.59305372999496,57.68459666014472,57.18585025521669,39.40720347477827,38.90845706985024,40
26.6968,57.11399999999999,57.20505372999496,58.26967649054218,57.7680766737232,39.43697705627176,38.93537723945278,40
27.0851,57.736000000000004,57.82705372999497,58.84899997362403,58.37397450537917,39.453079224615806,38.97805375637094,40
27.4791,58.366,58.45616332694429,59.44408671097621,58.97709617252879,39.4790671544155,39.012076615968084,40
27.8788,59.00500000000001,59.073984116844755,60.05002954797105,59.59319494515928,39.48078917168547,39.023954568873705,40
28.2843,59.754000000000005,59.82298411684478,60.76351409966655,60.320181880862364,39.502802235982415,39.05947001717823,40
28.6957,60.33399999999999,60.40298411684476,61.311656265764995,60.87956598101782,39.523418135826944,39.09132785107977,40
29.1131,60.93499999999999,61.00398411684476,61.87677972797265,61.46216348589364,39.54182063095112,39.127204388872116,40
29.5365,61.54299999999999,61.611984116844766,62.444194690519666,62.04109549934445,39.570888617500316,39.1677894263251,40
29.9661,61.971999999999994,62.114984092086715,62.925587641151296,62.53358254345581,39.58140154863091,39.18939645093542,40
30.402,62.58200000000001,62.740159568412324,63.51882392174973,63.14582092189322,39.594338646519105,39.221335646662595,40
30.8442,63.11200000000001,63.26545489060037,64.0136418194496,63.65218376414255,39.61327112645782,39.251813071150764,40
31.2929,63.650999999999996,63.787925049956144,64.52128492421353,64.1695162854247,39.61840876453144,39.26664012574261,40
31.748,64.19699999999999,64.33392504995616,65.02918862405234,64.6963167780141,39.63760827194207,39.304736425903826,40
32.2098,64.85099999999998,64.96695385420928,65.65244974175431,65.32877185788747,39.638181996321805,39.31450411245497,40
32.6783,65.413,65.50562784437416,66.17803140157204,65.86667672280348,39.638951121570685,39.32759644280212,40
33.1536,66.045,66.13762784437415,66.77183767581836,66.47250466239653,39.66512318197762,39.36579016855579,40
33.6359,66.717,66.80962784437416,67.41368367335805,67.13040929107184,39.67921855330232,39.39594417101611,40
34.1251,67.449,67.54162784437416,68.10155657407286,67.83518771952363,39.70644012485053,39.4400712703013,40
34.6215,68.145,68.23762784437416,68.76994007929362,68.51485614985059,39.72277169452357,39.46768776508054,40
35.125,68.749,68.84162784437414,69.33578097992279,69.09489205589159,39.74673578848255,39.50584686445136,40
35.6359,69.417,69.48598411684476,69.95716753352583,69.7388402103981,39.74714390644667,39.52881658331893,40
36.1543,70.084,70.15298411684476,70.59530192837458,70.3849547620437,39.76802935480106,39.55768218847018,40
36.6802,70.643,70.71198411684476,71.1195320097582,70.92642135704266,39.785562759802104,39.59245210708656,40
37.2137,71.25599999999999,71.37935472161521,71.75425637697816,71.5733443384836,39.80601038313162,39.62509834463705,40
37.755,71.803,71.95896887725478,72.29223032303813,72.13383916176693,39.82512971548785,39.66673855421665,40
38.3041,72.264,72.40042919500898,72.71958475691177,72.56710703427363,39.83332216073535,39.68084443809721,40
38.8613,72.833,72.96942919500898,73.2507542797497,73.11796499081386,39.851464204195125,39.718674915259285,40
39.4265,73.34,73.46163360627737,73.72269453380169,73.60901031827363,39.85262328800374,39.73893907247569,40
40.0,73.79899999999999,73.9026570862321,74.13674221739869,74.02361612055981,39.87904096567229,39.765914868833406,40
40.5818,74.365,74.43398411684475,74.64254676265152,74.54223519292827,39.89174892391648,39.791437354193235,40
41.1721,74.90600000000002,74.97498411684477,75.15695096959378,75.07373240681096,39.901251710033804,39.818033147250986,40
41.771,75.516,75.65242919500899,75.82180263977483,75.75580931627263,39.89661987873636,39.83062655523416,40
42.3785,76.10199999999999,76.23842919500898,76.35726056270393,76.31234567455996,39.92608352044901,39.88116863230505,40
42.9949,76.793,76.88355260963752,76.9952154019104,76.95147658841,39.932076021227516,39.88833720772712,40
43.6203,77.395,77.48316097627705,77.55020908241895,77.52863049098727,39.95453048528978,39.9329518938581,40
44.2548,78.003,78.12860403929474,78.19062731848949,78.16844251967393,39.96016151962081,39.93797672080525,40
44.8985,78.618,78.74033618595688,78.76386257238097,78.76759297815302,39.97274320780386,39.976473613575905,40
45.5515,79.14,79.23055260963753,79.24114421460233,79.24927137111075,39.981281238526776,39.9894083950352,40
46.2141,79.67,79.76968219723709,79.72145302401763,79.74959668181177,40.02008551542532,40.048229173219454,40
46.8863,80.15400000000001,80.26611682414769,80.23502088215427,80.27789523640611,39.98822158774158,40.031095941993414,40
47.5683,80.654,80.74455260963751,80.67751566010219,80.71734517440667,40.027207435230835,40.06703694953532,40
48.2602,81.20300000000002,81.31104534534755,81.25074954885939,81.3110189800135,40.00002636533405,40.06029579648816,40
48.9621,81.58400000000002,81.68125175410022,81.57377262804334,81.64310086741914,40.03815088668108,40.10747912605687,40
49.6743,82.069,82.20176926505812,82.05866536344105,82.13922889420982,40.062540370848296,40.14310390161707,40
50.3968,82.51700000000001,82.61604426881873,82.4721513648682,82.56163436291493,40.054409905903796,40.14389290395053,40
51.1299,83.003,83.11218662513473,82.94319739068642,83.04067502194027,40.07151160319445,40.168989234448304,40
51.8736,83.448,83.53855260963752,83.356888139657,83.46238276326976,40.07616984636776,40.18166446998052,40
52.6281,83.902,84.02760493803073,83.83259125455947,83.95292141673434,40.07468352129639,40.19501368347126,40
53.3936,84.356,84.42802777820478,84.20579727339829,84.33341066802998,40.094617110174795,40.22223050480649,40
54.1702,84.667,84.73981348691528,84.52394729897462,84.65391711396508,40.0858963729502,40.21586618794066,40
54.9581,85.082,85.21213409860404,84.96009019071363,85.09798838926639,40.11414570933765,40.25204390789041,40
55.7575,85.302,85.38692145920567,85.11555380179193,85.27035138008019,40.11657007912548,40.271367657413734,40
56.5685,85.626,85.73621205433386,85.46390573363655,85.61991949364814,40.11629256068572,40.27230632069731,40
57.3914,85.756,85.82343744105683,85.54536868072765,85.70213663595942,40.121300805097405,40.27806876032918,40
58.2261,85.98900000000002,86.05709895789664,85.77862293658097,85.95147896399043,40.10561999390622,40.27847602131567,40
59.073,86.199,86.28162848524366,85.97566952731835,86.15355298936349,40.12807549588017,40.30595895792531,40
59.9323,86.372,86.46195791341552,86.13586596433196,86.31537830586142,40.1465796075541,40.32609194908356,40
60.804,86.499,86.56908381773553,86.25577898257515,86.43264949836673,40.1364343193688,40.31330483516038,40
61.6884,86.67400000000002,86.74329075625731,86.41243861252913,86.60089951114254,40.142391245114766,40.33085214372818,40
62.5857,86.799,86.84818193110877,86.51100502949905,86.7120517624124,40.13613016869637,40.33717690160972,40
63.496,86.899,86.96112774691728,86.61551444451055,86.81827684799084,40.14285089892644,40.34561330240673,40
64.4196,86.99900000000001,87.08446083658065,86.7264663874629,86.9280566035008,40.15640423307984,40.35799444911774,40
65.3566,86.99900000000001,87.06739458296833,86.7015442549037,86.90347165206452,40.16392293090381,40.36585032806464,40
66.3073,87.099,87.22881403393102,86.8560466604223,87.05553313908985,40.17328089484117,40.37276737350872,40
67.2717,87.099,87.17043989542424,86.80360664475944,87.01168233765654,40.1587575577677,40.3668332506648,40
68.2502,87.099,87.1600437458804,86.78325419011625,86.98550420668059,40.17453953919981,40.37678955576415,40
69.2429,87.199,87.26946563257164,86.892058343714,87.10555645446237,40.163909178109265,40.37740728885764,40
70.2501,87.29900000000002,87.38043542489093,86.99878750556782,87.20923884857906,40.17119657631187,40.381647919323115,40
71.2719,87.29900000000002,87.39348131435294,87.01695866139453,87.22352527547994,40.169956038872996,40.376522652958414,40
72.3086,87.29900000000002,87.40031557720413,87.01960022758921,87.22679111966859,40.173524457535535,40.38071534961492,40
73.3603,87.39899999999999,87.48800192004663,87.10972548201076,87.31884904572584,40.16915287432079,40.37827643803587,40
74.4274,87.39899999999999,87.4711849789209,87.11013579554438,87.31400439584645,40.15718058307445,40.36104918337652,40
75.5099,87.39899999999999,87.47008662088095,87.10655238379934,87.31243665116584,40.15764996971511,40.36353423708161,40
76.6083,87.29900000000002,87.3479150468955,86.98911720510891,87.18288745117307,40.16502759572242,40.35879784178658,40
77.7226,87.29900000000002,87.34879815085556,86.97332643889756,87.16685680393302,40.18194134692254,40.375471711958,40
78.8531,87.29900000000002,87.31359942294084,86.96092823695584,87.1533501879969,40.16024923494393,40.352671185985,40
80.0,87.199,87.22586817358649,86.90413551546622,87.0943570079164,40.13151116567009,40.32173265812027,40
81.1636,87.199,87.26592185116051,86.92218463157629,87.10049256099676,40.16542929016376,40.34373721958423,40
82.3442,87.199,87.21854261984822,86.89015267003225,87.07265610850793,40.145886511340294,40.32838994981597,40
83.5419,87.099,87.15434610567662,86.85481646983577,87.0151945713528,40.13915153432383,40.299529635840855,40
84.757,87.199,87.24423538608283,86.93633977303061,87.10333532981468,40.14090005626815,40.307895613052224,40
85.9899,87.295,87.28985819201152,87.005371940668,87.15692189179187,40.132936300219654,40.28448625134352,40
87.2406,87.29900000000002,87.34423538608281,87.06188971392727,87.22181298217008,40.122422403912736,40.28234567215554,40
88.5096,87.39899999999999,87.38287647933312,87.13690369357901,87.28047669243598,40.10239978689714,40.245972785754105,40
89.797,87.39899999999999,87.42658194389408,87.15266688174925,87.28396322226702,40.14261872162706,40.27391506214482,40
91.1031,87.499,87.54423538608283,87.30221899625259,87.43063050605431,40.11360488002852,40.24201638983024,40
92.4282,87.499,87.54423538608283,87.33778472650629,87.45226563601199,40.091969750070845,40.20645065957655,40
93.7726,87.51899999999999,87.47534471847234,87.28796517788426,87.39167805921979,40.08366665925256,40.18737954058808,40
95.1366,87.599,87.55534471847234,87.39061615306368,87.48434181475973,40.07100290371261,40.164728565408666,40
96.5204,87.599,87.57799271118895,87.42999887577784,87.51245386317,40.06553884801896,40.147993835411114,40
97.9243,87.516,87.49499271118896,87.36229440303548,87.44211237942513,40.05288033176383,40.13269830815348,40
99.3486,87.366,87.32234471847234,87.21960471325407,87.28232855027319,40.040016168199145,40.102740005218266,40
100.794,87.24899999999998,87.18410130284026,87.10984439875736,87.16443562045288,40.019665682387384,40.0742569040829,40
102.26,87.199,87.22293742620862,87.15206276673703,87.18487386973078,40.03806355647784,40.070874659471585,40
103.747,87.199,87.21617108124842,87.14878078375659,87.17908719251247,40.03708388873595,40.067390297491826,40
105.256,87.29900000000002,87.2472520634759,87.23142536325045,87.25352709596257,39.99372496751333,40.015826700225446,40
106.787,87.29900000000002,87.32293742620861,87.31102259822272,87.32208898430846,40.000848441900146,40.01191482798589,40
108.34,87.29900000000002,87.26380811355905,87.28781838899425,87.27955889380934,39.984249219749714,39.9759897245648,40
109.916,87.39899999999999,87.33726319806958,87.3875945889089,87.36884227753555,39.96842092053403,39.94966860916068,40
111.515,87.47000000000001,87.40510130284027,87.47384509729176,87.44666676924584,39.95843453359443,39.93125620554851,40
113.137,87.499,87.50052320950181,87.56225446829352,87.51976914156312,39.98075406793869,39.93826874120829,40
114.783,87.499,87.50052320950181,87.61119615348836,87.56459141115079,39.93593179835102,39.88932705601344,40
116.452,87.39899999999999,87.39985645152542,87.54700258910842,87.48230679113678,39.917549660388644,39.85285386241701,40
118.146,87.485,87.49179131070515,87.62288537591398,87.55246659956046,39.93932471114469,39.86890593479117,40
119.865,87.449,87.44847284629645,87.59227842348952,87.50905765363126,39.939415192665194,39.85619442280694,40
121.608,87.556,87.53804994424183,87.6931026174603,87.62384934293077,39.914200601311066,39.844947326781536,40
123.377,87.599,87.57799271118895,87.74747903418206,87.6680410379176,39.90995167327135,39.83051367700689,40
125.171,87.599,87.55984208730611,87.75810363393971,87.66691859584262,39.89292349146349,39.8017384533664,40
126.992,87.61299999999999,87.59612358936697,87.77628019381395,87.68043951249967,39.915684076867294,39.81984339555302,40
128.839,87.699,87.66283856606823,87.86047860559168,87.76123524659744,39.901603319470794,39.80235996047655,40
130.713,87.756,87.7355403608591,87.91429509883973,87.81937435145709,39.91616600940202,39.821245262019374,40
132.615,87.861,87.85612096781016,88.0049668624348,87.93395476908474,39.92216619872542,39.85115410537536,40
134.543,87.899,87.90664821830886,88.04305581663631,87.97567863032829,39.93096958798057,39.86359240167255,40
136.5,87.92800000000001,87.97711458562912,88.06490500185318,88.01218282374126,39.96493176188787,39.91220958377595,40
138.486,87.999,88.04813576346963,88.1182612301641,88.0770698052372,39.97106595823243,39.92987453330554,40
140.5,87.97699999999999,87.99547673630614,88.00562893703801,87.99689705935388,39.99857967695226,39.989847799268134,40
142.544,87.862,87.89149835871969,87.83682763053376,87.8479676349098,40.04353072380988,40.054670728185926,40
144.617,87.799,87.82595467605766,87.7333318014713,87.7774406564853,40.048514019572366,40.09262287458637,40
146.721,87.799,87.84424718177736,87.65378043691373,87.73468815752379,40.10955902425357,40.19046674486363,40
148.855,87.799,87.84424718177736,87.57989916512207,87.70108268676216,40.1431644950152,40.26434801665529,40
151.02,87.799,87.79977341022953,87.46150515180001,87.62142209375521,40.17835131647432,40.33826825842952,40
153.217,87.799,87.781157599262,87.35739897431313,87.56038157251119,40.22077602675081,40.423758624948874,40
155.445,87.799,87.79977341022953,87.27236733624848,87.513747574852,40.28602583537753,40.527406073981055,40
157.706,87.799,87.79215257472248,87.18041046342286,87.46270333357235,40.32944924115013,40.61174211129962,40
160.0,87.877,87.85203327353595,87.15194331593473,87.483355658153,40.36867761538295,40.70008995760122,40
162.327,87.899,87.86248468348984,87.07214346261377,87.44598415102703,40.416500532462805,40.79034122087607,40
164.688,87.877,87.83640191361786,86.973681011666,87.38263919860408,40.45376271501378,40.86272090195186,40
167.084,87.799,87.73579549240644,86.7938327460929,87.24292965568085,40.492865836725585,40.941962746313536,40
169.514,87.799,87.73886372415183,86.73017240330749,87.21060866336772,40.528255060784105,41.008691320844335,40
171.98,87.799,87.72305905731501,86.6535814020497,87.16531958503643,40.557739472278584,41.06947765526532,40
174.481,87.799,87.71036783966771,86.59847024429328,87.13444796377925,40.57591987588846,41.11189759537443,40
177.019,87.76299999999999,87.66106443399163,86.51521146871714,87.06615768593399,40.59490674805764,41.145852965274486,40
179.594,87.699,87.59112184343553,86.39971724016935,86.96923303090871,40.62188881252682,41.19140460326618,40
182.206,87.708,87.59194881658091,86.37375125798198,86.95532073734255,40.63662807923836,41.21819755859893,40
184.856,87.799,87.68546789255647,86.44965228013294,87.04395055189923,40.641517340657245,41.235815612423536,40
187.545,87.89,87.76700257867323,86.51811230240631,87.11929760599179,40.64770497268144,41.24889027626692,40
190.273,87.912,87.78454407153791,86.5225414390599,87.12707437234708,40.65746969919083,41.262002632478,40
193.041,88.021,87.90458305510485,86.64095559226156,87.25172135248273,40.65286170262212,41.26362746284329,40
195.849,88.074,87.92985321795648,86.65967978547076,87.26845677099517,40.661396446961305,41.27017343248572,40
198.697,87.972,87.85903906064814,86.580727464401,87.19131569302724,40.66772336762091,41.27831159624715,40
201.587,87.92800000000001,87.81777136039705,86.54843395667011,87.16474159297806,40.653029767418985,41.26933740372694,40
204.52,87.93399999999998,87.82377136039705,86.55406197849884,87.17580164305126,40.64796971734579,41.26970938189821,40
207.494,87.94,87.82136547210406,86.54148606360769,87.1693338624416,40.65203160966246,41.27987940849637,40
210.512,87.944,87.82062369937645,86.53687169146144,87.1582412553333,40.66238244404316,41.28375200791501,40
213.574,87.936,87.86958982687997,86.5668316586294,87.19990267587669,40.66968715100329,41.30275816825058,40
216.681,87.88,87.8109465537287,86.49732751829691,87.13814112625433,40.67280542747437,41.313619035431785,40
219.833,87.849,87.75784952360551,86.42679583143432,87.07924158011211,40.678607943493404,41.331053692171196,40
223.03,87.773,87.70186351705182,86.33870885597742,87.00378280865102,40.698080708400795,41.363154661074404,40
226.274,87.687,87.6356017934216,86.23929540515742,86.9220672709665,40.713534522455106,41.39630638826418,40
229.565,87.66700000000002,87.61786037818719,86.18112851138268,86.88619619066723,40.731664187519954,41.43673186680451,40
232.905,87.64299999999999,87.60585222706293,86.12470301587065,86.85287695210222,40.752975274960704,41.481149211192275,40
236.292,87.616,87.58954096605298,86.05548786977702,86.80756396245346,40.78197700359952,41.534053096275954,40
239.729,87.599,87.53741466419227,85.94879851377104,86.72851145295343,40.80890321123884,41.58861615042123,40
243.216,87.563,87.52838831521986,85.87841348795187,86.68941158758957,40.83897672763028,41.64997482726798,40
246.754,87.492,87.44570829339997,85.72732667938395,86.57144304897345,40.874265244426525,41.718381614016025,40
250.343,87.39899999999999,87.37921143601245,85.60635253985525,86.47863908596622,40.90057235004623,41.7728588961572,40
