Freq "Sound Power"
20.0 45.56492156477235
20.2909 46.5768765594063
20.586 47.451619773528265
20.8855 48.14247055721232
21.1893 48.71877795870485
21.4975 49.17625253481792
21.8102 49.55097804046757
22.1274 50.08038126884195
22.4492 50.6792309479615
22.7758 51.31235661703984
23.1071 52.02767532240672
23.4432 52.6628232311903
23.7841 53.28874822567768
24.1301 53.8611921459386
24.4811 54.52866393545243
24.8372 55.19729944620151
25.1984 55.89011472061746
25.5649 56.48533991420037
25.9368 57.11943218718126
26.3141 57.68459666014472
26.6968 58.26967649054218
27.0851 58.84899997362403
27.4791 59.44408671097621
27.8788 60.05002954797105
28.2843 60.76351409966655
28.6957 61.311656265764995
29.1131 61.87677972797265
29.5365 62.444194690519666
29.9661 62.925587641151296
30.402 63.51882392174973
30.8442 64.0136418194496
31.2929 64.52128492421353
31.748 65.02918862405234
32.2098 65.65244974175431
32.6783 66.17803140157204
33.1536 66.77183767581836
33.6359 67.41368367335805
34.1251 68.10155657407286
34.6215 68.76994007929362
35.125 69.33578097992279
35.6359 69.95716753352583
36.1543 70.59530192837458
36.6802 71.1195320097582
37.2137 71.75425637697816
37.755 72.29223032303813
38.3041 72.71958475691177
38.8613 73.2507542797497
39.4265 73.72269453380169
40.0 74.13674221739869
40.5818 74.64254676265152
41.1721 75.15695096959378
41.771 75.82180263977483
42.3785 76.35726056270393
42.9949 76.9952154019104
43.6203 77.55020908241895
44.2548 78.19062731848949
44.8985 78.76386257238097
45.5515 79.24114421460233
46.2141 79.72145302401763
46.8863 80.23502088215427
47.5683 80.67751566010219
48.2602 81.25074954885939
48.9621 81.57377262804334
49.6743 82.05866536344105
50.3968 82.4721513648682
51.1299 82.94319739068642
51.8736 83.356888139657
52.6281 83.83259125455947
53.3936 84.20579727339829
54.1702 84.52394729897462
54.9581 84.96009019071363
55.7575 85.11555380179193
56.5685 85.46390573363655
57.3914 85.54536868072765
58.2261 85.77862293658099
59.073 85.97566952731835
59.9323 86.13586596433196
60.804 86.25577898257517
61.6884 86.41243861252913
62.5857 86.51100502949905
63.496 86.61551444451055
64.4196 86.72646638746289
65.3566 86.7015442549037
66.3073 86.8560466604223
67.2717 86.80360664475944
68.2502 86.78325419011625
69.2429 86.892058343714
70.2501 86.99878750556782
71.2719 87.01695866139453
72.3086 87.01960022758921
73.3603 87.10972548201076
74.4274 87.11013579554438
75.5099 87.10655238379934
76.6083 86.98911720510891
77.7226 86.97332643889756
78.8531 86.96092823695584
80.0 86.90413551546622
81.1636 86.92218463157629
82.3442 86.89015267003225
83.5419 86.85481646983577
84.757 86.93633977303058
85.9899 87.005371940668
87.2406 87.0618897139273
88.5096 87.13690369357901
89.797 87.15266688174925
91.1031 87.30221899625259
92.4282 87.33778472650629
93.7726 87.28796517788426
95.1366 87.3906161530637
96.5204 87.42999887577784
97.9243 87.36229440303548
99.3486 87.21960471325407
100.794 87.10984439875736
102.26 87.15206276673703
103.747 87.14878078375659
105.256 87.23142536325047
106.787 87.31102259822272
108.34 87.28781838899425
109.916 87.3875945889089
111.515 87.47384509729176
113.137 87.56225446829352
114.783 87.61119615348836
116.452 87.54700258910842
118.146 87.62288537591398
119.865 87.59227842348952
121.608 87.6931026174603
123.377 87.74747903418208
125.171 87.75810363393971
126.992 87.77628019381395
128.839 87.86047860559168
130.713 87.91429509883973
132.615 88.0049668624348
134.543 88.04305581663631
136.5 88.06490500185318
138.486 88.1182612301641
140.5 88.00562893703801
142.544 87.83682763053376
144.617 87.7333318014713
146.721 87.65378043691373
148.855 87.57989916512207
151.02 87.46150515180001
153.217 87.35739897431311
155.445 87.27236733624848
157.706 87.18041046342286
160.0 87.15194331593473
162.327 87.07214346261377
164.688 86.973681011666
167.084 86.7938327460929
169.514 86.73017240330749
171.98 86.65358140204968
174.481 86.59847024429328
177.019 86.51521146871717
179.594 86.39971724016935
182.206 86.37375125798198
184.856 86.44965228013294
187.545 86.51811230240631
190.273 86.52254143905994
193.041 86.64095559226156
195.849 86.65967978547076
198.697 86.580727464401
201.587 86.54843395667011
204.52 86.55406197849884
207.494 86.54148606360769
210.512 86.53687169146144
213.574 86.5668316586294
216.681 86.49732751829691
219.833 86.42679583143432
223.03 86.33870885597742
226.274 86.23929540515742
229.565 86.18112851138268
232.905 86.12470301587065
236.292 86.05548786977704
239.729 85.94879851377104
243.216 85.87841348795187
246.754 85.72732667938395
250.343 85.60635253985525
253.984 85.48880368953408
257.678 85.41390198714383
261.426 85.32331493882229
265.229 85.30092955988447
269.087 85.26567383472985
273.001 85.2777828565257
276.972 85.25699527032653
281.0 85.25215354340968
285.088 85.21305433819498
289.234 85.20627016772742
293.441 85.22120775325696
297.709 85.24406133460604
302.04 85.21848514530211
306.433 85.15762052902704
310.89 85.07895229166087
315.412 84.99627957174806
320.0 84.9350914462777
324.655 84.87201102830572
329.377 84.76792743722613
334.168 84.65815662227836
339.028 84.5597000841817
343.959 84.47917531987416
348.962 84.45490699010891
354.038 84.4330062931874
359.188 84.39340674109258
364.412 84.35296955541448
369.713 84.33086892660785
375.09 84.29263157102919
380.546 84.29434867469637
386.081 84.29619254255533
391.697 84.22964757411374
397.394 84.15538276486343
403.175 84.07923279151096
409.039 83.99400507054258
414.989 83.94682716018791
421.025 83.87984253855167
427.149 83.77671320347187
433.362 83.67493898200017
439.665 83.56790084777764
446.06 83.5174040206739
452.548 83.43990659381302
459.131 83.34382146662243
465.809 83.26114208748348
472.584 83.2319624140293
479.458 83.27758306666887
486.432 83.38083909834394
493.507 83.50159225412978
500.686 83.67385712208562
507.968 83.87041674312336
515.357 84.08149396202036
522.853 84.3122304811345
530.458 84.45698955673403
538.174 84.50425796500991
546.002 84.54677620272366
553.943 84.54899359106442
562.001 84.54245385750195
570.175 84.50635202731588
578.469 84.47167164775412
586.883 84.43307629726522
595.419 84.39175939626377
604.08 84.3586750299193
612.866 84.29617537842951
621.78 84.21612205604914
630.824 84.10581663075175
640.0 83.97988401804673
649.309 83.84989415532864
658.753 83.71160458609057
668.335 83.57064945523162
678.056 83.43896713766624
687.919 83.31751575954928
697.925 83.19205322030236
708.077 83.12543414107644
718.376 83.10134608617159
728.825 83.05731717049464
739.426 83.02744872217338
750.181 83.03278267592249
761.093 82.98062149616469
772.163 82.90976203401885
783.394 82.87446551597532
794.789 82.84024617211384
806.349 82.82189714642989
818.078 82.82880963520091
829.977 82.8576269834871
842.05 82.8863351175436
854.298 82.9022153858475
866.724 82.92540783678483
879.33 82.96767218410369
892.12 83.00014560630582
905.097 82.97736989813258
918.262 82.9511937308695
931.618 82.9215712770685
945.169 82.87255856415364
958.917 82.82375963388297
972.864 82.75686824591742
987.015 82.65822063666894
1001.37 82.53530305353028
1015.94 82.38508256157121
1030.71 82.25569448247305
1045.71 82.16337581577197
1060.92 82.13170149048169
1076.35 82.15367288400972
1092.0 82.19540655481349
1107.89 82.2170580159255
1124.0 82.1790725103657
1140.35 82.10646270901418
1156.94 82.05386622014869
1173.77 82.06142001406928
1190.84 82.07383469158118
1208.16 82.04640910160846
1225.73 81.96418924393218
1243.56 81.9508437063819
1261.65 82.02583829231376
1280.0 82.07557216096002
1298.62 82.07039996432701
1317.51 82.065954907981
1336.67 82.07524074736031
1356.11 82.05491355654799
1375.84 81.97652348578866
1395.85 81.93422645767568
1416.15 81.94851056476203
1436.75 81.94701279633526
1457.65 81.86463435774452
1478.85 81.76324361739609
1500.36 81.67274296014787
1522.19 81.511867091409
1544.33 81.31943296665744
1566.79 81.1320002407988
1589.58 80.89332301770592
1612.7 80.60043902536574
1636.16 80.44604945673952
1659.95 80.4050504613282
1684.1 80.27257006500729
1708.6 80.08331159047502
1733.45 80.00120376931555
1758.66 79.96927411165841
1784.24 79.84759145605791
1810.19 79.69793306642902
1836.52 79.5289208492967
1863.24 79.32619143701488
1890.34 79.21088068079466
1917.83 79.23760177256187
1945.73 79.23297863394437
1974.03 79.35967327211762
2002.74 79.57826377517004
2031.87 79.64366839798257
2061.43 79.5691791455098
2091.41 79.34412886683596
2121.83 79.07983900469486
2152.69 79.12045591417487
2184.01 79.38888682212736
2215.77 79.70112883327523
2248.0 79.94639204491337
2280.7 80.04519939731803
2313.87 80.03259603143506
2347.53 80.10463142130111
2381.68 80.34364547543306
2416.32 80.64396619095169
2451.46 80.858881174098
2487.12 81.01847162977229
2523.3 81.15710314925795
2560.0 81.29941571426967
2597.24 81.54049720919885
2635.01 81.82923069074025
2673.34 82.08479364638546
2712.23 82.33612979248996
2751.68 82.53742443634485
2791.7 82.68589635678951
2832.31 82.8334493498844
2873.5 83.03455358044536
2915.3 83.24855665980809
2957.7 83.49272386694834
3000.72 83.5976572132378
3044.37 83.59105290762695
3088.65 83.57240373136098
3133.58 83.76083186952866
3179.16 83.90887077313916
3225.4 83.96220179764899
3272.31 83.92781390724168
3319.91 83.98266511276535
3368.2 84.09131374334955
3417.19 84.25781413523451
3466.89 84.34166821722772
3517.32 84.32291412392414
3568.48 84.37232796339264
3620.39 84.53754558420879
3673.05 84.67569956912973
3726.47 84.61730999536313
3780.67 84.51255039123706
3835.67 84.67219608293316
3891.46 84.78720316635577
3948.06 84.5989766724156
4005.49 84.44939772836722
4063.75 84.46095159174578
4122.86 84.3528823411611
4182.82 84.08670017961221
4243.66 83.97029548855048
4305.39 83.93171164954482
4368.01 83.80196935359987
4431.55 83.66137233692027
4496.01 83.62887796992398
4561.4 83.58045715723436
4627.75 83.43835384646484
4695.06 83.31903047194196
4763.35 83.22635071677932
4832.64 83.12450386404211
4902.93 83.06936879044714
4974.24 82.9060450204951
5046.6 82.86670535659458
5120.0 82.80412456683406
5194.47 82.58075716067285
5270.03 82.42245136664546
5346.68 82.19277462698663
5424.45 81.8341566379719
5503.35 81.55693164413779
5583.4 81.36125602347543
5664.61 81.03815710069541
5747.01 80.96520428161092
5830.6 80.92808103425067
5915.41 80.86306952840945
6001.45 81.1259012885155
6088.74 81.1714602137237
6177.3 81.33866516266761
6267.15 81.33007121230996
6358.31 81.29946451648017
6450.8 81.28386501360283
6544.62 81.30562405905273
6639.82 81.38066706363206
6736.4 81.4881529649718
6834.38 81.57543580600166
6933.79 81.56256369794893
7034.64 81.49742809433579
7136.96 81.30689066637692
7240.77 81.1715528707186
7346.09 80.9720979238249
7452.94 80.81949735641477
7561.35 80.63297436894604
7671.33 80.4313658865217
7782.91 80.22275728277192
7896.12 79.99398160096358
8010.97 79.83969571594562
8127.49 79.75013900738627
8245.71 79.76050974536703
8365.65 79.71768951661277
8487.33 79.61084628139949
8610.78 79.47544059681056
8736.03 79.36990358837764
8863.09 79.30668188669817
8992.01 79.37285166532318
9122.8 79.3863743515875
9255.5 79.35929773415923
9390.12 79.09570321207794
9526.7 78.85955417749086
9665.27 78.69543136267087
9805.86 78.60302929760381
9948.49 78.5807778445774
10093.2 78.48616958473092
10240.0 78.30059888597565
10388.9 78.14723871705478
10540.1 78.0989952990053
10693.4 78.11406297957284
10848.9 78.04836583969463
11006.7 77.8166652560309
11166.8 77.59249015546357
11329.2 77.47158685888475
11494.0 77.48797871160232
11661.2 77.51425694323086
11830.8 77.50921285063772
12002.9 77.5412817739113
12177.5 77.63050306912294
12354.6 77.64349300224457
12534.3 77.52426146641916
12716.6 77.47921589826339
12901.6 77.66392744620732
13089.2 77.9759932804523
13279.6 78.19743415091507
13472.8 78.35535653787379
13668.8 78.56946435948349
13867.6 78.75424935486618
14069.3 78.75840043035137
14273.9 78.67800604321684
14481.5 78.61629990835307
14692.2 78.52010383020847
14905.9 78.33351968002101
15122.7 78.18436850831031
15342.7 78.13355392882931
15565.8 77.99799545511361
15792.2 77.71893410799973
16021.9 77.41847565855407
16255.0 77.10048907113891
16491.4 76.6969240949512
16731.3 76.33017172780335
16974.7 76.00668728405934
17221.6 75.58777274500682
17472.1 75.08201447835826
17726.2 74.69660725651299
17984.0 74.31369406621776
18245.6 73.92942166056254
18511.0 73.64895897521733
18780.2 73.40742370051048
19053.4 73.08169135469534
19330.5 72.73797885865545
19611.7 72.26373104445251
19897.0 71.78850079282657
