Freq "On Axis"
20.5078 55.900325757575786
21.9727 56.16932575757576
23.4375 57.06202575757578
24.9023 58.82602575757576
26.3672 61.082625757575784
27.832 63.59032575757577
29.2969 65.76502575757577
30.7617 67.96902575757576
32.2266 69.96142575757577
33.6914 71.59122575757578
35.1562 72.97502575757576
36.6211 74.10022575757577
38.0859 75.06182575757578
39.5508 75.90662575757577
41.0156 76.68182575757575
42.4805 77.40512575757577
43.9453 78.01332575757576
45.4102 78.56802575757575
46.875 79.06042575757577
48.3398 79.49752575757577
51.2695 80.27872575757576
52.7344 80.63912575757575
54.1992 80.97202575757578
55.6641 81.28122575757577
58.5938 81.78312575757577
60.0586 81.96122575757576
62.9883 82.34802575757575
64.4531 82.56142575757579
67.3828 82.86412575757576
68.8477 82.94672575757578
71.7773 83.05292575757576
74.707 83.33202575757576
77.6367 83.49152575757577
79.1016 83.48272575757576
82.0312 83.52202575757578
84.9609 83.64442575757579
87.8906 83.67252575757577
90.8203 83.66312575757577
95.2148 83.70252575757577
98.1445 83.69522575757577
101.074 83.65272575757577
105.469 83.64182575757577
108.398 83.67842575757578
112.793 83.72552575757577
117.188 83.69832575757576
120.117 83.65732575757578
124.512 83.58862575757576
128.906 83.47232575757577
133.301 83.45492575757577
139.16 83.37552575757576
143.555 83.32712575757577
147.949 83.31122575757577
153.809 83.38292575757578
159.668 83.52172575757578
165.527 83.46582575757577
171.387 83.40572575757577
177.246 83.37762575757577
183.105 83.34462575757576
188.965 83.33922575757578
196.289 83.31912575757576
203.613 83.28112575757577
210.938 83.29482575757577
218.262 83.31092575757577
225.586 83.29852575757576
232.91 83.38022575757577
241.699 83.46532575757578
250.488 83.67612575757578
259.277 83.60062575757577
268.066 83.67462575757577
276.855 83.53952575757577
287.109 83.81202575757575
297.363 83.75672575757577
307.617 83.71022575757578
319.336 83.58782575757577
329.59 83.64392575757577
341.309 83.73082575757579
353.027 83.95822575757578
366.211 83.81492575757576
379.395 84.00182575757577
392.578 83.97052575757576
405.762 83.77552575757576
420.41 83.44122575757576
435.059 83.87442575757576
451.172 83.85512575757578
465.82 83.94402575757577
483.398 83.81642575757577
499.512 83.74602575757578
517.09 83.21962575757577
536.133 82.91882575757577
555.176 83.20832575757578
574.219 83.00332575757577
594.727 83.03892575757577
615.234 82.85132575757576
637.207 82.82952575757577
659.18 82.70052575757578
682.617 82.81702575757578
707.52 82.57182575757577
732.422 82.31552575757577
757.324 82.06962575757576
785.156 83.95412575757577
811.523 83.93292575757576
840.82 83.64562575757577
870.117 84.20442575757578
900.879 84.83262575757578
933.105 84.44592575757576
965.332 84.10832575757577
1000.49 84.89272575757577
1035.64 83.81172575757577
1072.27 83.22432575757577
1108.89 83.66322575757579
1148.44 82.81492575757576
1189.45 83.29982575757577
1230.47 83.06282575757578
1274.41 83.21002575757576
1319.82 83.73242575757577
1366.7 83.43262575757578
1413.57 84.17212575757577
1463.38 83.00282575757578
1516.11 83.83812575757577
1568.85 82.45192575757576
1624.51 82.91412575757577
1681.64 82.73412575757577
1741.7 83.85712575757577
1803.22 84.03832575757578
1866.21 84.45352575757578
1932.13 84.09842575757577
1999.51 83.38882575757577
2069.82 83.29942575757576
2143.07 83.77092575757577
2219.24 84.01532575757577
2296.88 84.03552575757577
2378.91 83.76062575757577
2462.4 83.81002575757577
2548.83 83.98152575757578
2639.65 84.25262575757577
2731.93 83.66402575757577
2828.61 83.35222575757575
2928.22 84.22842575757576
3030.76 85.52742575757577
3137.7 84.51592575757577
3249.02 83.02662575757577
3363.28 84.09822575757578
3481.93 85.55462575757576
3604.98 84.22612575757577
3732.42 83.69102575757577
3864.26 83.86472575757577
4000.49 83.85162575757577
4141.11 84.37022575757577
4287.6 83.65452575757577
4438.48 83.29282575757577
4595.21 84.02882575757577
4756.35 84.13442575757577
4924.8 83.60822575757577
5097.66 84.19712575757578
5277.83 84.83432575757577
5463.87 84.30652575757577
5657.23 84.38702575757577
5856.45 84.96572575757577
6062.99 83.69822575757577
6276.86 84.51732575757578
6498.05 83.39882575757576
6726.56 83.02032575757579
6963.87 83.44322575757577
7209.96 82.87292575757577
7464.84 83.13572575757577
7727.05 83.43772575757578
7999.51 83.66802575757578
8282.23 82.79212575757577
8573.73 83.12712575757577
8876.95 82.74072575757577
9188.96 82.99022575757577
9514.16 82.80162575757576
9849.61 84.01472575757577
10196.8 83.00942575757577
10555.7 82.53002575757577
10927.7 82.49252575757578
11313.0 82.17672575757577
11712.9 82.77312575757577
12126.0 83.25892575757578
12553.7 83.12032575757576
12996.1 83.32322575757577
13454.6 84.14572575757578
13929.2 84.15262575757578
14419.9 83.29892575757577
14928.2 83.17412575757577
15455.6 83.14282575757576
16000.5 82.60062575757577
16564.5 82.44802575757576
17148.9 83.07712575757577
17752.4 82.63652575757577
18379.4 82.73052575757578
19026.9 82.43142575757577
19697.8 81.52012575757577
19999.5 80.89812575757577
