Freq "Sound Power"
20.5078 53.48173086093766
21.9727 55.88523526298869
23.4375 58.40780233900446
24.9023 61.25345387396712
26.3672 63.69193194267632
27.832 66.0567212991093
29.2969 68.08994164880241
30.7617 70.09758757518281
32.2266 71.81225040794014
33.6914 73.20524749950363
35.1562 74.40181432073028
36.6211 75.36908764581199
38.0859 76.20021600228984
39.5508 76.93501808149033
41.0156 77.6133037768343
42.4805 78.24821853176122
43.9453 78.78167093228282
45.4102 79.28310800635595
46.875 79.71797648665921
48.3398 80.0998124698936
51.2695 80.79227333317665
52.7344 81.11480399062796
54.1992 81.4117360847971
55.6641 81.68534008563526
58.5938 82.12840860031264
60.0586 82.2783598309088
62.9883 82.61448518754297
64.4531 82.80534582099483
67.3828 83.06071738874363
68.8477 83.12157967603343
71.7773 83.19707733068735
74.707 83.44342951089175
77.6367 83.56086788906056
79.1016 83.53405443424458
82.0312 83.55191456038015
84.9609 83.6453022995408
87.8906 83.6427715790561
90.8203 83.61356333538676
95.2148 83.61099412410654
98.1445 83.56794457973362
101.074 83.48868462409112
105.469 83.42030015136285
108.398 83.42474654273022
112.793 83.43929714374335
117.188 83.40473142575163
120.117 83.36467046018063
124.512 83.31231340975543
128.906 83.18853572087436
133.301 83.13259473098053
139.16 83.0415599637183
143.555 82.96398369441107
147.949 82.88901229697265
153.809 82.81311514637972
159.668 82.88344331612487
165.527 82.8547271091578
171.387 82.75034120169538
177.246 82.65980382127941
183.105 82.58408513262003
188.965 82.52837691337429
196.289 82.41650551529858
203.613 82.31806253096168
210.938 82.26220665348156
218.262 82.188539812603
225.586 82.11275182596525
232.91 82.06129970577625
241.699 81.95041798637833
250.488 82.08532183647965
259.277 82.02641224086624
268.066 81.94586384142866
276.855 81.89095659420184
287.109 81.91084923080903
297.363 81.82321587642652
307.617 81.70247333716355
319.336 81.54074316297188
329.59 81.404967200683
341.309 81.44949750507956
353.027 81.60243504503947
366.211 81.37592562776562
379.395 81.41573343799276
392.578 81.29249719220478
405.762 81.10001544416004
420.41 80.73261123028607
435.059 80.9371417793551
451.172 80.87298950471879
465.82 80.89748593009077
483.398 80.74296080520446
499.512 80.66508200825804
517.09 80.20995273576095
536.133 79.77916176045927
555.176 79.68930680429054
574.219 79.50624193619251
594.727 79.32354546144245
615.234 78.9424137704693
637.207 78.7610585748979
659.18 78.44586571207944
682.617 78.34371019190316
707.52 77.98693401897194
732.422 78.05178853640082
757.324 77.76774428145544
785.156 78.25650783500934
811.523 78.13464032169507
840.82 78.24942024331658
870.117 78.2560274003105
900.879 78.32638623291578
933.105 77.88277249143275
965.332 77.71210189946811
1000.49 77.97714992163941
1035.64 77.08991208484858
1072.27 76.6668012947947
1108.89 76.70611231569563
1148.44 76.29401968108232
1189.45 76.16405951867686
1230.47 76.20005444533464
1274.41 76.20878822371472
1319.82 76.28032324600034
1366.7 76.46457898830847
1413.57 76.34473026362234
1463.38 76.1938578615793
1516.11 76.09425449344266
1568.85 75.54584760132622
1624.51 75.41506757282022
1681.64 75.6508208583106
1741.7 75.92381412430163
1803.22 76.17517615405963
1866.21 76.34705670462267
1932.13 75.89862606968457
1999.51 75.73899255062231
2069.82 75.3211583656855
2143.07 75.31831152873015
2219.24 75.51840240911358
2296.88 75.65548635839707
2378.91 75.4995938633034
2462.4 75.32437308168923
2548.83 75.38551224946312
2639.65 75.4817449671036
2731.93 75.62206208944275
2828.61 75.3901979595537
2928.22 75.77751901933378
3030.76 76.45152063025196
3137.7 76.02200501607707
3249.02 75.04267933708138
3363.28 75.46388865901582
3481.93 76.25549590084309
3604.98 75.71602195959562
3732.42 75.34635081242345
3864.26 75.49502253187187
4000.49 75.38469971726389
4141.11 75.63536397524351
4287.6 75.08547476065178
4438.48 74.81923583624526
4595.21 75.42338447139643
4756.35 75.2247275962293
4924.8 75.01299076731922
5097.66 75.29104708258781
5277.83 76.20839624012777
5463.87 75.66221607983167
5657.23 75.74749776555879
5856.45 75.81033075660835
6062.99 75.18222367972851
6276.86 75.21962433284502
6498.05 75.02357321006794
6726.56 74.86494483472997
6963.87 75.17784010288527
7209.96 75.00987644105238
7464.84 75.33402074810883
7727.05 75.35278540556594
7999.51 75.36144871453256
8282.23 75.04274633712743
8573.73 75.20253634890216
8876.95 75.22700936439313
9188.96 75.51557232209083
9514.16 75.3124711100124
9849.61 75.78827955948577
10196.8 75.1703256460225
10555.7 75.23831855950198
10927.7 75.02511274284113
11313.0 74.39641981162822
11712.9 74.65987765304223
12126.0 74.77618537512069
12553.7 74.3631688902224
12996.1 74.06644547334001
13454.6 74.28696420851492
13929.2 74.37708646148889
14419.9 74.10773427686482
14928.2 73.89261906445152
15455.6 73.80784668655645
16000.5 73.84408266930966
16564.5 73.60422797109489
17148.9 73.55696408009811
17752.4 73.45553081461654
18379.4 73.48482310508314
19026.9 73.61058381205038
19697.8 73.65832454244678
19999.5 73.43227333196454
