Freq "Sound Power"
20.5078 53.548905103361875
21.9727 55.9524095054129
23.4375 58.474976581428706
24.9023 61.32062811639135
26.3672 63.75910618510056
27.832 66.12389554153353
29.2969 68.15711589122662
30.7617 70.16476181760704
32.2266 71.87942465036437
33.6914 73.27242174192786
35.1562 74.46898856315453
36.6211 75.4362618882362
38.0859 76.26739024471406
39.5508 77.00219232391456
41.0156 77.68047801925852
42.4805 78.31539277418545
43.9453 78.84884517470705
45.4102 79.35028224878016
46.875 79.78515072908345
48.3398 80.16698671231784
51.2695 80.85944757560088
52.7344 81.18197823305219
54.1992 81.47891032722134
55.6641 81.75251432805948
58.5938 82.19558284273688
60.0586 82.34553407333303
62.9883 82.6816594299672
64.4531 82.87252006341906
67.3828 83.12789163116787
68.8477 83.18875391845768
71.7773 83.2642515731116
74.707 83.51060375331596
77.6367 83.62804213148479
79.1016 83.6012286766688
82.0312 83.6190888028044
84.9609 83.71247654196503
87.8906 83.70994582148033
90.8203 83.68073757781099
95.2148 83.67816836653077
98.1445 83.63511882215786
101.074 83.55585886651536
105.469 83.48747439378708
108.398 83.49192078515445
112.793 83.50647138616756
117.188 83.47190566817585
120.117 83.43184470260486
124.512 83.37948765217965
128.906 83.2557099632986
133.301 83.19976897340476
139.16 83.10873420614253
143.555 83.03115793683529
147.949 82.95618653939688
153.809 82.88028938880393
159.668 82.95061755854908
165.527 82.92190135158205
171.387 82.8175154441196
177.246 82.72697806370364
183.105 82.65125937504426
188.965 82.59555115579852
196.289 82.4836797577228
203.613 82.38523677338591
210.938 82.32938089590579
218.262 82.25571405502723
225.586 82.17992606838948
232.91 82.12847394820048
241.699 82.01759222880257
250.488 82.15249607890388
259.277 82.09358648329047
268.066 82.01303808385288
276.855 81.95813083662605
287.109 81.97802347323326
297.363 81.89039011885076
307.617 81.76964757958777
319.336 81.60791740539611
329.59 81.47214144310723
341.309 81.51667174750378
353.027 81.66960928746369
366.211 81.44309987018985
379.395 81.48290768041699
392.578 81.359671434629
405.762 81.16718968658427
420.41 80.79978547271031
435.059 81.00431602177932
451.172 80.94016374714302
465.82 80.96466017251498
483.398 80.81013504762869
499.512 80.73225625068227
517.09 80.2771269781852
536.133 79.8463360028835
555.176 79.75648104671475
574.219 79.57341617861674
594.727 79.39071970386668
615.234 79.00958801289353
637.207 78.82823281732212
659.18 78.51303995450367
682.617 78.41088443432739
707.52 78.05410826139617
732.422 78.11896277882505
757.324 77.83491852387965
785.156 78.32368207743357
811.523 78.2018145641193
840.82 78.31659448574082
870.117 78.32320164273474
900.879 78.39356047534001
933.105 77.94994673385699
965.332 77.77927614189234
1000.49 78.04432416406362
1035.64 77.15708632727281
1072.27 76.73397553721892
1108.89 76.77328655811986
1148.44 76.36119392350655
1189.45 76.23123376110111
1230.47 76.26722868775889
1274.41 76.27596246613895
1319.82 76.34749748842457
1366.7 76.5317532307327
1413.57 76.41190450604658
1463.38 76.26103210400353
1516.11 76.16142873586688
1568.85 75.61302184375043
1624.51 75.48224181524444
1681.64 75.71799510073481
1741.7 75.99098836672587
1803.22 76.24235039648386
1866.21 76.41423094704692
1932.13 75.9658003121088
1999.51 75.80616679304654
2069.82 75.38833260810972
2143.07 75.38548577115439
2219.24 75.58557665153782
2296.88 75.7226606008213
2378.91 75.56676810572765
2462.4 75.39154732411345
2548.83 75.45268649188733
2639.65 75.54891920952781
2731.93 75.68923633186697
2828.61 75.45737220197793
2928.22 75.84469326175801
3030.76 76.5186948726762
3137.7 76.08917925850132
3249.02 75.10985357950563
3363.28 75.53106290144005
3481.93 76.32267014326732
3604.98 75.78319620201985
3732.42 75.41352505484768
3864.26 75.5621967742961
4000.49 75.45187395968811
4141.11 75.70253821766774
4287.6 75.15264900307601
4438.48 74.8864100786695
4595.21 75.49055871382068
4756.35 75.29190183865353
4924.8 75.08016500974345
5097.66 75.35822132501204
5277.83 76.275570482552
5463.87 75.72939032225588
5657.23 75.81467200798302
5856.45 75.8775049990326
6062.99 75.24939792215274
6276.86 75.28679857526926
6498.05 75.09074745249217
6726.56 74.9321190771542
6963.87 75.2450143453095
7209.96 75.07705068347661
7464.84 75.40119499053306
7727.05 75.41995964799017
7999.51 75.4286229569568
8282.23 75.10992057955167
8573.73 75.26971059132639
8876.95 75.29418360681737
9188.96 75.58274656451506
9514.16 75.37964535243663
9849.61 75.85545380190999
10196.8 75.23749988844673
10555.7 75.30549280192622
10927.7 75.09228698526537
11313.0 74.46359405405244
11712.9 74.72705189546647
12126.0 74.84335961754492
12553.7 74.43034313264663
12996.1 74.13361971576424
13454.6 74.35413845093915
13929.2 74.44426070391312
14419.9 74.17490851928905
14928.2 73.95979330687575
15455.6 73.87502092898066
16000.5 73.9112569117339
16564.5 73.67140221351912
17148.9 73.62413832252236
17752.4 73.52270505704075
18379.4 73.55199734750737
19026.9 73.67775805447461
19697.8 73.72549878487101
19999.5 73.49944757438877
