Freq "Front Wall Bounce"
20.5078 65.5273367324624
21.9727 65.91328881209331
23.4375 67.1023240351143
24.9023 68.26273749459165
26.3672 69.27415852955248
27.832 70.21512221262154
29.2969 70.66893033265951
30.7617 71.4093555886945
32.2266 72.03199180123792
33.6914 72.80312339701472
35.1562 73.52382305353812
36.6211 74.2296592515019
38.0859 74.93397969406313
39.5508 75.48347738831981
41.0156 75.99960867996653
42.4805 76.61351185202128
43.9453 77.30323947917768
45.4102 77.81723345615345
46.875 78.36530426436192
48.3398 78.86257551216679
51.2695 80.13085200337946
52.7344 80.640240490259
54.1992 81.117782733913
55.6641 81.61706067211139
58.5938 82.59944428286427
60.0586 83.1282297217236
62.9883 84.0148168185773
64.4531 84.37596417848252
67.3828 85.04124383000833
68.8477 85.39598642665806
71.7773 86.01887416652042
74.707 86.5133238852884
77.6367 86.89632876945394
79.1016 87.07014411151557
82.0312 87.33861048785064
84.9609 87.62882057043413
87.8906 87.82107077502086
90.8203 87.98638426669416
95.2148 88.13464748689717
98.1445 88.18377187839837
101.074 88.1659234941247
105.469 88.15310968092524
108.398 88.04487196743656
112.793 87.83761457951267
117.188 87.94618868961868
120.117 88.16640049142383
124.512 88.03452916057905
128.906 88.03434833527162
133.301 87.89793589206826
139.16 87.48481310358908
143.555 87.46654477644361
147.949 87.59271808556409
153.809 87.4640738764072
159.668 86.95517242825633
165.527 86.66999270814212
171.387 86.81414591938467
177.246 86.57022082572496
183.105 86.8053076156838
188.965 86.89204611282177
196.289 86.39405716036643
203.613 86.45843201976656
210.938 86.61508246628443
218.262 86.61611560325743
225.586 86.47875155540815
232.91 86.90858535282571
241.699 86.49243353903856
250.488 87.28103490950332
259.277 87.44063405064068
268.066 86.92664891365905
276.855 86.8597386992243
287.109 87.37915981982226
297.363 87.03727010216733
307.617 86.49764841807414
319.336 85.9147465607543
329.59 86.05922725791191
341.309 86.44990267956834
353.027 86.17446405729912
366.211 86.56308970113008
379.395 87.78477162879224
392.578 88.17681605690231
405.762 87.32159892658953
420.41 86.76855137171017
435.059 86.30356022544635
451.172 86.04595626021604
465.82 87.60124694923863
483.398 87.30506438941246
499.512 86.36354796463641
517.09 86.39824867953715
536.133 85.88960298589006
555.176 86.29906652871301
574.219 88.01279127768875
594.727 88.04617447280326
615.234 87.90994986464534
637.207 86.91842304968944
659.18 86.61221241330477
682.617 86.96728731794512
707.52 88.05353655841921
732.422 86.61471416482468
757.324 87.44113416563982
785.156 85.6258198484429
811.523 86.37801747836396
840.82 86.05934984620713
870.117 86.90306075784349
900.879 87.31469725830611
933.105 86.2880725067551
965.332 86.50252038453922
1000.49 85.95826886028794
1035.64 86.47656867186524
1072.27 86.68523149029019
1108.89 87.34051520534689
1148.44 87.05507522376405
1189.45 87.59911626516956
1230.47 86.92881207892596
1274.41 87.46892969071502
1319.82 87.3458367000888
1366.7 87.01401780032148
1413.57 87.31086684814115
1463.38 87.34876805777459
1516.11 86.81648037327743
1568.85 86.40891848641505
1624.51 86.45093483457032
1681.64 86.55984044974555
1741.7 86.23261528720373
1803.22 85.47488260386513
1866.21 84.84723723742783
1932.13 84.37944097906563
1999.51 84.79668194224335
2069.82 85.21459057652902
2143.07 85.83505497921269
2219.24 86.32122949160691
2296.88 86.07902578485319
2378.91 85.89336409968094
2462.4 85.90092602902845
2548.83 84.79836870968873
2639.65 84.07811010312811
2731.93 83.84102637392223
2828.61 83.76439603314384
2928.22 83.65860418319352
3030.76 83.53222518753317
3137.7 84.03426615471611
3249.02 84.05511474299598
3363.28 84.46532564371763
3481.93 84.7509294825596
3604.98 85.04841657833643
3732.42 85.4394039197166
3864.26 85.4527767032109
4000.49 85.28071118230326
4141.11 85.25302051669013
4287.6 85.16819858988814
4438.48 85.19176387330442
4595.21 85.22406683459232
4756.35 84.90898870343895
4924.8 84.76167841743424
5097.66 84.59783246561298
5277.83 84.26737099089371
5463.87 84.17071986832023
5657.23 83.76842941693367
5856.45 83.58213737713213
6062.99 83.55350815123685
6276.86 83.5582926765801
6498.05 83.32083594225446
6726.56 82.95727569029081
6963.87 82.78245879840095
7209.96 82.52835156996639
7464.84 82.58297822609504
7727.05 83.41550071836939
7999.51 84.21382739806285
8282.23 84.59722011991315
8573.73 84.57834541574199
8876.95 84.45756577724542
9188.96 84.40683999916851
9514.16 84.1260355443676
9849.61 83.7741346414467
10196.8 83.44270653246278
10555.7 83.21602234382989
10927.7 82.7884264097516
11313.0 82.70625420953192
11712.9 83.02381212433824
12126.0 83.17138129009744
12553.7 83.27612421743305
12996.1 83.447129450007
13454.6 84.04520857104887
13929.2 84.44824637293027
14419.9 84.66786163110879
14928.2 84.36179825037735
15455.6 83.67346710004003
16000.5 82.70334495100666
16564.5 81.60289780619986
17148.9 80.51894307905694
17752.4 79.60386701116444
18379.4 78.70496950383638
19026.9 77.78602265665512
19697.8 77.20038541972234
19999.5 77.10431216915677
