Freq "Rear Wall Bounce"
20.5078 51.47133248059298
21.9727 58.48860783628409
23.4375 63.996493612568926
24.9023 67.14283581254757
26.3672 69.99642116373401
27.832 72.25006417215134
29.2969 74.3274041216769
30.7617 76.13060168390136
32.2266 77.41815877499944
33.6914 78.56565315279174
35.1562 79.41905118580351
36.6211 80.07377372802229
38.0859 80.432524734551
39.5508 80.96632889163038
41.0156 81.19156854998884
42.4805 81.23201253914584
43.9453 81.22677163907143
45.4102 81.02847604411997
46.875 81.07044762783447
48.3398 80.87978393062734
51.2695 80.6194309479075
52.7344 80.43654733806164
54.1992 80.34957090648705
55.6641 80.2623163391623
58.5938 80.07569768363875
60.0586 80.07803270151523
62.9883 79.71706588371964
64.4531 79.58739234660489
67.3828 79.37157735306916
68.8477 79.28521912431667
71.7773 79.04489617671662
74.707 78.9643845489697
77.6367 78.90339975461643
79.1016 78.92580573694353
82.0312 78.94978659951944
84.9609 79.13603293953899
87.8906 79.14434289356585
90.8203 79.13507845271049
95.2148 79.38780585654523
98.1445 79.5235735169355
101.074 79.3426925021223
105.469 79.60165625467259
108.398 79.80282235304615
112.793 79.80534633681056
117.188 79.81749186122056
120.117 79.86626946322887
124.512 79.9636626769114
128.906 79.91833256508384
133.301 79.87799687234592
139.16 79.64690560223045
143.555 79.87766326927405
147.949 79.76562376000815
153.809 79.5267017746647
159.668 79.43849472532678
165.527 79.29741296099661
171.387 78.81159670195099
177.246 78.31095281868836
183.105 77.76194301788836
188.965 77.82136377887308
196.289 77.47184645515013
203.613 77.3216207749138
210.938 77.4722830474829
218.262 77.66608039449969
225.586 77.43325511651915
232.91 77.15558583788466
241.699 77.0951503772597
250.488 77.07549997584444
259.277 77.43497125834146
268.066 77.0557713428147
276.855 76.77110012658152
287.109 77.25551457003975
297.363 77.15863569670152
307.617 76.98270768611833
319.336 76.49708280028433
329.59 76.46163742671973
341.309 76.57995937718779
353.027 75.82079829891644
366.211 75.6689318845047
379.395 76.1610290503002
392.578 76.583977955066
405.762 76.334612024914
420.41 75.66602460787796
435.059 75.93674415695622
451.172 74.94115917018875
465.82 74.97141122614377
483.398 74.89473475886403
499.512 74.90898997479952
517.09 74.32389764350458
536.133 74.72525651780028
555.176 74.16367608501535
574.219 73.87968356523245
594.727 74.34062434911296
615.234 73.90217056219954
637.207 73.86940346616291
659.18 74.337255654221
682.617 74.31180333580174
707.52 73.74214355390819
732.422 73.5771913521408
757.324 74.64111225081344
785.156 74.92085693190543
811.523 73.5743673210038
840.82 72.75264698344684
870.117 71.95559718189661
900.879 71.88274785259559
933.105 73.19105478464655
965.332 72.9093747514671
1000.49 72.4908710284989
1035.64 71.15382438038714
1072.27 70.57688167722098
1108.89 70.32235151876861
1148.44 72.03721607940501
1189.45 71.93972006470389
1230.47 71.13233151721045
1274.41 71.14258698636203
1319.82 70.4610214291355
1366.7 70.02050490111094
1413.57 69.51531979813255
1463.38 69.5705226856763
1516.11 69.5605267430698
1568.85 69.27818878966056
1624.51 68.1624780787938
1681.64 68.89566320371927
1741.7 68.95684690060266
1803.22 68.38933750672507
1866.21 68.12634113413397
1932.13 67.38005034453813
1999.51 67.92365128669637
2069.82 68.73896683971513
2143.07 68.90738525490973
2219.24 68.27519663258026
2296.88 68.27207992224885
2378.91 68.00520709702351
2462.4 67.78000388848163
2548.83 67.88104296296937
2639.65 67.246674668604
2731.93 66.41126790583398
2828.61 65.7368402094989
2928.22 65.01675278425819
3030.76 64.8757837555498
3137.7 65.85992675501178
3249.02 66.29666136577171
3363.28 65.86745790862837
3481.93 65.22120407431942
3604.98 63.89319223546683
3732.42 63.87384752761946
3864.26 63.98358122471056
4000.49 63.64947145670952
4141.11 63.67606877643588
4287.6 62.497028118601705
4438.48 62.19328626927428
4595.21 62.078000089273516
4756.35 62.7111384012092
4924.8 62.42872783986603
5097.66 61.18030755881152
5277.83 61.71008245557201
5463.87 60.87017398813002
5657.23 60.86529377738576
5856.45 61.05857312776831
6062.99 59.87497976268621
6276.86 59.968612595892424
6498.05 60.14759225123204
6726.56 60.04819221239842
6963.87 60.73533044615051
7209.96 60.1538202147287
7464.84 59.87131346810027
7727.05 58.98397299650864
7999.51 58.91927822121379
8282.23 58.59991120452527
8573.73 59.037626078490675
8876.95 59.256867593841065
9188.96 58.47966425621195
9514.16 57.171429404732706
9849.61 56.05682414924972
10196.8 55.4468383267223
10555.7 54.46859203652333
10927.7 53.559257053948315
11313.0 52.37625691526371
11712.9 51.11146018252485
12126.0 49.87697114390046
12553.7 49.01094190034034
12996.1 46.955824700175995
13454.6 44.85082606968625
13929.2 42.37884593489834
14419.9 41.90265828211433
14928.2 42.57194310354724
15455.6 41.02114512997609
16000.5 38.752070417829756
16564.5 40.06551838205196
17148.9 41.28252200982594
17752.4 41.24506635719216
18379.4 40.84813855451266
19026.9 41.111400873856454
19697.8 40.79808765253311
19999.5 42.36003170269247
