Freq "Side Wall Bounce"
20.5078 52.397216106099364
21.9727 60.99908667257054
23.4375 65.13521289563587
24.9023 67.90704395481963
26.3672 70.56781727306941
27.832 72.67180818626173
29.2969 74.86138185557083
30.7617 76.68966235715044
32.2266 77.90510807846127
33.6914 79.0556299297694
35.1562 79.9432139498358
36.6211 80.61389056812554
38.0859 81.0803407845112
39.5508 81.47897186308512
41.0156 81.6707726241696
42.4805 81.71332823540351
43.9453 81.74131564649625
45.4102 81.54446075007291
46.875 81.4877674068868
48.3398 81.31965837524609
51.2695 81.34713733082111
52.7344 81.10750407759662
54.1992 81.04551887083781
55.6641 80.90838720930287
58.5938 80.66458103552537
60.0586 80.5779861322953
62.9883 80.29642344664279
64.4531 80.12989445612942
67.3828 79.90494513080927
68.8477 79.81722169534201
71.7773 79.62140993020863
74.707 79.57685484573219
77.6367 79.49362281938281
79.1016 79.52833912098932
82.0312 79.59482244109549
84.9609 79.73438752596968
87.8906 79.7587425298361
90.8203 79.71502611744896
95.2148 79.995350276687
98.1445 80.16544858538273
101.074 80.08196281350375
105.469 80.247343123354
108.398 80.51522900580784
112.793 80.50352949680703
117.188 80.56437719827042
120.117 80.67389785078487
124.512 80.76003448242275
128.906 80.81460376127754
133.301 80.83468526661471
139.16 80.8572010562314
143.555 80.62450518425864
147.949 80.58380979214981
153.809 80.44856025666431
159.668 80.47363524364374
165.527 80.26168623127668
171.387 79.98193867651457
177.246 79.84229469382245
183.105 79.87161592828579
188.965 79.39810641365813
196.289 79.22035292949715
203.613 79.14626080906521
210.938 79.01530510287697
218.262 78.58119482611579
225.586 79.03844216253651
232.91 79.21364312427643
241.699 79.01639288043063
250.488 79.55966453549816
259.277 79.52176462034838
268.066 79.35100165425077
276.855 79.65999392086061
287.109 79.93296158988622
297.363 79.87503872660909
307.617 79.57864743891264
319.336 79.2239530548048
329.59 78.98837995486112
341.309 78.78645828703193
353.027 79.33229063685306
366.211 79.8507964867508
379.395 80.0418222211136
392.578 79.3077700011187
405.762 78.81337846946636
420.41 79.4166554876479
435.059 78.95313103082773
451.172 79.5952252935435
465.82 79.25350940730857
483.398 78.70315886372492
499.512 78.08318205676602
517.09 78.19961500972398
536.133 78.68446478013925
555.176 78.51678450284341
574.219 78.83079909783976
594.727 78.55656863107315
615.234 78.5846208126406
637.207 78.57419758193319
659.18 78.17944608720225
682.617 79.05951937643744
707.52 78.37744892636717
732.422 78.20209893531718
757.324 76.9968251810886
785.156 76.39327118239294
811.523 77.64867267947524
840.82 77.9901765928815
870.117 77.20930482924084
900.879 78.01603737153388
933.105 78.55633842484718
965.332 78.73984615929375
1000.49 78.30280298763878
1035.64 77.27347224663049
1072.27 76.94474328235805
1108.89 78.10401923253737
1148.44 79.8796583442218
1189.45 79.8835698011406
1230.47 79.48274887246068
1274.41 78.94810080005465
1319.82 78.61885988248443
1366.7 77.26871624792476
1413.57 77.66996731365076
1463.38 78.19903684796843
1516.11 78.07678809344921
1568.85 77.73811826706378
1624.51 77.14257211208208
1681.64 76.64847421036684
1741.7 77.66746456521705
1803.22 77.81246914459403
1866.21 76.95464810841169
1932.13 76.60681219823475
1999.51 77.3651815812413
2069.82 78.0493666086425
2143.07 77.99289271244761
2219.24 77.52870801178645
2296.88 78.09238033706404
2378.91 78.04653642074044
2462.4 77.61675825241493
2548.83 77.7703017183059
2639.65 77.51058720478358
2731.93 77.13840585928685
2828.61 76.89301033956866
2928.22 76.53039770166971
3030.76 77.15621429540076
3137.7 77.56007364820924
3249.02 77.39720453952512
3363.28 77.48216572456508
3481.93 77.48675206218874
3604.98 76.54150152922895
3732.42 76.2917668188068
3864.26 75.76621938787868
4000.49 75.23746454943011
4141.11 75.05074869316604
4287.6 74.79809730857697
4438.48 74.0006760841449
4595.21 74.53445103810657
4756.35 74.83249486469109
4924.8 75.47949976049534
5097.66 75.16920283662293
5277.83 75.47112868797736
5463.87 75.65850515650577
5657.23 74.88392077089905
5856.45 75.26620581911779
6062.99 74.93631181316937
6276.86 74.8984212702731
6498.05 74.72813106277188
6726.56 74.70873941797623
6963.87 75.1826507463819
7209.96 75.59964694583752
7464.84 75.31871942089433
7727.05 75.09747618514982
7999.51 74.89321973083469
8282.23 74.96539562348221
8573.73 75.15079670231265
8876.95 75.24913333332215
9188.96 75.01150639490541
9514.16 74.61064938014061
9849.61 74.06156570197427
10196.8 73.6285088642411
10555.7 73.12604717298179
10927.7 72.35034551473271
11313.0 71.86739553441714
11712.9 71.2920355858744
12126.0 70.66758762665668
12553.7 69.88925067125967
12996.1 69.17046896760249
13454.6 68.61974873178178
13929.2 67.32099047810229
14419.9 65.86677948707681
14928.2 64.69296327192521
15455.6 63.934137442723426
16000.5 63.04077170728911
16564.5 61.790617424133586
17148.9 61.12145772501758
17752.4 60.93689315015304
18379.4 60.30794803009978
19026.9 59.401447091368894
19697.8 58.64291869669091
19999.5 58.337917270972454
