Freq,On Axis,Listening Window,Sound Power,Early Reflections,Early Reflections DI,Sound Power DI,DI offset
22.4,41.91012658227851,41.833572595900165,40.93623407546053,41.33359655931244,30.499976036587725,30.897338520439632,30
23.0,42.810126582278514,42.711155836280824,41.85658502002042,42.230945585597226,30.480210250683598,30.854570816260406,30
23.6,43.610126582278525,43.58835964736238,42.759273907088954,43.12054310804726,30.467816539315123,30.829085740273428,30
24.0,44.5101265822785,44.466224620413755,43.63320712455001,43.990486085947396,30.47573853446636,30.833017495863743,30
25.0,45.310126582278514,45.29990391633166,44.48871605851042,44.82727981010868,30.47262410622298,30.81118785782124,30
25.8,46.110126582278525,46.110900035284345,45.33894772104961,45.66611157602139,30.444788459262952,30.77195231423474,30
26.5,46.91012658227851,46.93280909914611,46.156012791024864,46.48177345158743,30.451035647558683,30.77679630812125,30
27.2,47.71012658227852,47.732809099146124,46.96732172705529,47.28430745989934,30.448501639246786,30.76548737209083,30
28.0,48.5101265822785,48.49990391633165,47.75762720764848,48.07380145076294,30.426102465568704,30.742276708683164,30
29.0,49.310126582278514,49.2883596473624,48.533357687566905,48.856143975774614,30.432215671587784,30.755001959795493,30
30.0,50.0101265822785,49.99990391633165,49.29596104497642,49.603819102105916,30.39608481422573,30.703942871355224,30
30.7,50.810126582278514,50.79990391633166,50.06527562991616,50.376808165907164,30.423095750424494,30.7346282864155,30
31.5,51.5101265822785,51.51090003528432,50.80796378905825,51.10498408745781,30.405915947826514,30.702936246226074,30
32.5,52.310126582278514,52.299903916331644,51.574467485767684,51.88314588888095,30.416758027450697,30.72543643056396,30
33.5,53.01012658227852,53.022378679506886,52.31653855751658,52.63092095839801,30.39145772110888,30.705840121990306,30
34.5,53.810126582278514,53.79990391633166,53.06725322986162,53.383996912289774,30.415907004041884,30.732650686470038,30
35.5,54.51012658227852,54.522378679506886,53.82664531953891,54.1423703174022,30.38000836210469,30.695733359967974,30
36.5,55.310126582278514,55.29990391633166,54.59936455158828,54.908957794690195,30.390946121641463,30.700539364743378,30
37.5,56.1101265822785,56.07833156334229,55.351853195108276,55.67518196467452,30.403149598667767,30.726478368234012,30
38.7,56.91012658227851,56.8783315633423,56.13514120896741,56.46986128358361,30.40847027975869,30.74319035437489,30
40.0,57.61012658227851,57.66725256701068,56.918089665688,57.24847055869117,30.41878200831951,30.749162901322677,30
41.2,58.41012658227851,58.444737734195,57.70142364491997,58.055513594593535,30.389224139601467,30.74331408927503,30
42.5,59.21012658227852,59.22237867950689,58.48824007216663,58.83901618454229,30.3833624949646,30.734138607340256,30
43.7,60.0101265822785,60.02237867950687,59.26465985535131,59.625668547114145,30.396710132392727,30.75771882415556,30
45.0,60.810126582278514,60.76672973196854,60.01610082866448,60.37196698274751,30.39476274922103,30.75062890330406,30
46.2,61.61012658227851,61.566729731968536,60.785469510460175,61.15686795382874,30.4098617781398,30.78126022150836,30
47.5,62.310126582278514,62.310900035284334,61.529002153905296,61.90288888398001,30.408011151304322,30.781897881379038,30
48.7,63.11012658227851,63.066729731968536,62.230437927741434,62.61873208465032,30.447997647318218,30.836291804227102,30
50.0,63.810126582278514,63.76672973196855,62.94618057909956,63.336135387688216,30.430594344280337,30.820549152868992,30
51.5,64.51012658227852,64.43305768475915,63.613253489635724,64.0066897331153,30.426367951643854,30.819804195123425,30
53.0,65.11012658227851,65.0883596473624,64.26288107666167,64.66590428484474,30.422455362517653,30.825478570700724,30
54.5,65.81012658227851,65.71063826031899,64.87750475836302,65.28364325868968,30.426995001629308,30.83313350195597,30
56.0,66.41012658227851,66.310638260319,65.48182497948503,65.88744102305965,30.423197237259345,30.82881328083397,30
58.0,67.01012658227852,66.91063826031899,66.05786871549701,66.4739726903342,30.436665569984797,30.85276954482198,30
60.0,67.5101265822785,67.4444839036141,66.58188530853427,66.99791514177888,30.446568761835223,30.86259859507983,30
61.5,68.11012658227851,67.97756402333533,67.12472855437322,67.55052153527132,30.427042488064018,30.852835468962112,30
63.0,68.6101265822785,68.47756402333533,67.59188470245542,68.01771397282944,30.459850050505892,30.885679320879916,30
65.0,69.01012658227852,68.9444839036141,68.05365493356751,68.47904875320934,30.46543515040476,30.890828970046584,30
67.0,69.51012658227852,69.37756402333534,68.47884666875656,68.90664585955345,30.47091816378189,30.89871735457878,30
69.0,69.91012658227851,69.77756402333534,68.89191954662053,69.32052856081722,30.45703546251812,30.885644476714816,30
71.0,70.31012658227851,70.15588013913712,69.23194114022986,69.66641688193008,30.48946325720705,30.92393899890726,30
73.0,70.61012658227851,70.48861677940762,69.56392137710081,70.00204088813246,30.486575891275166,30.92469540230681,30
75.0,70.91012658227851,70.78861677940762,69.87808842723103,70.31950542442571,30.469111354981905,30.910528352176584,30
77.5,71.21012658227852,71.05588013913713,70.12318153466927,70.56591128783636,30.489968851300773,30.93269860446786,30
80.0,71.41012658227851,71.30016036580496,70.36603450006567,70.81354992671716,30.486610439087798,30.93412586573929,30
82.5,71.61012658227851,71.50016036580494,70.55810492415836,71.00123770064678,30.49892266515816,30.942055441646588,30
85.0,71.81012658227851,71.72212353870589,70.76094206918202,71.2100460030859,30.51207753561998,30.961181469523865,30
87.5,72.01012658227852,71.88913698631485,70.93208569104982,71.38238906259693,30.506747923717924,30.957051295265032,30
90.0,72.21012658227852,72.05588013913712,71.10980237381813,71.56461049727113,30.491269641865983,30.94607776531899,30
92.5,72.31012658227851,72.24448390361411,71.2839435884705,71.74090009141328,30.50358381220083,30.960540315143604,30
95.0,72.5101265822785,72.4444839036141,71.42978022240025,71.8833396836975,30.5611442199166,31.014703681213845,30
97.5,72.71012658227852,72.58963944018963,71.59071563736384,72.05733094165272,30.532308498536906,30.998923802825786,30
100.0,72.81012658227851,72.74448390361411,71.71867272571893,72.1918023954638,30.552681508150314,31.02581117789518,30
103.0,72.91012658227851,72.8561452354924,71.81282518161285,72.29660729558495,30.559537939907457,31.043320053879555,30
106.0,73.01012658227852,72.9231323989326,71.85564475252689,72.34234692752393,30.58078547140866,31.06748764640571,30
109.0,73.01012658227852,72.9444839036141,71.84938623270105,72.3578054757736,30.586678427840496,31.09509767091305,30
112.0,73.01012658227852,72.9231323989326,71.78593323550272,72.30950878527314,30.613623613659456,31.13719916342987,30
115.0,72.91012658227851,72.8444839036141,71.70667837234984,72.24133021383304,30.603153689781067,31.137805531264263,30
118.0,72.91012658227851,72.7675109517439,71.6062139053266,72.15379330339776,30.61371764834614,31.161297046417303,30
122.0,72.81012658227851,72.74448390361411,71.54483831946943,72.1054946856049,30.638989218009215,31.199645584144676,30
125.0,72.81012658227851,72.74448390361411,71.53710489514509,72.11118051747268,30.633303386141435,31.20737900846902,30
128.0,72.91012658227851,72.8444839036141,71.60434423717422,72.18637440114242,30.65810950247169,31.240139666439887,30
132.0,73.01012658227852,72.95614523549241,71.72077319759826,72.3086513228366,30.64749391265582,31.23537203789415,30
136.0,73.31012658227851,73.17806781784351,71.9274683537543,72.51867594437455,30.659391873468962,31.250599464089206,30
140.0,73.51012658227853,73.44448390361411,72.1610023235722,72.74485353678529,30.699630366828828,31.283481580041908,30
145.0,73.81012658227851,73.68963944018962,72.41203740921594,72.99034924255605,30.699290197633573,31.277602030973682,30
150.0,74.11012658227851,73.93458472647968,72.63848975030234,73.21210628045348,30.7224784460262,31.296094976177343,30
155.0,74.31012658227851,74.14574726636421,72.80774225514362,73.38708071043794,30.75866655592627,31.338005011220588,30
160.0,74.51012658227852,74.29166662339382,72.84364758360962,73.44783397062356,30.84383265277026,31.4480190397842,30
165.0,74.51012658227852,74.2710282918873,72.72852990521974,73.37248927278785,30.89853901909946,31.54249838666756,30
170.0,74.51012658227852,74.19471594248799,72.45581390279426,73.1758677485588,31.018848193929188,31.738902039693727,30
175.0,74.31012658227851,74.05076454730865,72.06949064242791,72.91017684624737,31.14058770106128,31.981273904880737,30
180.0,74.11012658227851,73.79769378355986,71.57838557805627,72.5573586763575,31.24033510720237,32.219308205503594,30
185.0,73.81012658227851,73.50975544521603,71.01433890063026,72.15048910051226,31.35926634470377,32.495416544585765,30
190.0,73.51012658227853,73.19769378355988,70.44366593420327,71.73679271754945,31.460901066010436,32.75402784935662,30
195.0,73.21012658227852,72.87801383376991,69.92718100464286,71.34799353466605,31.530020299103867,32.95083282912705,30
200.0,72.91012658227851,72.6089514236725,69.5538986354843,71.08208992097498,31.526861502697514,33.05505278818819,30
206.0,72.81012658227851,72.5089514236725,69.3773949574977,70.97579609858923,31.53315532508327,33.1315564661748,30
212.0,72.81012658227851,72.56214433538821,69.39271882866574,71.0361101939564,31.526034141431808,33.169425506722476,30
218.0,73.01012658227852,72.76214433538821,69.5944037989975,71.25801208449202,31.50413225089619,33.16774053639071,30
224.0,73.21012658227852,73.05914201051326,69.94648100138167,71.61595756442017,31.443184446093085,33.112661009131585,30
230.0,73.41012658227851,73.35714019154813,70.29561407187632,71.9708614219966,31.386278769551524,33.06152611967181,30
236.0,73.51012658227853,73.51191150578362,70.4432677650947,72.12913317361132,31.382778332172293,33.06864374068891,30
240.0,73.51012658227853,73.41216724721282,70.33156757556397,72.0153626687044,31.396804578508423,33.080599671648855,30
250.0,73.51012658227853,73.31367268419375,70.11399149997149,71.79819075053175,31.515481933662002,33.19968118422226,30
258.0,73.6101265822785,73.39166662339383,70.01350173649716,71.73727363790778,31.654392985486055,33.37816488689667,30
265.0,73.81012658227851,73.55940690784249,70.00176551971917,71.79115635241179,31.768250555430697,33.557641388123315,30
272.0,74.11012658227851,73.85940690784248,70.11281961748675,71.99203939412948,31.867367513713006,33.746587290355734,30
280.0,74.41012658227851,74.1815766218395,70.28975788853192,72.25293574778927,31.92864087405023,33.89181873330757,30
290.0,74.41012658227851,74.1815766218395,70.1794040115004,72.22214129000552,31.959435331833973,34.0021726103391,30
300.0,74.11012658227851,73.91617155060769,69.83057659868203,71.94541860972032,31.970752940887365,34.08559495192566,30
307.0,74.11012658227851,73.8941781802347,69.73595679876667,71.89552698919596,31.998651191038746,34.15822138146804,30
315.0,74.31012658227851,73.99769378355988,69.81826090636427,71.99715366510848,32.0005401184514,34.17943287719561,30
325.0,74.21012658227852,73.97481447936889,69.77014124726222,71.95939254030989,32.015421939058996,34.20467323210667,30
335.0,74.11012658227851,73.92896432396608,69.72586052392299,71.90006532398323,32.02889899998286,34.203103800043095,30
345.0,74.11012658227851,73.91826347478637,69.79016034766903,71.93496039358993,31.98330308119644,34.12810312711734,30
355.0,74.01012658227852,73.86152634736176,69.86906391824941,71.9365441259209,31.924982221440857,33.99246242911235,30
365.0,73.91012658227851,73.76152634736177,69.8116726868856,71.83140266394882,31.930123683412944,33.949853660476165,30
375.0,73.81012658227851,73.58395453604564,69.60099772710932,71.5943720146647,31.98958252138094,33.98295680893632,30
387.0,73.81012658227851,73.5550303418592,69.3385856396097,71.3940136268774,32.1610167149818,34.21644470224949,30
400.0,73.91012658227851,73.57138165918406,69.02767640397745,71.20135405670295,32.3700276024811,34.5437052552066,30
412.0,74.11012658227851,73.65405527209151,68.77546772965667,71.08046882073315,32.573586451358366,34.87858754243484,30
425.0,74.41012658227851,73.84802577062081,68.67980445857143,71.09768443866207,32.75034133195874,35.16822131204938,30
437.0,74.71012658227852,74.0389994502354,68.64353017565676,71.1658404352009,32.87315901503449,35.39546927457863,30
450.0,75.0101265822785,74.19273103114367,68.55874039322967,71.2006327151769,32.99209831596677,35.633990637913996,30
462.0,75.11012658227851,74.36416780427076,68.54041404594585,71.28346140724757,33.08070639702319,35.82375375832491,30
475.0,75.11012658227851,74.48871711490867,68.7262986220845,71.45763316670764,33.03108394820103,35.76241849282417,30
487.0,75.0101265822785,74.47272214630014,68.97281746852838,71.58084655856527,32.89187558773487,35.49990467777177,30
500.0,74.81012658227851,74.3931868551951,69.15325181105547,71.5783464531954,32.8148404019997,35.23993504413963,30
515.0,74.81012658227851,74.37841852004075,69.32092346329452,71.57022602158774,32.80819249845301,35.057495056746234,30
530.0,74.91012658227851,74.51847612492276,69.56779516267811,71.76795072531714,32.75052539960562,34.95068096224465,30
545.0,75.21012658227852,74.78164597712502,69.7924377236743,72.12601978684714,32.655626190277886,34.98920825345073,30
560.0,75.61012658227851,75.16363466322042,70.03715897561553,72.56990435776149,32.593730305458934,35.126475687604895,30
580.0,75.81012658227851,75.3385570762333,70.21744488223419,72.86623069343382,32.47232638279948,35.12111219399911,30
600.0,75.91012658227851,75.38130723384407,70.2204598990362,73.0762769575243,32.30503027631977,35.16084733480787,30
615.0,75.71012658227852,75.19837072387811,69.92194846359192,73.02136950993881,32.177001213939306,35.276422260286196,30
630.0,75.41012658227851,74.87965136405535,69.59598032614784,72.81544829659998,32.06420306745537,35.28367103790751,30
650.0,75.11012658227851,74.59594375264061,69.43664344415004,72.64108900116479,31.95485475147582,35.15930030849057,30
670.0,75.0101265822785,74.49159222955312,69.24898380012887,72.48380065238425,32.007791577168874,35.24260842942425,30
690.0,75.0101265822785,74.5041829833212,69.01751619334644,72.31222022614186,32.19196275717934,35.48666678997476,30
710.0,75.11012658227851,74.55397912746434,68.85372520198696,72.21665135263453,32.33732777482982,35.700253925477384,30
730.0,75.21012658227852,74.50854283761993,68.47210386842877,72.07741639594592,32.43112644167401,36.03643896919115,30
750.0,75.21012658227852,74.38406631226007,67.87882192103073,71.7621733469512,32.621892965308874,36.50524439122934,30
775.0,75.21012658227852,74.26750090180039,67.57348355223496,71.64871433091227,32.61878657088812,36.69401734956543,30
800.0,75.11012658227851,74.08309574246016,67.45789757134011,71.69618463568976,32.3869111067704,36.62519817112005,30
825.0,74.91012658227851,74.00180488962559,67.4399648137277,71.73444245327613,32.26736243634946,36.56184007589789,30
850.0,74.71012658227852,74.00624050808565,67.66123872888404,71.6939089129762,32.312331595109455,36.34500177920161,30
875.0,74.41012658227851,73.92376244357874,68.0064022409624,71.51504442317032,32.408718020408415,35.91736020261634,30
900.0,74.21012658227852,73.79492132434142,68.09519030470791,71.33665623583359,32.45826508850783,35.699731019633504,30
925.0,74.21012658227852,73.65058902941126,67.5657830024644,70.89896472055864,32.75162430885263,36.084806026946865,30
950.0,74.41012658227851,73.55787573726016,66.4522637311218,70.18414779701102,33.37372794024914,37.10561200613836,30
975.0,74.41012658227851,73.74864991846385,66.43221441391191,70.32385336154859,33.42479655691527,37.31643550455195,30
1000.0,74.31012658227851,73.81412454396515,66.84868083097166,70.45629125340798,33.35783329055717,36.96544371299349,30
1030.0,74.21012658227852,73.61579003453636,66.40610869213275,69.9763783838804,33.63941165065596,37.20968134240361,30
1060.0,74.21012658227852,73.23078011256152,65.51477135478781,69.16894579644689,34.06183431611463,37.71600875777371,30
1090.0,74.31012658227851,73.12504328701041,64.99156243393803,68.69594033744254,34.42910294956788,38.133480853072385,30
1120.0,74.41012658227851,73.38263978414702,64.94721646853995,68.64834644613589,34.73429333801113,38.43542331560707,30
1150.0,74.41012658227851,73.21191919528559,64.31572741492832,68.23097650243848,34.98094269284711,38.89619178035727,30
1180.0,74.31012658227851,72.9572344979374,63.939040894500124,67.85385053812229,35.10338395981512,39.01819360343728,30
1220.0,74.11012658227851,72.80040025801753,63.718859530174484,67.57790492438338,35.22249533363416,39.08154072784305,30
1250.0,74.11012658227851,72.75676992097894,63.376412115231375,67.37520188504908,35.38156803592986,39.380357805747565,30
1280.0,74.21012658227852,72.96551695912748,63.41042138238724,67.44853549942287,35.51698145970461,39.55509557674024,30
1320.0,74.51012658227852,73.19460338076988,63.357860125753035,67.5895683101727,35.60503507059718,39.83674325501684,30
1360.0,75.0101265822785,73.41007178296313,63.639495689697384,67.9993584629961,35.41071331996703,39.770576093265745,30
1400.0,75.51012658227852,73.7033814239376,63.8332940379089,68.29428426344063,35.40909716049697,39.8700873860287,30
1450.0,75.41012658227851,73.7727801877854,64.36823624670035,68.56367082632882,35.20910936145658,39.40454394108505,30
1500.0,74.81012658227851,73.56366618590907,64.79612542114049,68.64616235573013,34.917503830178944,38.76754076476858,30
1550.0,74.51012658227852,73.5886861533985,64.88932280965356,68.52469887746486,35.06398727593364,38.699363343744935,30
1600.0,74.71012658227852,73.57243200929261,64.98015818880407,68.40927780763678,35.16315420165583,38.59227382048854,30
1650.0,74.81012658227851,73.94147163410125,65.59055386968257,69.036488683228,34.90498295087325,38.35091776441868,30
1700.0,74.91012658227851,73.86707350948025,65.73387076423441,69.06250552086618,34.80456798861407,38.13320274524584,30
1750.0,74.71012658227852,73.88454348461585,65.96893628997246,69.61838891618825,34.266154568427595,37.915607194643385,30
1800.0,74.81012658227851,74.21674047376257,66.17644107335295,70.18557152423776,34.03116894952481,38.04029940040962,30
1850.0,75.11012658227851,74.42480263403166,66.27329700501275,70.38891790523604,34.03588472879562,38.151505629018914,30
1900.0,75.71012658227852,74.66324546547963,65.94790858002688,70.27549556736844,34.387749898111196,38.71533688545276,30
1950.0,76.01012658227853,74.64351971990216,65.9725780634507,70.29514446158583,34.348375258316324,38.67094165645146,30
2000.0,75.51012658227852,74.42626462608682,65.96681455482694,70.19127761805122,34.2349870080356,38.45945007125988,30
2060.0,75.71012658227852,74.71351951304749,66.49056586468154,70.48600298529512,34.22751652775237,38.222953648365944,30
2120.0,76.1101265822785,74.89734823877086,66.88550740298302,70.6971132920479,34.20023494672296,38.01184083578784,30
2180.0,75.91012658227851,74.36643166842777,66.73475014412152,70.33751687381664,34.028914794611126,37.631681524306245,30
2240.0,75.11012658227851,73.73401166742956,66.48416723173563,69.8863308953521,33.84768077207745,37.24984443569393,30
2300.0,74.81012658227851,74.05551168881354,66.45246419685098,70.17812527594063,33.87738641287291,37.603047491962556,30
2360.0,74.71012658227852,73.93304599483395,66.0731412119296,70.10631057012452,33.826735424709426,37.85990478290435,30
2400.0,74.71012658227852,73.8188646202035,65.59959205809776,69.94866337657368,33.87020124362982,38.21927256210574,30
2500.0,75.0101265822785,73.7576476306786,65.18861480776368,69.82243469033875,33.93521294033985,38.56903282291492,30
2580.0,75.11012658227851,73.89886597278333,64.98107940065016,69.88016076474541,34.018705208037915,38.91778657213317,30
2650.0,75.31012658227851,74.02292455701658,64.77077285473526,69.85075697964486,34.172167577371724,39.252151702281324,30
2720.0,75.51012658227852,74.06460290829921,64.3824945487989,69.5376474644299,34.52695544386931,39.682108359500305,30
2800.0,75.71012658227852,74.16959011116242,64.48343146085861,69.39935988411922,34.7702302270432,39.68615865030381,30
