Freq "Listening Window"
22.4 41.833572595900165
23.0 42.711155836280824
23.6 43.58835964736238
24.0 44.466224620413755
25.0 45.29990391633166
25.8 46.110900035284345
26.5 46.93280909914611
27.2 47.732809099146124
28.0 48.49990391633165
29.0 49.2883596473624
30.0 49.99990391633165
30.7 50.79990391633166
31.5 51.51090003528432
32.5 52.299903916331644
33.5 53.022378679506886
34.5 53.79990391633166
35.5 54.522378679506886
36.5 55.29990391633166
37.5 56.07833156334229
38.7 56.8783315633423
40.0 57.66725256701068
41.2 58.444737734195
42.5 59.22237867950689
43.7 60.02237867950687
45.0 60.76672973196854
46.2 61.566729731968536
47.5 62.310900035284334
48.7 63.066729731968536
50.0 63.76672973196855
51.5 64.43305768475915
53.0 65.0883596473624
54.5 65.71063826031899
56.0 66.310638260319
58.0 66.91063826031899
60.0 67.4444839036141
61.5 67.97756402333533
63.0 68.47756402333533
65.0 68.9444839036141
67.0 69.37756402333534
69.0 69.77756402333534
71.0 70.15588013913712
73.0 70.48861677940762
75.0 70.78861677940762
77.5 71.05588013913713
80.0 71.30016036580496
82.5 71.50016036580494
85.0 71.72212353870589
87.5 71.88913698631485
90.0 72.05588013913712
92.5 72.24448390361411
95.0 72.4444839036141
97.5 72.58963944018963
100.0 72.74448390361411
103.0 72.8561452354924
106.0 72.9231323989326
109.0 72.9444839036141
112.0 72.9231323989326
115.0 72.8444839036141
118.0 72.7675109517439
122.0 72.74448390361411
125.0 72.74448390361411
128.0 72.8444839036141
132.0 72.95614523549241
136.0 73.17806781784351
140.0 73.44448390361411
145.0 73.68963944018962
150.0 73.93458472647968
155.0 74.14574726636421
160.0 74.29166662339382
165.0 74.2710282918873
170.0 74.19471594248799
175.0 74.05076454730865
180.0 73.79769378355986
185.0 73.50975544521603
190.0 73.19769378355988
195.0 72.87801383376991
200.0 72.6089514236725
206.0 72.5089514236725
212.0 72.56214433538821
218.0 72.76214433538821
224.0 73.05914201051326
230.0 73.35714019154813
236.0 73.51191150578362
240.0 73.41216724721282
250.0 73.31367268419375
258.0 73.39166662339383
265.0 73.55940690784249
272.0 73.85940690784248
280.0 74.1815766218395
290.0 74.1815766218395
300.0 73.91617155060769
307.0 73.8941781802347
315.0 73.99769378355988
325.0 73.97481447936889
335.0 73.92896432396608
345.0 73.91826347478637
355.0 73.86152634736176
365.0 73.76152634736177
375.0 73.58395453604564
387.0 73.5550303418592
400.0 73.57138165918406
412.0 73.65405527209151
425.0 73.84802577062081
437.0 74.0389994502354
450.0 74.19273103114367
462.0 74.36416780427076
475.0 74.48871711490867
487.0 74.47272214630014
500.0 74.3931868551951
515.0 74.37841852004075
530.0 74.51847612492276
545.0 74.78164597712502
560.0 75.16363466322042
580.0 75.3385570762333
600.0 75.38130723384407
615.0 75.19837072387811
630.0 74.87965136405535
650.0 74.59594375264061
670.0 74.49159222955312
690.0 74.5041829833212
710.0 74.55397912746434
730.0 74.50854283761993
750.0 74.38406631226007
775.0 74.26750090180039
800.0 74.08309574246016
825.0 74.00180488962559
850.0 74.00624050808565
875.0 73.92376244357874
900.0 73.79492132434142
925.0 73.65058902941126
950.0 73.55787573726016
975.0 73.74864991846385
1000.0 73.81412454396515
1030.0 73.61579003453636
1060.0 73.23078011256152
1090.0 73.12504328701041
1120.0 73.38263978414702
1150.0 73.21191919528559
1180.0 72.9572344979374
1220.0 72.80040025801753
1250.0 72.75676992097894
1280.0 72.96551695912748
1320.0 73.19460338076988
1360.0 73.41007178296313
1400.0 73.7033814239376
1450.0 73.7727801877854
1500.0 73.56366618590907
1550.0 73.5886861533985
1600.0 73.57243200929261
1650.0 73.94147163410125
1700.0 73.86707350948025
1750.0 73.88454348461585
1800.0 74.21674047376257
1850.0 74.42480263403166
1900.0 74.66324546547963
1950.0 74.64351971990216
2000.0 74.42626462608682
2060.0 74.71351951304749
2120.0 74.89734823877086
2180.0 74.36643166842777
2240.0 73.73401166742956
2300.0 74.05551168881354
2360.0 73.93304599483395
2400.0 73.8188646202035
2500.0 73.7576476306786
2580.0 73.89886597278333
2650.0 74.02292455701658
2720.0 74.06460290829921
2800.0 74.16959011116242
2900.0 74.60702775845601
3000.0 74.48066447868285
3070.0 74.27964466229824
3150.0 74.00917290275848
3250.0 73.57217164867676
3350.0 73.40353562623078
3450.0 72.44617069717376
3550.0 71.68530215124785
3650.0 71.63424364317223
3750.0 72.30694368434737
3870.0 72.49319601859466
4000.0 72.78639223685175
4120.0 73.23090769879659
4250.0 73.41145577654207
4370.0 73.48110784741215
4500.0 72.37681075273483
4620.0 71.44855072007853
4750.0 71.72475094011199
4870.0 72.44888775076052
5000.0 72.75624681951538
5150.0 71.8376569656776
5300.0 71.88739646713918
5450.0 72.13251044381315
5600.0 72.10871641318657
5800.0 71.84264532843454
6000.0 72.49722929826078
6150.0 72.73936552559465
6300.0 72.52953061780228
6500.0 71.41583816408038
6700.0 70.41787363273993
6900.0 71.06643015084765
7100.0 70.95999299084279
7300.0 71.64934804807017
7500.0 72.10179795117794
7750.0 72.81490393536535
8000.0 72.74492640591701
8250.0 72.43662727250745
8500.0 73.52771910298291
8750.0 75.05339969341298
9000.0 73.72844153204144
9250.0 73.02300824568897
9500.0 73.93927358780046
9750.0 72.72729492537029
10000.0 72.70515761381571
10300.0 71.52819492517563
10600.0 69.49022375998629
10900.0 68.4460649640529
11200.0 69.57855280048548
11500.0 67.80131492054741
11800.0 69.92261914699175
12200.0 75.78992750141732
12500.0 73.38800589388796
12800.0 69.98444695888395
13200.0 72.60199941025972
13600.0 70.33165640800489
14000.0 70.45818649458373
14500.0 68.04068914722335
15000.0 67.76572735639736
15500.0 66.28658931757717
16000.0 65.20832007614798
16500.0 65.16187207750704
17000.0 63.9049265046079
17500.0 62.436377878357476
18000.0 61.951131584809175
18500.0 62.80813226684617
19000.0 62.921813443662046
19500.0 59.62306834716442
