Freq,On Axis,Listening Window,Sound Power,Early Reflections,Early Reflections DI,Sound Power DI,DI offset
22.4,31.550632911392412,32.506535875919624,31.41296773721622,31.812665653450054,30.69387022246957,31.093568138703404,30
23.0,33.15063291139241,33.993749068965016,32.92232626874325,33.315635462169,30.678113606796018,31.071422800221768,30
23.6,34.65063291139241,35.359805901523416,34.360563908126,34.73460177589162,30.625204125631797,30.99924199339742,30
24.0,35.7506329113924,36.42802874648858,35.50939715192429,35.87073546886138,30.557293277627195,30.91863159456429,30
25.0,37.2506329113924,37.810999422410205,36.92022821487133,37.25006066728103,30.560938755129172,30.890771207538876,30
25.8,38.7506329113924,39.216346648454376,38.36442448655255,38.703048863251226,30.51329778520315,30.851922161901825,30
26.5,40.350632911392395,40.68741993569721,39.92979196966179,40.22865782977753,30.458762105919675,30.757627966035415,30
27.2,42.45063291139242,42.7617705406776,42.05610212011506,42.34344160919572,30.41832893148188,30.705668420562546,30
28.0,44.05063291139241,44.24588393912951,43.61156360986364,43.873384394695066,30.372499544434447,30.634320329265876,30
29.0,45.55063291139241,45.67825097004312,45.0879543249777,45.34220773810573,30.336043231937396,30.590296645065422,30
30.0,46.95063291139242,47.121450883866785,46.54672789652419,46.78706461433903,30.334386269527755,30.574722987342597,30
30.7,48.2506329113924,48.36471243381989,47.8254359404804,48.063386117980784,30.301326315839106,30.539276493339486,30
31.5,49.55063291139241,49.664712433819886,49.14045492001378,49.364831611361566,30.29988082245832,30.524257513806106,30
32.5,51.05063291139241,51.09794088436014,50.61724078891933,50.830380300365675,30.267560583994467,30.48070009544081,30
33.5,52.7506329113924,52.819617028237175,52.332915758080546,52.53915547559161,30.280461552645562,30.48670127015663,30
34.5,54.55063291139241,54.63092287924151,54.18823831023319,54.38120343811515,30.24971944112636,30.44268456900832,30
35.5,55.950632911392404,55.996386468251,55.56365486331417,55.74471309550614,30.25167337274486,30.432731604936833,30
36.5,57.2506329113924,57.296386468251015,56.87899909549121,57.05957565152356,30.236810816727456,30.417387372759805,30
37.5,58.2506329113924,58.307752877387756,57.937994808522106,58.11198702745865,30.195765849929103,30.36975806886565,30
38.7,59.35063291139241,59.42938022534368,59.04862623927228,59.217780248869545,30.211599976474133,30.380753986071397,30
40.0,60.7506329113924,60.829380225343655,60.449531830904036,60.61367410139928,30.215706123944372,30.37984839443962,30
41.2,61.85063291139241,61.95140040584802,61.561174313944164,61.729143809541654,30.222256596306366,30.390226091903855,30
42.5,62.7506329113924,62.829380225343655,62.46956673322093,62.638681849468156,30.1906983758755,30.359813492122726,30
43.7,63.55063291139241,63.59536186196961,63.24529463208559,63.402258170652416,30.19310369131719,30.35006722988402,30
45.0,64.1506329113924,64.15114458943289,63.79889917528499,63.96023509503324,30.190909494399648,30.3522454141479,30
46.2,64.85063291139241,64.86236876850826,64.50567457244367,64.65958221889423,30.202786549614032,30.356694196064595,30
47.5,65.3506329113924,65.38422273827237,65.0301745953149,65.19144433490341,30.192778403368962,30.354048142957467,30
48.7,65.7506329113924,65.77305497059758,65.4350142535376,65.59084812885085,30.182206841746734,30.338040717059982,30
50.0,66.05063291139241,66.08422273827237,65.75367059310754,65.91087022354995,30.173352514722424,30.33055214516483,30
51.5,66.2506329113924,66.28422273827239,65.98757683398561,66.13474287900185,30.149479859270542,30.296645904286777,30
53.0,66.55063291139241,66.55063291139241,66.26891553869936,66.40863235097996,30.142000560412455,30.281717372693052,30
54.5,66.7506329113924,66.78422273827238,66.52426664064721,66.66033229136802,30.123890446904355,30.259956097625164,30
56.0,67.05063291139241,67.08422273827239,66.79796898148538,66.92499581258171,30.159226925690675,30.286253756787005,30
58.0,67.45063291139242,67.40647248825017,67.16906960323595,67.29720420057161,30.10926828767856,30.23740288501422,30
60.0,67.7506329113924,67.70647248825016,67.48412445650574,67.59997557813612,30.106496910114032,30.222348031744417,30
61.5,68.05063291139241,68.08422273827239,67.85524210350565,67.96984552908437,30.11437720918802,30.228980634766742,30
63.0,68.4506329113924,68.40647248825017,68.19768995997084,68.30532002669396,30.10115246155621,30.20878252827933,30
65.0,68.7506329113924,68.70647248825016,68.50199022463774,68.59893096327464,30.107541524975517,30.20448226361242,30
67.0,68.95063291139239,68.90647248825016,68.71745025580861,68.80694790185022,30.099524586399937,30.189022232441545,30
69.0,69.1506329113924,69.10647248825016,68.90768169304955,68.99643532033484,30.110037167915323,30.19879079520061,30
71.0,69.2506329113924,69.20647248825017,69.00338300578143,69.09442235457381,30.112050133676362,30.20308948246874,30
73.0,69.2506329113924,69.20647248825017,69.02702546558332,69.11094034231834,30.095532145931827,30.17944702266685,30
75.0,69.2506329113924,69.29536186196961,69.05778473659127,69.15424189425607,30.141119967713536,30.237577125378337,30
77.5,69.35063291139241,69.30647248825017,69.06331715198577,69.17653149411801,30.129940994132156,30.243155336264394,30
80.0,69.35063291139241,69.38422273827238,69.09378626390598,69.22177706519643,30.16244567307595,30.290436474366402,30
82.5,69.55063291139241,69.50647248825018,69.1862906825836,69.33067190652991,30.175800581720267,30.32018180566658,30
85.0,69.7506329113924,69.6953618619696,69.33118172700715,69.49588134299465,30.19948051897495,30.364180134962453,30
87.5,69.95063291139242,69.9288659764763,69.5148298516431,69.7074198573329,30.22144611914341,30.414036124833203,30
90.0,70.1506329113924,70.18422273827238,69.73560453723135,69.94486655788086,30.239356180391525,30.44861820104103,30
92.5,70.3506329113924,70.38422273827237,69.90721615217174,70.12765864030679,30.25656409796558,30.47700658610063,30
95.0,70.55063291139241,70.56185841125084,70.06966964340478,70.29960319866309,30.262255212587746,30.49218876784606,30
97.5,70.7506329113924,70.72860882920618,70.22520031333684,70.45722398567881,30.271384843527372,30.50340851586934,30
100.0,70.9506329113924,70.87356401387304,70.34867443327725,70.60031893800311,30.273245075869923,30.524889580595783,30
103.0,71.05063291139241,71.02860882920619,70.4616423317632,70.72192092561926,30.306687903586933,30.56696649744299,30
106.0,71.1506329113924,71.12860882920619,70.54458277216442,70.81718238371457,30.31142644549162,30.58402605704177,30
109.0,71.35063291139242,71.27356401387304,70.63341200280946,70.92920205596751,30.344361957905534,30.640152011063577,30
112.0,71.55063291139241,71.45114458943289,70.7430920247554,71.06896361372638,30.382180975706504,30.708052564677487,30
115.0,71.6506329113924,71.60647248825016,70.85230125525356,71.20151642445953,30.404956063790635,30.754171232996597,30
118.0,71.85063291139241,71.78473047431451,70.97625940190015,71.35304828268936,30.431682191625157,30.808471072414363,30
122.0,71.9506329113924,71.92860882920618,71.09324144913408,71.50730756136119,30.421301267844996,30.8353673800721,30
125.0,72.1506329113924,72.12860882920619,71.25787141197092,71.69149309121292,30.437115737993267,30.87073741723526,30
128.0,72.2506329113924,72.26185841125083,71.41331907717496,71.83486795651062,30.426990454740206,30.848539334075866,30
132.0,72.35063291139241,72.36185841125084,71.58508045123715,71.98734966090268,30.374508750348156,30.77677796001369,30
136.0,72.45063291139242,72.45063291139242,71.76060434762603,72.1152911081674,30.33534180322502,30.69002856376639,30
140.0,72.55063291139241,72.52860882920619,71.89250012520827,72.21523794665578,30.313370882550416,30.63610870399792,30
145.0,72.55063291139241,72.52860882920619,71.98497577812584,72.241921151315,30.286687677891194,30.54363305108035,30
150.0,72.45063291139242,72.43989132670303,71.96357500958719,72.17573082351043,30.2641605031926,30.476316317115845,30
155.0,72.35063291139241,72.31781256515235,71.8481019392522,72.05735358672207,30.26045897843028,30.46971062590015,30
160.0,72.2506329113924,72.17356401387303,71.63056558096561,71.86078514132645,30.312778872546588,30.542998432907424,30
165.0,72.1506329113924,72.00749447692284,71.32154074576624,71.61098509172177,30.39650938520107,30.6859537311566,30
170.0,71.9506329113924,71.83013978151209,70.9778988165232,71.35614521498725,30.473994566524837,30.852240964988894,30
175.0,71.85063291139241,71.6961273905912,70.65368992330502,71.11970638347746,30.576421007113737,31.042437467286177,30
180.0,71.7506329113924,71.5961273905912,70.40290598520079,70.966923813023,30.629203577568205,31.193221405390418,30
185.0,71.6506329113924,71.53013978151209,70.2099322417726,70.82809036996491,30.70204941154718,31.320207539739485,30
190.0,71.6506329113924,71.50749447692283,70.16987362062608,70.8173781371169,30.690116339805925,31.337620856296752,30
195.0,71.6506329113924,71.55215612089421,70.20596883998915,70.84423980047372,30.707916320420495,31.346187280905056,30
200.0,71.6506329113924,71.57356401387304,70.29150218361072,70.90492084044604,30.668643173427,31.28206183026232,30
206.0,71.6506329113924,71.58473047431453,70.33205986730594,70.94362221536922,30.64110825894531,31.252670607008582,30
212.0,71.6506329113924,71.57356401387304,70.31486743047044,70.93611832166145,30.637445692211585,31.258696583402596,30
218.0,71.55063291139241,71.48473047431452,70.21953569190217,70.8477571687044,30.636973305610113,31.26519478241235,30
224.0,71.45063291139239,71.38473047431451,70.1234399748634,70.74214907817228,30.642581396142234,31.261290499451107,30
230.0,71.35063291139242,71.26337768938278,69.99473617071635,70.62057628367957,30.64280140570321,31.268641518666428,30
236.0,71.35063291139242,71.17483070440154,69.78715585029265,70.47321510325466,30.701615601146884,31.387674854108894,30
240.0,71.2506329113924,71.10900963676222,69.58714434681808,70.3610041272747,30.748005509487527,31.521865289944145,30
250.0,71.2506329113924,71.16337768938278,69.4587697956251,70.32567624857795,30.837701440804835,31.704607893757682,30
258.0,71.35063291139242,71.20749447692282,69.40540735925264,70.34892920793581,30.858565268987007,31.802087117670183,30
265.0,71.35063291139242,71.26337768938278,69.36568899140936,70.3508725278097,30.91250516157308,31.89768869797342,30
272.0,71.45063291139239,71.2961273905912,69.34013970549408,70.35893978710122,30.937187603489974,31.955987685097114,30
280.0,71.55063291139241,71.3862535954781,69.27698053144924,70.34511796044751,31.041135635030585,32.109273064028855,30
290.0,71.6506329113924,71.50900963676222,69.18456863698785,70.37508044264027,31.133929194121947,32.32444099977437,30
300.0,71.7506329113924,71.63113308231699,69.13193577650632,70.41465842108536,31.21647466123163,32.49919730581067,30
307.0,71.7506329113924,71.65215612089422,69.09347504107842,70.39969043347297,31.25246568742125,32.5586810798158,30
315.0,71.7506329113924,71.65215612089422,68.99197240888621,70.33557872144941,31.31657739944481,32.660183712008006,30
325.0,71.7506329113924,71.65215612089422,68.9614041750295,70.31080684217444,31.341349278719775,32.69075194586472,30
335.0,71.7506329113924,71.70697762986475,69.08067512709077,70.39900353298812,31.307974096876634,32.62630250277398,30
345.0,71.9506329113924,71.90697762986474,69.30066125494294,70.60812526776911,31.29885236209563,32.6063163749218,30
355.0,72.1506329113924,72.12860882920619,69.52591574478785,70.85827338026608,31.270335448940102,32.602693084418334,30
365.0,72.2506329113924,72.27356401387304,69.71775733963771,71.06230542001406,31.211258593858986,32.55580667423533,30
375.0,72.35063291139241,72.35063291139241,69.88097371131344,71.21743493625199,31.13319797514042,32.469659200078965,30
387.0,72.45063291139242,72.45063291139242,70.06591091810355,71.39447940904827,31.056153502344145,32.38472199328886,30
400.0,72.55063291139241,72.55063291139241,70.21695426066785,71.528035600608,31.022597310784406,32.333678650724565,30
412.0,72.7506329113924,72.66185841125083,70.26131785187626,71.59501511938359,31.066843291867244,32.400540559374576,30
425.0,72.8506329113924,72.73989132670302,70.20749695659741,71.6136192736726,31.12627205303042,32.53239437010561,30
437.0,72.8506329113924,72.71781256515236,70.10572437464674,71.57054199823435,31.14727056691801,32.61208819050562,30
450.0,72.8506329113924,72.63040282558966,69.9395508949322,71.44418152826461,31.186221297325048,32.69085193065746,30
462.0,72.8506329113924,72.63191001562485,69.9149182785885,71.40067423102023,31.23123578460462,32.71699173703635,30
475.0,73.05063291139241,72.72313112726708,69.96600621800738,71.40033888312156,31.322792244145518,32.7571249092597,30
487.0,73.1506329113924,72.81453489215282,69.92328114765401,71.35920154917618,31.455333342976644,32.89125374449881,30
500.0,73.1506329113924,72.81453489215282,69.77066835759764,71.24925632481299,31.56527856733983,33.04386653455518,30
515.0,72.9506329113924,72.70265066450209,69.6489511240013,71.10858819871787,31.59406246578422,33.05369954050079,30
530.0,72.8506329113924,72.59474716593466,69.56281446688799,70.99100017722411,31.603746988710554,33.03193269904668,30
545.0,72.7506329113924,72.41056069295554,69.30707923515897,70.74631576027882,31.664244932676723,33.103481457796576,30
560.0,72.55063291139241,72.2797010572249,69.00973928602771,70.498775384315,31.780925672909902,33.26996177119719,30
580.0,72.45063291139242,72.1226992548467,68.73774894209798,70.28735653953534,31.835342715311356,33.384950312748714,30
600.0,72.35063291139241,72.01056069295556,68.37339832985015,70.0681395557994,31.94242113715616,33.63716236310542,30
615.0,72.1506329113924,71.90664685061746,68.04171425888148,69.88603458558357,32.02061226503389,33.86493259173598,30
630.0,72.1506329113924,71.82717046270086,67.86679850709963,69.79583275205671,32.03133771064415,33.96037195560123,30
650.0,72.1506329113924,71.83651201493092,67.73461299183144,69.76720688002786,32.06930513490306,34.10189902309948,30
670.0,72.1506329113924,71.86904181435351,67.59936206529238,69.75818853628671,32.1108532780668,34.269679749061126,30
690.0,72.2506329113924,72.01159888376371,67.66229171290367,69.91434286862696,32.09725601513675,34.349307170860044,30
710.0,72.35063291139241,72.04791100505925,67.76864671516776,70.0407908764741,32.00712012858514,34.279264289891486,30
730.0,72.2506329113924,72.0154983343224,67.6609325557973,70.01821185002134,31.997286484301057,34.3545657785251,30
750.0,72.1506329113924,71.87585687187304,67.5346151295398,69.9485356818195,31.927321190053547,34.34124174233324,30
775.0,72.05063291139241,71.77777822763782,67.47183341292546,69.89759162522338,31.88018660241444,34.30594481471236,30
800.0,71.9506329113924,71.64952134132973,67.41879129283207,69.8484420313713,31.801079309958425,34.23073004849766,30
825.0,71.85063291139241,71.624467201158,67.41398182864619,69.86822522386528,31.756241977292717,34.21048537251181,30
850.0,71.7506329113924,71.524467201158,67.37662133511104,69.83085100536867,31.693616195789332,34.147845866046964,30
875.0,71.6506329113924,71.40126263982496,67.31652425372404,69.74747440796617,31.653788231858798,34.08473838610092,30
900.0,71.6506329113924,71.36000116908882,67.27886848849418,69.72208314187303,31.63791802721579,34.081132680594635,30
925.0,71.6506329113924,71.28542888841636,67.24216870020742,69.68948605932017,31.595942829096188,34.04326018820895,30
950.0,71.55063291139241,71.18748309417849,67.16342304316873,69.62502971822316,31.56245337595533,34.024060051009755,30
975.0,71.45063291139239,71.13288665990795,67.04170751392,69.51957703652113,31.613309623386826,34.09117914598795,30
1000.0,71.55063291139241,71.13698138601227,66.97644815713318,69.51567272766628,31.62130865834598,34.16053322887909,30
1030.0,71.55063291139241,71.11168385894955,66.89825806678101,69.4811934479275,31.630490411022052,34.213425792168536,30
1060.0,71.6506329113924,71.20184540861253,66.90121985451844,69.49556067283088,31.70628473578165,34.30062555409408,30
1090.0,71.9506329113924,71.45895396431254,67.04512319095834,69.66703689822202,31.79191706609052,34.413830773354206,30
1120.0,72.05063291139241,71.65686128731635,67.15804246077316,69.85461860600309,31.80224268131326,34.498818826543186,30
1150.0,72.1506329113924,71.78838596232397,67.29889397358524,70.07248217765641,31.71590378466756,34.489491988738735,30
1180.0,72.2506329113924,71.90884204421478,67.39824587088162,70.26686361652467,31.641978427690105,34.510596173333155,30
1220.0,72.35063291139241,72.01081309206768,67.5321843089473,70.44674011214063,31.564072979927047,34.478628783120385,30
1250.0,72.45063291139242,72.0356245917815,67.5288208118831,70.47714384977436,31.558480742007134,34.506803779898405,30
1280.0,72.55063291139241,72.12295094950686,67.55739756019777,70.53693810365544,31.586012845851414,34.56555338930909,30
1320.0,72.55063291139241,72.14955053769401,67.47316397629567,70.47826841153447,31.67128212615954,34.676386561398346,30
1360.0,72.35063291139241,71.9389271388821,67.17497370371245,70.22838618261275,31.71054095626934,34.76395343516964,30
1400.0,72.2506329113924,71.7793117969434,66.83712650867604,69.94075888937493,31.83855290756847,34.94218528826737,30
1450.0,72.1506329113924,71.68863737253001,66.53256063500726,69.63935778378084,32.04927958874917,35.15607673752275,30
1500.0,72.1506329113924,71.61171817436814,66.21837588296086,69.31401660497804,32.2977015693901,35.39334229140728,30
1550.0,71.9506329113924,71.42997276038207,65.86009849882436,68.96382857755225,32.46614418282982,35.569874261557715,30
1600.0,71.7506329113924,71.25458240953091,65.57205910367229,68.65620753741034,32.59837487212057,35.68252330585862,30
1650.0,71.55063291139241,71.03308051230168,65.15003107129105,68.28329148893786,32.74978902336382,35.88304944101063,30
1700.0,71.35063291139242,70.80112104326825,64.80298725659519,67.97728916027316,32.823831882995094,35.998133786673066,30
1750.0,71.1506329113924,70.6293647491458,64.50107551489833,67.70242859294063,32.92693615620516,36.12828923424746,30
1800.0,71.05063291139241,70.47416677957303,64.25667215368922,67.47354558604154,33.00062119353149,36.2174946258838,30
1850.0,71.05063291139241,70.4146980858217,64.10406896109464,67.3447450637495,33.0699530220722,36.31062912472706,30
1900.0,71.05063291139241,70.52593351641856,64.11427506572063,67.36888950382664,33.157044012591925,36.41165845069793,30
1950.0,71.05063291139241,70.49495742622722,64.04185323131287,67.30908714259377,33.18587028363345,36.453104194914346,30
2000.0,71.05063291139241,70.52928970852474,64.00166920560648,67.31707173218611,33.212217976338636,36.52762050291827,30
2060.0,71.05063291139241,70.51537105732454,63.9505745306076,67.28409016051697,33.231280896807576,36.56479652671695,30
2120.0,71.05063291139241,70.51007394255429,63.89081067920402,67.26082211236601,33.24925183018827,36.61926326335026,30
2180.0,71.05063291139241,70.53928699545942,63.82484335730251,67.21463427170501,33.32465272375441,36.71444363815691,30
2240.0,70.9506329113924,70.45218427454829,63.737628088852304,67.12770288733414,33.32448138721415,36.71455618569598,30
2300.0,70.7506329113924,70.35969726788001,63.5954208125881,66.99963175584479,33.36006551203522,36.764276455291906,30
2360.0,70.55063291139241,70.14738107978663,63.32241722759852,66.76899335380189,33.37838772598474,36.824963852188105,30
2400.0,70.4506329113924,70.02348397143821,63.134261555933605,66.62937113031303,33.39411284112518,36.889222415504605,30
2500.0,70.4506329113924,69.98158268505057,62.984261539782665,66.50776624658705,33.473816438463516,36.997321145267904,30
2580.0,70.4506329113924,70.04663105426731,62.91543283289879,66.4877871774019,33.55884387686541,37.13119822136852,30
2650.0,70.55063291139241,70.12625878749175,62.88700645805042,66.50104866669078,33.62521012080097,37.23925232944133,30
2720.0,70.7506329113924,70.28923020804466,62.920480504655174,66.59486201054781,33.69436819749684,37.36874970338948,30
2800.0,70.85063291139241,70.4388447047396,62.890654959811016,66.63872856408086,33.80011614065873,37.54818974492858,30
