Freq "Sound Power"
22.4 31.41296773721622
23.0 32.92232626874325
23.6 34.360563908126
24.0 35.50939715192429
25.0 36.92022821487133
25.8 38.36442448655255
26.5 39.92979196966179
27.2 42.05610212011506
28.0 43.61156360986364
29.0 45.0879543249777
30.0 46.54672789652419
30.7 47.8254359404804
31.5 49.14045492001378
32.5 50.61724078891933
33.5 52.332915758080546
34.5 54.18823831023319
35.5 55.56365486331417
36.5 56.87899909549121
37.5 57.937994808522106
38.7 59.04862623927228
40.0 60.449531830904036
41.2 61.561174313944164
42.5 62.46956673322093
43.7 63.24529463208559
45.0 63.79889917528499
46.2 64.50567457244367
47.5 65.0301745953149
48.7 65.4350142535376
50.0 65.75367059310754
51.5 65.98757683398561
53.0 66.26891553869936
54.5 66.52426664064721
56.0 66.79796898148538
58.0 67.16906960323595
60.0 67.48412445650574
61.5 67.85524210350565
63.0 68.19768995997084
65.0 68.50199022463774
67.0 68.71745025580861
69.0 68.90768169304955
71.0 69.00338300578143
73.0 69.02702546558332
75.0 69.05778473659127
77.5 69.06331715198577
80.0 69.09378626390598
82.5 69.1862906825836
85.0 69.33118172700715
87.5 69.5148298516431
90.0 69.73560453723135
92.5 69.90721615217174
95.0 70.06966964340478
97.5 70.22520031333684
100.0 70.34867443327725
103.0 70.4616423317632
106.0 70.54458277216442
109.0 70.63341200280946
112.0 70.7430920247554
115.0 70.85230125525356
118.0 70.97625940190015
122.0 71.09324144913408
125.0 71.25787141197092
128.0 71.41331907717496
132.0 71.58508045123715
136.0 71.76060434762603
140.0 71.89250012520827
145.0 71.98497577812584
150.0 71.96357500958719
155.0 71.8481019392522
160.0 71.63056558096561
165.0 71.32154074576624
170.0 70.9778988165232
175.0 70.65368992330502
180.0 70.40290598520079
185.0 70.2099322417726
190.0 70.16987362062608
195.0 70.20596883998915
200.0 70.29150218361072
206.0 70.33205986730594
212.0 70.31486743047044
218.0 70.21953569190217
224.0 70.1234399748634
230.0 69.99473617071635
236.0 69.78715585029265
240.0 69.58714434681808
250.0 69.4587697956251
258.0 69.40540735925264
265.0 69.36568899140936
272.0 69.34013970549408
280.0 69.27698053144924
290.0 69.18456863698785
300.0 69.13193577650632
307.0 69.09347504107842
315.0 68.99197240888621
325.0 68.9614041750295
335.0 69.08067512709077
345.0 69.30066125494294
355.0 69.52591574478785
365.0 69.71775733963771
375.0 69.88097371131344
387.0 70.06591091810355
400.0 70.21695426066785
412.0 70.26131785187626
425.0 70.20749695659741
437.0 70.10572437464674
450.0 69.9395508949322
462.0 69.9149182785885
475.0 69.96600621800738
487.0 69.92328114765401
500.0 69.77066835759764
515.0 69.6489511240013
530.0 69.56281446688799
545.0 69.30707923515897
560.0 69.00973928602771
580.0 68.73774894209798
600.0 68.37339832985015
615.0 68.04171425888148
630.0 67.86679850709963
650.0 67.73461299183144
670.0 67.59936206529238
690.0 67.66229171290367
710.0 67.76864671516776
730.0 67.6609325557973
750.0 67.5346151295398
775.0 67.47183341292546
800.0 67.41879129283207
825.0 67.41398182864619
850.0 67.37662133511104
875.0 67.31652425372404
900.0 67.27886848849418
925.0 67.24216870020742
950.0 67.16342304316873
975.0 67.04170751392
1000.0 66.97644815713318
1030.0 66.89825806678101
1060.0 66.90121985451844
1090.0 67.04512319095834
1120.0 67.15804246077316
1150.0 67.29889397358524
1180.0 67.39824587088162
1220.0 67.5321843089473
1250.0 67.5288208118831
1280.0 67.55739756019777
1320.0 67.47316397629567
1360.0 67.17497370371245
1400.0 66.83712650867604
1450.0 66.53256063500726
1500.0 66.21837588296086
1550.0 65.86009849882436
1600.0 65.57205910367229
1650.0 65.15003107129105
1700.0 64.80298725659519
1750.0 64.50107551489833
1800.0 64.25667215368922
1850.0 64.10406896109464
1900.0 64.11427506572063
1950.0 64.04185323131287
2000.0 64.00166920560648
2060.0 63.9505745306076
2120.0 63.89081067920402
2180.0 63.82484335730251
2240.0 63.737628088852304
2300.0 63.5954208125881
2360.0 63.32241722759852
2400.0 63.134261555933605
2500.0 62.984261539782665
2580.0 62.91543283289879
2650.0 62.88700645805042
2720.0 62.920480504655174
2800.0 62.890654959811016
2900.0 62.88787747108732
3000.0 62.81905245821501
3070.0 62.855488822298824
3150.0 62.87882307269007
3250.0 62.818391490778836
3350.0 62.750102884075005
3450.0 62.70294299470585
3550.0 62.680044478560646
3650.0 62.642205921997785
3750.0 62.609955874435954
3870.0 62.56848177075106
4000.0 62.568398901858075
4120.0 62.53241361407083
4250.0 62.4807918379489
4370.0 62.47816471596262
4500.0 62.426011839424845
4620.0 62.293018699848616
4750.0 62.05415514760257
4870.0 61.758289539291084
5000.0 61.530305179517256
5150.0 61.54829935079526
5300.0 61.66446411008367
5450.0 61.557289655505244
5600.0 61.41842895224288
5800.0 61.34792742694607
6000.0 61.42083034807793
6150.0 61.48252116115654
6300.0 61.49654760151461
6500.0 61.4492419191845
6700.0 61.29481841263076
6900.0 61.326024854642654
7100.0 61.40055950428193
7300.0 61.58732586265826
7500.0 61.709493862112964
7750.0 61.8088389186217
8000.0 61.810385315467656
8250.0 61.811127457874775
8500.0 61.79955212478713
8750.0 61.78324791065768
9000.0 61.92522945123072
9250.0 61.94355081365089
9500.0 61.9701786015567
9750.0 61.90008316676243
10000.0 61.708182414669466
10300.0 61.516603189685284
10600.0 61.28706677722745
10900.0 60.958176731680624
11200.0 60.56608152742301
11500.0 60.007278422420015
11800.0 59.19032218532159
12200.0 58.45236883561013
12500.0 58.1862600256443
12800.0 58.406979419429874
13200.0 58.790198949599144
13600.0 59.27844087746355
14000.0 59.67021769902843
14500.0 60.07877725524894
15000.0 60.421292200112205
15500.0 60.57550012798292
16000.0 60.55297222221351
16500.0 60.34596716145202
17000.0 59.981989612361275
17500.0 59.450149430650015
18000.0 58.83370988003385
18500.0 58.145527130976234
19000.0 57.44476569653206
19500.0 56.553454544013945
