Freq,Floor Bounce,Ceiling Bounce,Front Wall Bounce,Side Wall Bounce,Rear Wall Bounce,Total Early Reflection
22.4,96.3656326896099,95.83513059177983,95.98916941195311,95.9426002982079,93.66443526421142,95.65578454636695
23.0,96.58407681298945,96.10306957104251,96.30362500576275,96.20139211624762,93.96515375108356,95.92444071519687
23.6,96.84413052381575,96.33663575667187,96.54874947752984,96.48158184074407,94.25098018610142,96.18333350329415
24.0,97.00473530118575,96.57150800786937,96.86438202151021,96.76074062498236,94.50407545903084,96.43065079543027
25.0,97.22758719283591,96.8053180676647,97.09549536985712,97.00046051294918,94.77427307235082,96.66733177708592
25.8,97.38982856673472,97.0053180676647,97.327104358811,97.22064343308078,94.99306546484485,96.87258091870781
26.5,97.55260953202217,97.1707173249541,97.55444843105937,97.44073299106128,95.19933918994386,97.06839199261132
27.2,97.67977745790569,97.33964531976001,97.73313224060911,97.62154961208759,95.39394869599397,97.23615614222422
28.0,97.80906430015983,97.50531806766472,97.89304217591307,97.80137091259009,95.5698962903076,97.39695206945426
29.0,97.94044167945492,97.67449351030437,98.09304217591307,97.9215496120876,95.7536367192376,97.55599576423697
30.0,98.0069050103546,97.7744935103044,98.22615381641495,98.06255705027367,95.89817006647164,97.67106792051366
30.7,98.1054240073266,97.9098662867233,98.36775495634072,98.20137091259011,96.037611610907,97.80121912435374
31.5,98.20934661896388,98.00986628672328,98.46775495634071,98.26255705027366,96.15235251666567,97.89555073973547
32.5,98.2778308059457,98.1098662867233,98.5677549563407,98.38338957194297,96.25384675629606,97.99354422953192
33.5,98.34680983520813,98.14044167945491,98.64290027522969,98.42294550966768,96.35028137600797,98.05334249240524
34.5,98.44680983520814,98.2098662867233,98.70991655299177,98.483389571943,96.4046742631302,98.12479950672247
35.5,98.47928732607431,98.27609175449223,98.72464589083901,98.52342518384303,96.47254144867534,98.16654949295524
36.5,98.57928732607432,98.27609175449223,98.77743979114862,98.52433078266878,96.50855298796122,98.205291839452
37.5,98.57928732607432,98.27609175449223,98.79227949992679,98.52433078266878,96.54468848646239,98.21358576396807
38.7,98.67928732607432,98.34283030471974,98.81399076850363,98.52711164655898,96.550257486336,98.25536951443792
40.0,98.71007799780293,98.34283030471974,98.82904849392176,98.50695883351149,96.54432305418297,98.26052917716495
41.2,98.74136150423587,98.3069050103546,98.79817545090704,98.44820136208878,96.50525943953585,98.23552327260508
42.5,98.74136150423587,98.27609175449223,98.76779163544481,98.38804608481396,96.46937444569865,98.20493352536138
43.7,98.73746771551313,98.24283030471975,98.7084740221507,98.29220770006631,96.39158163404605,98.15348518404475
45.0,98.73746771551313,98.1760917544922,98.67697531712332,98.232567072362,96.31450197570072,98.11020120643431
46.2,98.73513059177982,98.10690501035458,98.5935350491348,98.11840832391775,96.2294099979801,98.04203484754161
47.5,98.7007674944556,98.04283030471976,98.5365739842363,98.01840832391775,96.13600547100157,97.97543682649362
48.7,98.63435140868503,97.90690501035459,98.4365739842363,97.90352961026537,96.00568434073793,97.8691767112722
50.0,98.60076749445561,97.84283030471974,98.38211582073455,97.74674014557195,95.86042063249941,97.7855846013572
51.5,98.53513059177983,97.70690501035459,98.28336306542559,97.59147205224289,95.6923955175226,97.66735565468758
53.0,98.43513059177982,97.57387961222818,98.1574271612455,97.43326375905616,95.52503616275533,97.53478669749529
54.5,98.33746771551316,97.40690501035459,98.01162431850867,97.25678912644874,95.32793049349023,97.3842379084088
56.0,98.20542400732661,97.24283030471975,97.88585714156909,97.0786299082622,95.12653324042142,97.2296919593862
58.0,98.07314211136085,97.10690501035458,97.7858571415691,96.8786299082622,94.92653324042143,97.08293345595509
60.0,97.90542400732662,96.9069050103546,97.61475795016614,96.6863606964899,94.70158458210929,96.89631932955821
61.5,97.74136150423587,96.70690501035459,97.48585714156908,96.51116239003501,94.49884910592715,96.72664417522235
63.0,97.57387961222818,96.54283030471974,97.34035472730552,96.29093525774732,94.23294556275766,96.54343086057033
65.0,97.37387961222817,96.31227178315618,97.18270257952703,96.09093525774732,93.9891278077194,96.34244452835995
67.0,97.27387961222817,96.14576719438469,97.06639248245841,95.87364464804702,93.75343845581752,96.18765842750147
69.0,97.07387961222818,95.9457671943847,96.92173040072427,95.65781517863498,93.5330563131693,95.99602506617327
71.0,96.9069050103546,95.74576719438468,96.79287610852393,95.48230766483479,93.28777329841019,95.82163647431625
73.0,96.7404416794549,95.58219967332305,96.69160260053766,95.30504144407692,93.09725898134828,95.66748123267088
75.0,96.6069050103546,95.48219967332304,96.57569713721814,95.16687004023711,92.87780982008671,95.53475362549072
77.5,96.44044167945492,95.28219967332305,96.47505054652697,95.00504144407692,92.68801908430373,95.37686515644354
80.0,96.34044167945491,95.15260953202217,96.4314975747366,94.86687004023713,92.52322101686971,95.27182088155496
82.5,96.27449351030438,95.05260953202217,96.36009724486703,94.74987970980294,92.36897575806795,95.17923926230702
85.0,96.17449351030437,94.95260953202218,96.33215068185793,94.61456319991046,92.20515726994276,95.08529996426077
87.5,96.07449351030438,94.88982856673472,96.26140989882069,94.53987465325562,92.04187212807884,94.99843691450954
90.0,96.00906430015984,94.78982856673471,96.1614098988207,94.39958940970145,91.88909773076234,94.89480194847646
92.5,95.87449351030438,94.66096514237182,96.13410976023337,94.32498802844181,91.76563754439795,94.80210955312955
95.0,95.77449351030438,94.56096514237181,96.06403471254025,94.21039079867911,91.58184629631747,94.69940977723262
97.5,95.67449351030439,94.42758719283592,95.96403471254024,94.05929007237313,91.38983410351702,94.5749390252285
100.0,95.54044167945491,94.29897445130925,95.83737408129085,93.89607828419952,91.17232640180985,94.43086344038645
103.0,95.3404416794549,94.09897445130925,95.69444473145555,93.72208770262137,90.94016612448254,94.24829891053568
106.0,95.17609175449222,93.89897445130926,95.46797069846065,93.50531244059161,90.6625439380239,94.0399830296908
109.0,94.9404416794549,93.63752777300029,95.23737408129085,93.23126350338633,90.34400085089726,93.7864159682414
112.0,94.6760917544922,93.36588846059686,94.95305566176042,92.97758224742104,89.9855357000074,93.50852377404027
115.0,94.3404416794549,93.03752777300028,94.61116123840141,92.60430888642648,89.57268930720431,93.15909394713813
118.0,94.00690501035459,92.63752777300029,94.23737408129084,92.22745355433875,89.1053982006362,92.78219779084253
122.0,93.60690501035458,92.23752777300028,93.78086845464634,91.82745355433875,88.5896996702235,92.35663290250608
125.0,93.10690501035458,91.76588846059687,93.28086845464632,91.36412506776948,88.03182316011797,91.86385405618785
128.0,92.57150800786938,91.26588846059688,92.75105966851946,90.8342698061023,87.37298877632887,91.32787311696484
132.0,91.97150800786937,90.70473530118575,92.13537086618986,90.25093380172723,86.66731078541204,90.72580056483866
136.0,91.37150800786938,90.06588846059687,91.47763667454646,89.66412506776948,85.9264205641113,90.0935939902544
140.0,90.67150800786939,89.43752777300028,90.76204375999247,88.98105986760639,85.11315177151522,89.3981731994851
145.0,89.93663575667186,88.70473530118575,90.01739302852535,88.31467549410979,84.24928728372575,88.66411160652335
150.0,89.13663575667186,87.96588846059689,89.21739302852535,87.5944647554965,83.32693651850184,87.88263447114943
155.0,88.36845083805431,87.22758719283591,88.44479812098768,86.88204584418487,82.39213175387492,87.11841485614285
160.0,87.6022846139602,86.52758719283591,87.67266367710968,86.17375338511138,81.44095108657103,86.36312429202633
165.0,86.83663575667185,85.78982856673471,86.95775667464532,85.45085479846628,80.50249081184856,85.61437180030426
170.0,86.17071732495407,85.08982856673471,86.28684446163057,84.80544763414775,79.60027216300965,84.92976795388185
175.0,85.57071732495409,84.48982856673473,85.71508314243884,84.20078208510986,78.78044484956115,84.32403582751687
180.0,85.07449351030438,83.98982856673472,85.25907003611941,83.66172600597221,78.02879043566352,83.81601256905996
185.0,84.67449351030439,83.51916705502754,84.87397253892371,83.20523368773614,77.46984697378613,83.38641612341532
190.0,84.40986628672329,83.1566725593005,84.64675150375355,82.8417335463007,77.0091833698426,83.08368115004583
195.0,84.21430637862284,82.8566725593005,84.43537086618987,82.5261737500941,76.73379042431277,82.83599928707233
200.0,84.07977745790569,82.59471929119204,84.32492954673287,82.30277175999838,76.52597594772162,82.66310022489968
206.0,84.01592692226707,82.39471929119205,84.29924142396787,82.09980808815757,76.4404282308939,82.55764703331124
212.0,84.01916705502754,82.26588846059687,84.37399037943577,82.00432636375152,76.38960952345415,82.53710222451087
218.0,84.0566725593005,82.23752777300028,84.48242230727827,81.96517702050663,76.3560737844554,82.56728666758521
224.0,84.15667255930052,82.27662798253905,84.65821708819499,82.01414819201291,76.38762557607893,82.66776094323629
230.0,84.32402487026023,82.34898359150841,84.89009756747593,82.08024655725666,76.47077622747321,82.81731641969552
236.0,84.56235742942079,82.48888547155003,85.10631904730495,82.19292109759182,76.55326302122234,83.00273850705773
240.0,84.79471929119205,82.65647994661606,85.33173632649093,82.31276837665128,76.67784039524521,83.19800978714005
250.0,84.96588846059687,82.72934077441656,85.49942293182198,82.41862496319685,76.79543699650061,83.33781936249045
258.0,85.13752777300027,82.84391724861636,85.699422931822,82.45419937548931,76.95090386584789,83.48650721891737
265.0,85.23752777300027,82.88573915648969,85.82285588808361,82.48365349967895,77.12173026807527,83.5764860528036
272.0,85.33752777300026,82.90263350538771,85.94670449332895,82.48018507418666,77.25804741049762,83.65616928823754
280.0,85.4096325668162,82.92102614963505,86.10631904730495,82.46440907898169,77.37320636114694,83.73795753437031
290.0,85.60963256681619,82.99664781293231,86.27866928516382,82.4921537919426,77.41011404552147,83.8750912747242
300.0,85.8096325668162,83.11719474435358,86.49942293182198,82.59536515896752,77.3988635409834,84.04613878851146
307.0,86.0489835915084,83.26226741403312,86.71637105372866,82.62221714704575,77.27128451165726,84.21710449350309
315.0,86.28219812790056,83.33920982111144,86.91293625184596,82.610920076111,77.0558841351693,84.36164438936699
325.0,86.42179738688895,83.36268190818897,87.00736536151736,82.53767221826723,76.71941283967055,84.4217070774978
335.0,86.42179738688895,83.29430744544665,87.04441901451352,82.40357754121789,76.2376130594551,84.39187641538082
345.0,86.18219812790056,83.14066681957172,86.82758020744902,82.16004105277072,75.53223807437138,84.16015246176725
355.0,85.74898359150842,82.79430744544666,86.46648670774597,81.79438545778876,74.49953239474324,83.76079324155342
365.0,85.14898359150841,82.33920982111144,85.86648670774596,81.33571330926954,73.28324945445992,83.18893822613532
375.0,84.52179738688895,81.68573603864205,85.21106138014495,80.73685897705646,72.16934061668782,82.54126430096588
387.0,83.96194867563766,81.05477168396808,84.64441901451353,80.20598876822791,71.38053228421342,81.96703997991719
400.0,83.43546263134682,80.48573603864206,84.22163457381299,79.65152238203694,70.90867063364614,81.46971579726392
412.0,83.07641629732153,79.96226741403312,83.97091054784845,79.15052149794155,70.6709337335065,81.11006653249075
425.0,82.85062128010364,79.53920982111143,83.72076211162324,78.75890427980568,70.4182648930645,80.82364540983535
437.0,82.65062128010364,79.20937829065056,83.59888657798578,78.43042465474481,70.0316777626724,80.61626185925024
450.0,82.53469773360898,78.93510550729974,83.49523726086699,78.10214922047311,69.51831232927884,80.45075155701731
462.0,82.30982855556755,78.61394942912605,83.35359280808363,77.68345155665423,68.9395331314933,80.21875771859142
475.0,81.95295536787776,78.11394942912605,82.98700543078886,77.13829003979109,68.24847922445696,79.81280659383857
487.0,81.35295536787778,77.51394942912606,82.48700543078884,76.51418919683297,67.39106790060902,79.24859572178781
500.0,80.72875610128314,76.91394942912606,81.8669031315327,75.9454882959276,66.50553743688063,78.63201748052099
515.0,80.20497668676808,76.38318629029516,81.3851970283398,75.40219713757256,65.87842467082737,78.12173697844685
530.0,79.61719474435358,75.7785826400972,80.78519702833981,74.85665912021561,65.4434723546437,77.53292640905823
545.0,78.64915203998831,74.87076275725437,79.86554514984493,73.99544063060364,64.8326867849691,76.60961291506061
560.0,77.34915203998831,73.60091389014043,78.5471681095725,72.76246954759327,63.62729220761308,75.31457318184096
580.0,76.21719474435359,72.40091389014042,77.3471681095725,71.6109922811705,62.19591937986108,74.13878408711733
600.0,76.11719474435358,72.24827552839255,77.22913394039209,71.36390366997719,61.64186688205052,74.00240984548903
615.0,76.61719474435358,72.67436617787408,77.79190440131124,71.74785918660179,61.79710527958456,74.50288266056396
630.0,76.76226741403312,72.67244993229335,77.94421422244497,71.76471729870299,61.64459200293541,74.61546646575029
650.0,76.33920982111142,72.09370777353007,77.56218600819972,71.24635581861752,61.085533009054416,74.17945014895486
670.0,75.79389595883674,71.52235512044192,77.01526553589034,70.71050653243228,60.63619845728803,73.6321402274267
690.0,75.27269145322595,71.3308800341432,76.50678099896714,70.40429122875136,60.16079006584866,73.18102595100088
710.0,74.67757950460711,70.8606180908071,75.77330292929263,69.9398996930639,59.19208642714858,72.55419760992234
730.0,73.83469773360899,70.16061809080709,74.87553278001087,69.1751852973759,58.11493592869985,71.71463053419386
750.0,72.90263350538771,69.28107327382878,73.90320245471571,68.20670290055388,56.969594664676436,70.76747225067251
775.0,72.17757950460711,68.53184209379187,73.23778770271859,67.44234076809178,56.09764438097727,70.05814476480566
800.0,72.87269145322595,69.05291140018436,74.01791962708916,68.00459985475877,56.64059737003544,70.74942448194483
825.0,74.0260245235669,70.0231203439938,75.23384203015476,68.99111559717514,57.50377241718667,71.88564292545124
850.0,74.40497668676807,70.39370777353005,75.39709421407055,69.31354189787866,57.63443771712204,72.16383652644095
875.0,74.48382334167596,70.69590903473029,75.21735436459511,69.6076529516685,57.87503041991687,72.19122790868498
900.0,75.21592538879983,71.5358616148032,75.67290258951276,70.44871677858458,58.54632648706453,72.84221748467752
925.0,74.88915630129641,70.97703977141008,75.3423408209153,69.84131662023424,57.88094626032395,72.44624682274741
950.0,74.21753803239935,69.73159966837576,74.9633759714653,68.57223936553878,56.42482984578112,71.7495626687525
975.0,74.99448868932289,69.84041068732142,75.95452247721607,68.62301867656386,55.79869618649843,72.46896344939685
1000.0,75.9694198636673,70.46355877122028,77.06297989337371,69.19251012504347,55.81547542158094,73.43185923059984
1030.0,76.63753193576906,70.88869355288361,77.8427658184028,69.68247670059364,56.186109152771735,74.11414266511933
1060.0,74.1625132206552,68.31403375853046,75.36937469704611,67.08358397589282,53.96841773176996,71.62253670796301
1090.0,73.3625132206552,67.60702691858944,74.58900929352654,66.43504526371257,53.640856161940235,70.85308456150412
1120.0,80.09179815677408,75.07437457826441,81.10025514987916,73.95886559165845,61.334108273200286,77.62497632138314
1150.0,83.67150800786938,80.8649717432842,83.78784957621278,79.87205909580206,68.05494429104954,81.44654267919864
1180.0,80.67332303610621,83.00076749445563,80.47411505086124,82.26765308030188,72.96537526353336,80.90769466148565
1220.0,78.65352165026991,76.17314211136083,81.05094524791951,75.6794954001529,67.37561384071273,77.55254240987541
1250.0,77.99751749841198,73.02909084157253,80.21127660695831,72.41285551440774,63.50954202580061,76.1868529853085
1280.0,73.29389642518188,67.20167684604726,75.50274356791867,66.48762651187225,57.3040867493398,71.2772094242226
1320.0,68.33697761853031,61.601234077558814,70.80484360537378,60.8951592718299,51.729730899046075,66.37056743328068
1360.0,68.92519075000122,63.23513059177982,71.85987227707321,62.568982449193385,53.07597659661198,67.36705726625917
1400.0,70.78519555329946,68.17387961222818,74.08848626888593,67.27831056501573,56.862375499186896,70.00122188046441
1450.0,75.33781340417853,74.11592538879984,78.2737476742027,72.96214469354743,62.15553895181644,74.73054977810186
1500.0,77.6731706389689,75.35291140018435,80.08154416986966,74.09771310704186,63.00896436921305,76.48177775269033
1550.0,77.99192787953052,75.00609330848388,80.39224413277948,73.67788840292806,61.96645926088553,76.60853836927772
1600.0,78.57641629732152,76.33243475604746,81.04979347419146,74.97568815937717,62.92951683625469,77.41596919009204
1650.0,78.6489851487955,75.85472836003828,80.37630325359243,74.58205621111703,62.26282346023112,77.01088947879646
1700.0,76.08407839372549,72.40946995907197,77.52231258354354,71.14832905122904,58.353941473414494,74.09053066587325
1750.0,72.41627783177748,68.36988167178588,74.09136072370016,67.16463275734789,54.64828692335374,70.45039433089393
1800.0,71.94258273663016,67.39561295623506,73.81477765865168,66.27968940373566,54.11506719865761,69.97426170272014
1850.0,72.15906263657509,67.6055529591817,74.2016289961952,66.58920168750448,54.55554542143477,70.28241542975378
1900.0,73.62602452356691,70.19825001362086,75.68244601285036,69.06812200704643,56.477938113591904,71.988239918865
1950.0,77.54413052381577,74.94520516099384,78.86950562335947,73.63367280996336,59.53495548493197,75.77725606384706
2000.0,80.67641629732152,77.42239157432462,81.37718552373536,75.95784415048922,61.33083858828209,78.45335644446045
2060.0,82.12526453928848,78.00553627912043,82.54174727131237,76.6425204970558,61.53860703935899,79.57542849956968
2120.0,83.12934077441656,79.26673210761149,83.29117176427495,77.74549225118639,61.38580722340396,80.52512731813053
2180.0,83.07035193787354,79.15557010865027,83.08691574192416,77.59891724177155,60.78049242380456,80.39335275285751
2240.0,85.04611403139874,81.09540175394477,85.09177246181152,79.58288713784249,62.74350247051194,82.37541977453273
2300.0,86.64412885328625,82.68783902957335,86.82024587455466,81.17713996514581,64.32843545740006,84.02142267248927
2360.0,87.46226044405475,82.89707065012053,87.99209263803421,81.45026510318027,64.548988789859,84.84195628791622
2400.0,84.47662798253904,79.52302097190767,85.00250741783178,78.09574578138768,60.69167715733454,81.77253411870535
2500.0,85.92761355743555,80.41828671879964,85.91040982444468,79.1501411138654,61.34078289342099,82.90125723919324
2580.0,86.70378320443463,80.62299570617506,86.62009561413312,79.3996237090621,62.40525165661694,83.54724671435153
2650.0,86.83083644122569,79.13228476839578,87.25878433926866,78.22976396112685,63.06645269708977,83.67146827309028
2720.0,86.46775267851801,78.23638464278707,87.26818266348353,77.460194972876,63.56147076734102,83.42859841230079
2800.0,83.1126632172949,75.56480122583662,83.969874375422,74.67567550411755,60.915092134377204,80.17716640211327
2900.0,84.06825872174046,77.49238414975147,84.54681926293364,76.50590075411436,62.38531269152435,81.0900959596595
3000.0,90.48672278729505,85.72022160616297,90.04994370023347,84.56782975637284,70.1535330164572,87.48197885862169
3070.0,83.58327228731432,79.35866027600835,83.49617412172086,77.94260637611583,62.73015944830149,80.80839079887197
3150.0,73.57991415162182,68.68230649956843,74.53090638695272,67.21534010469041,49.990581466899215,71.0678546957964
3250.0,73.73465076516197,68.23316872174294,75.27122526962707,66.76921365104413,48.14982309561694,71.38404487152742
3350.0,68.44264565432186,62.193111256782956,70.14471606884729,60.71700369144429,42.43392662920917,66.05938058994573
