Freq "Front Wall Bounce"
22.4 95.98916941195311
23.0 96.30362500576275
23.6 96.54874947752984
24.0 96.86438202151021
25.0 97.09549536985712
25.8 97.327104358811
26.5 97.55444843105937
27.2 97.73313224060911
28.0 97.89304217591307
29.0 98.09304217591307
30.0 98.22615381641495
30.7 98.36775495634072
31.5 98.46775495634071
32.5 98.5677549563407
33.5 98.64290027522969
34.5 98.70991655299177
35.5 98.72464589083901
36.5 98.77743979114862
37.5 98.79227949992679
38.7 98.81399076850363
40.0 98.82904849392176
41.2 98.79817545090704
42.5 98.76779163544481
43.7 98.7084740221507
45.0 98.67697531712332
46.2 98.5935350491348
47.5 98.5365739842363
48.7 98.4365739842363
50.0 98.38211582073455
51.5 98.28336306542559
53.0 98.1574271612455
54.5 98.01162431850867
56.0 97.88585714156909
58.0 97.7858571415691
60.0 97.61475795016614
61.5 97.48585714156908
63.0 97.34035472730552
65.0 97.18270257952703
67.0 97.06639248245841
69.0 96.92173040072427
71.0 96.79287610852393
73.0 96.69160260053766
75.0 96.57569713721814
77.5 96.47505054652697
80.0 96.4314975747366
82.5 96.36009724486703
85.0 96.33215068185793
87.5 96.26140989882069
90.0 96.1614098988207
92.5 96.13410976023337
95.0 96.06403471254025
97.5 95.96403471254024
100.0 95.83737408129085
103.0 95.69444473145555
106.0 95.46797069846065
109.0 95.23737408129085
112.0 94.95305566176042
115.0 94.61116123840141
118.0 94.23737408129084
122.0 93.78086845464634
125.0 93.28086845464632
128.0 92.75105966851946
132.0 92.13537086618986
136.0 91.47763667454646
140.0 90.76204375999247
145.0 90.01739302852535
150.0 89.21739302852535
155.0 88.44479812098768
160.0 87.67266367710968
165.0 86.95775667464532
170.0 86.28684446163057
175.0 85.71508314243884
180.0 85.25907003611941
185.0 84.87397253892371
190.0 84.64675150375355
195.0 84.43537086618987
200.0 84.32492954673287
206.0 84.29924142396787
212.0 84.37399037943577
218.0 84.48242230727827
224.0 84.65821708819499
230.0 84.89009756747593
236.0 85.10631904730495
240.0 85.33173632649093
250.0 85.49942293182198
258.0 85.699422931822
265.0 85.82285588808361
272.0 85.94670449332895
280.0 86.10631904730495
290.0 86.27866928516382
300.0 86.49942293182198
307.0 86.71637105372866
315.0 86.91293625184596
325.0 87.00736536151736
335.0 87.04441901451352
345.0 86.82758020744902
355.0 86.46648670774597
365.0 85.86648670774596
375.0 85.21106138014495
387.0 84.64441901451353
400.0 84.22163457381299
412.0 83.97091054784845
425.0 83.72076211162324
437.0 83.59888657798578
450.0 83.49523726086699
462.0 83.35359280808363
475.0 82.98700543078886
487.0 82.48700543078884
500.0 81.8669031315327
515.0 81.3851970283398
530.0 80.78519702833981
545.0 79.86554514984493
560.0 78.5471681095725
580.0 77.3471681095725
600.0 77.22913394039209
615.0 77.79190440131124
630.0 77.94421422244497
650.0 77.56218600819972
670.0 77.01526553589034
690.0 76.50678099896714
710.0 75.77330292929263
730.0 74.87553278001087
750.0 73.90320245471571
775.0 73.23778770271859
800.0 74.01791962708916
825.0 75.23384203015476
850.0 75.39709421407055
875.0 75.21735436459511
900.0 75.67290258951276
925.0 75.3423408209153
950.0 74.9633759714653
975.0 75.95452247721607
1000.0 77.06297989337371
1030.0 77.8427658184028
1060.0 75.36937469704611
1090.0 74.58900929352654
1120.0 81.10025514987916
1150.0 83.78784957621278
1180.0 80.47411505086124
1220.0 81.05094524791951
1250.0 80.21127660695831
1280.0 75.50274356791867
1320.0 70.80484360537378
1360.0 71.85987227707321
1400.0 74.08848626888593
1450.0 78.2737476742027
1500.0 80.08154416986966
1550.0 80.39224413277948
1600.0 81.04979347419146
1650.0 80.37630325359243
1700.0 77.52231258354354
1750.0 74.09136072370016
1800.0 73.81477765865168
1850.0 74.2016289961952
1900.0 75.68244601285036
1950.0 78.86950562335947
2000.0 81.37718552373536
2060.0 82.54174727131237
2120.0 83.29117176427495
2180.0 83.08691574192416
2240.0 85.09177246181152
2300.0 86.82024587455466
2360.0 87.99209263803421
2400.0 85.00250741783178
2500.0 85.91040982444468
2580.0 86.62009561413312
2650.0 87.25878433926866
2720.0 87.26818266348353
2800.0 83.969874375422
2900.0 84.54681926293364
3000.0 90.04994370023347
3070.0 83.49617412172086
3150.0 74.53090638695272
3250.0 75.27122526962707
3350.0 70.14471606884729
3450.0 69.86166082764427
3550.0 78.64246060403335
3650.0 81.40286176459419
3750.0 81.78643927606913
3870.0 82.44305477448285
4000.0 82.4451768442739
4120.0 78.68083614353046
4250.0 80.10266267581832
4370.0 79.88753466437797
4500.0 78.30506709572776
4620.0 80.16262730909027
4750.0 80.101869432362
4870.0 80.14244194891762
5000.0 80.59138158544047
5150.0 82.23804414179853
5300.0 82.25752639214099
5450.0 79.96044291908247
5600.0 80.97477259098973
5800.0 85.55877112821233
6000.0 85.3430501060204
6150.0 85.58090861610293
6300.0 82.64374847111483
6500.0 79.98541584619703
6700.0 79.64691594719177
6900.0 81.54542178321618
7100.0 82.27648286686558
7300.0 85.73926291428094
7500.0 81.13706674388679
7750.0 80.11514636889176
8000.0 76.33338815210655
8250.0 78.19629424878089
8500.0 80.08452043621025
8750.0 79.36897049506601
9000.0 78.9451613203245
9250.0 79.49679272457287
9500.0 79.32666626307704
9750.0 84.07742756238072
10000.0 86.62717467067316
10300.0 84.32544099476674
10600.0 87.3432709422523
10900.0 86.1073654755124
11200.0 84.17402201125981
11500.0 79.99487170114236
11800.0 81.31488064720558
12200.0 88.48919564150708
12500.0 86.05891749475363
12800.0 86.05343950250686
13200.0 84.37840394512408
13600.0 82.46795876709335
14000.0 82.01259836851685
14500.0 80.03043453637773
15000.0 79.15241257294234
15500.0 85.4243845114722
16000.0 85.91115283000863
16500.0 78.16708732544407
17000.0 80.75819818830135
17500.0 81.6373823777471
18000.0 76.72469839072497
18500.0 76.66383220927997
19000.0 77.96134286363505
19500.0 78.02570625731322
