Freq "Front Wall Bounce"
22.4 99.51828333600376
23.0 99.83273892981339
23.6 100.07786340158049
24.0 100.39349594556086
25.0 100.62460929390775
25.8 100.85621828286165
26.5 101.08356235511003
27.2 101.26224616465976
28.0 101.42215609996371
29.0 101.62215609996372
30.0 101.75526774046558
30.7 101.89686888039135
31.5 101.99686888039136
32.5 102.09686888039137
33.5 102.17201419928034
34.5 102.23903047704242
35.5 102.25375981488966
36.5 102.30655371519927
37.5 102.32139342397744
38.7 102.34310469255428
40.0 102.35816241797241
41.2 102.32728937495767
42.5 102.29690555949544
43.7 102.23758794620133
45.0 102.20608924117397
46.2 102.12264897318545
47.5 102.06568790828695
48.7 101.96568790828694
50.0 101.91122974478519
51.5 101.81247698947622
53.0 101.68654108529616
54.5 101.5407382425593
56.0 101.41497106561972
58.0 101.31497106561973
60.0 101.14387187421679
61.5 101.01497106561973
63.0 100.86946865135616
65.0 100.7118165035777
67.0 100.59550640650906
69.0 100.45084432477492
71.0 100.32199003257459
73.0 100.22071652458831
75.0 100.10481106126878
77.5 100.0041644705776
80.0 99.96061149878726
82.5 99.88921116891768
85.0 99.86126460590856
87.5 99.79052382287135
90.0 99.69052382287134
92.5 99.66322368428402
95.0 99.5931486365909
97.5 99.4931486365909
100.0 99.3664880053415
103.0 99.2235586555062
106.0 98.99708462251128
109.0 98.76648800534149
112.0 98.48216958581106
115.0 98.14027516245206
118.0 97.76648800534149
122.0 97.30998237869697
125.0 96.80998237869699
128.0 96.2801735925701
132.0 95.66448479024052
136.0 95.0067505985971
140.0 94.29115768404313
145.0 93.54650695257598
150.0 92.74650695257598
155.0 91.97391204503833
160.0 91.20177760116033
165.0 90.48687059869596
170.0 89.8159583856812
175.0 89.24419706648948
180.0 88.78818396017004
185.0 88.40308646297436
190.0 88.17586542780418
195.0 87.96448479024052
200.0 87.85404347078354
206.0 87.82835534801853
212.0 87.9031043034864
218.0 88.0115362313289
224.0 88.18733101224565
230.0 88.41921149152657
236.0 88.63543297135561
240.0 88.86085025054157
250.0 89.02853685587263
258.0 89.22853685587263
265.0 89.35196981213424
272.0 89.47581841737959
280.0 89.6354329713556
290.0 89.80778320921446
300.0 90.02853685587263
307.0 90.2454849777793
315.0 90.4420501758966
325.0 90.53647928556799
335.0 90.57353293856417
345.0 90.35669413149968
355.0 89.99560063179663
365.0 89.39560063179663
375.0 88.74017530419562
387.0 88.17353293856416
400.0 87.75074849786363
412.0 87.50002447189911
425.0 87.24987603567388
437.0 87.12800050203643
450.0 87.02435118491763
462.0 86.88270673213427
475.0 86.51611935483949
487.0 86.0161193548395
500.0 85.39601705558333
515.0 84.91431095239045
530.0 84.31431095239046
545.0 83.39465907389558
560.0 82.07628203362316
580.0 80.87628203362314
600.0 80.75824786444274
615.0 81.3210183253619
630.0 81.47332814649562
650.0 81.09129993225038
670.0 80.54437945994098
690.0 80.03589492301778
710.0 79.30241685334329
730.0 78.4046467040615
750.0 77.43231637876634
775.0 76.76690162676923
800.0 77.54703355113982
825.0 78.76295595420541
850.0 78.92620813812121
875.0 78.74646828864577
900.0 79.2020165135634
925.0 78.87145474496594
950.0 78.49248989551596
975.0 79.48363640126672
1000.0 80.59209381742434
1030.0 81.37187974245344
1060.0 78.89848862109675
1090.0 78.11812321757719
1120.0 84.62936907392981
1150.0 87.31696350026341
1180.0 84.0032289749119
1220.0 84.58005917197015
1250.0 83.74039053100896
1280.0 79.03185749196933
1320.0 74.33395752942444
1360.0 75.38898620112386
1400.0 77.61760019293658
1450.0 81.80286159825334
1500.0 83.6106580939203
1550.0 83.92135805683012
1600.0 84.5789073982421
1650.0 83.90541717764306
1700.0 81.05142650759417
1750.0 77.62047464775081
1800.0 77.34389158270231
1850.0 77.73074292024586
1900.0 79.21155993690101
1950.0 82.39861954741014
2000.0 84.90629944778601
2060.0 86.07086119536304
2120.0 86.82028568832558
2180.0 86.61602966597482
2240.0 88.62088638586216
2300.0 90.34935979860532
2360.0 91.52120656208487
2400.0 88.53162134188244
2500.0 89.43952374849532
2580.0 90.14920953818375
2650.0 90.7878982633193
2720.0 90.79729658753416
2800.0 87.49898829947263
2900.0 88.0759331869843
3000.0 93.5790576242841
3070.0 87.02528804577149
3150.0 78.06002031100337
3250.0 78.8003391936777
3350.0 73.67382999289794
3450.0 73.39077475169492
3550.0 82.171574528084
3650.0 84.93197568864485
3750.0 85.31555320011977
3870.0 85.97216869853348
4000.0 85.97429076832454
4120.0 82.20995006758109
4250.0 83.63177659986897
4370.0 83.41664858842861
4500.0 81.83418101977843
4620.0 83.6917412331409
4750.0 83.63098335641266
4870.0 83.67155587296828
5000.0 84.12049550949114
5150.0 85.76715806584917
5300.0 85.78664031619164
5450.0 83.48955684313312
5600.0 84.50388651504039
5800.0 89.08788505226298
6000.0 88.87216403007105
6150.0 89.11002254015357
6300.0 86.17286239516547
6500.0 83.51452977024766
6700.0 83.17602987124243
6900.0 85.07453570726682
7100.0 85.80559679091623
7300.0 89.26837683833158
7500.0 84.66618066793743
7750.0 83.64426029294239
8000.0 79.8625020761572
8250.0 81.72540817283152
8500.0 83.6136343602609
8750.0 82.89808441911667
9000.0 82.47427524437515
9250.0 83.0259066486235
9500.0 82.85578018712769
9750.0 87.60654148643138
10000.0 90.15628859472379
10300.0 87.8545549188174
10600.0 90.87238486630295
10900.0 89.63647939956303
11200.0 87.70313593531046
11500.0 83.523985625193
11800.0 84.84399457125622
12200.0 92.01830956555773
12500.0 89.58803141880426
12800.0 89.58255342655752
13200.0 87.90751786917471
13600.0 85.99707269114401
14000.0 85.54171229256751
14500.0 83.55954846042836
15000.0 82.681526496993
15500.0 88.95349843552285
16000.0 89.44026675405928
16500.0 81.69620124949473
17000.0 84.28731211235201
17500.0 85.16649630179774
18000.0 80.25381231477562
18500.0 80.19294613333061
19000.0 81.49045678768572
19500.0 81.55482018136385
