Freq "Side Wall Bounce"
22.4 99.47171422225857
23.0 99.73050604029828
23.6 100.01069576479473
24.0 100.28985454903301
25.0 100.52957443699981
25.8 100.74975735713144
26.5 100.96984691511193
27.2 101.15066353613825
28.0 101.33048483664075
29.0 101.45066353613825
30.0 101.59167097432432
30.7 101.73048483664074
31.5 101.79167097432432
32.5 101.91250349599363
33.5 101.95205943371833
34.5 102.01250349599363
35.5 102.05253910789368
36.5 102.05344470671945
37.5 102.05344470671945
38.7 102.05622557060963
40.0 102.03607275756214
41.2 101.97731528613943
42.5 101.91716000886461
43.7 101.82132162411698
45.0 101.76168099641266
46.2 101.6475222479684
47.5 101.54752224796839
48.7 101.43264353431601
50.0 101.27585406962261
51.5 101.12058597629354
53.0 100.96237768310681
54.5 100.78590305049937
56.0 100.60774383231285
58.0 100.40774383231286
60.0 100.21547462054056
61.5 100.04027631408565
63.0 99.82004918179797
65.0 99.62004918179795
67.0 99.40275857209768
69.0 99.18692910268562
71.0 99.01142158888545
73.0 98.83415536812757
75.0 98.69598396428778
77.5 98.53415536812759
80.0 98.39598396428778
82.5 98.27899363385357
85.0 98.14367712396113
87.5 98.06898857730629
90.0 97.92870333375211
92.5 97.85410195249247
95.0 97.73950472272978
97.5 97.58840399642378
100.0 97.42519220825017
103.0 97.25120162667203
106.0 97.03442636464226
109.0 96.76037742743696
112.0 96.50669617147167
115.0 96.13342281047714
118.0 95.7565674783894
122.0 95.35656747838941
125.0 94.89323899182013
128.0 94.36338373015296
132.0 93.78004772577788
136.0 93.19323899182012
140.0 92.51017379165704
145.0 91.84378941816044
150.0 91.12357867954715
155.0 90.4111597682355
160.0 89.70286730916202
165.0 88.97996872251693
170.0 88.3345615581984
175.0 87.72989600916051
180.0 87.19083993002286
185.0 86.73434761178677
190.0 86.37084747035135
195.0 86.05528767414475
200.0 85.83188568404904
206.0 85.62892201220822
212.0 85.53344028780216
218.0 85.49429094455729
224.0 85.54326211606354
230.0 85.6093604813073
236.0 85.72203502164245
240.0 85.84188230070194
250.0 85.94773888724748
258.0 85.98331329953994
265.0 86.0127674237296
272.0 86.00929899823733
280.0 85.99352300303232
290.0 86.02126771599323
300.0 86.12447908301816
307.0 86.15133107109641
315.0 86.14003400016166
325.0 86.0667861423179
335.0 85.93269146526853
345.0 85.68915497682138
355.0 85.32349938183941
365.0 84.86482723332017
375.0 84.26597290110712
387.0 83.73510269227857
400.0 83.1806363060876
412.0 82.67963542199219
425.0 82.28801820385632
437.0 81.95953857879545
450.0 81.63126314452377
462.0 81.2125654807049
475.0 80.66740396384175
487.0 80.04330312088362
500.0 79.47460221997827
515.0 78.9313110616232
530.0 78.38577304426627
545.0 77.5245545546543
560.0 76.29158347164392
580.0 75.14010620522114
600.0 74.89301759402784
615.0 75.27697311065245
630.0 75.29383122275362
650.0 74.77546974266816
670.0 74.23962045648292
690.0 73.93340515280201
710.0 73.46901361711454
730.0 72.70429922142655
750.0 71.73581682460451
775.0 70.97145469214242
800.0 71.53371377880943
825.0 72.5202295212258
850.0 72.84265582192931
875.0 73.13676687571913
900.0 73.97783070263523
925.0 73.3704305442849
950.0 72.10135328958941
975.0 72.1521326006145
1000.0 72.7216240490941
1030.0 73.2115906246443
1060.0 70.61269789994347
1090.0 69.9641591877632
1120.0 77.4879795157091
1150.0 83.4011730198527
1180.0 85.79676700435255
1220.0 79.20860932420354
1250.0 75.94196943845837
1280.0 70.01674043592288
1320.0 64.42427319588056
1360.0 66.09809637324403
1400.0 70.80742448906639
1450.0 76.49125861759808
1500.0 77.62682703109249
1550.0 77.20700232697871
1600.0 78.50480208342785
1650.0 78.11117013516767
1700.0 74.67744297527969
1750.0 70.69374668139852
1800.0 69.80880332778631
1850.0 70.11831561155515
1900.0 72.59723593109709
1950.0 77.16278673401402
2000.0 79.48695807453987
2060.0 80.17163442110645
2120.0 81.27460617523703
2180.0 81.12803116582221
2240.0 83.11200106189315
2300.0 84.70625388919646
2360.0 84.97937902723093
2400.0 81.62485970543834
2500.0 82.67925503791604
2580.0 82.92873763311276
2650.0 81.7588778851775
2720.0 80.98930889692664
2800.0 78.20478942816818
2900.0 80.035014678165
3000.0 88.09694368042351
3070.0 81.47172030016647
3150.0 70.74445402874106
3250.0 70.29832757509479
3350.0 64.24611761549494
3450.0 62.69603041422654
3550.0 70.74934673548407
3650.0 73.15346724910817
3750.0 73.20818978746233
3870.0 73.82788453020139
4000.0 73.52472990423038
4120.0 70.9095673431817
4250.0 72.9727365279231
4370.0 71.20166725414646
4500.0 70.4064956530394
4620.0 74.17248288529609
4750.0 74.65443279407066
4870.0 75.17231311456635
5000.0 76.57100248883894
5150.0 77.6008259074359
5300.0 75.33181610349092
5450.0 71.27068821760331
5600.0 72.40243751124015
5800.0 76.5045269076259
6000.0 75.43386717493705
6150.0 75.33120313947087
6300.0 73.26604496312484
6500.0 71.28232343077848
6700.0 71.12601914349474
6900.0 71.3916785641155
7100.0 72.89967954945745
7300.0 73.35059656609567
7500.0 70.28867967925883
7750.0 70.73634653035455
8000.0 67.71166109090859
8250.0 69.2974356468857
8500.0 71.0315234089879
8750.0 68.60240921760081
9000.0 67.21757541111081
9250.0 70.74237406878731
9500.0 74.08822503102522
9750.0 77.24467146942735
10000.0 78.52182048978513
10300.0 72.9512899626473
10600.0 77.3904494299788
10900.0 76.57400781492555
11200.0 74.94880583393099
11500.0 70.20356383916405
11800.0 69.91854674003872
12200.0 82.91301831729307
12500.0 78.38584342500104
12800.0 76.52739638777308
13200.0 68.3065545812481
13600.0 72.10877582670855
14000.0 71.60254045509704
14500.0 75.18185922313079
15000.0 76.80921262308075
15500.0 82.65671510905504
16000.0 81.60476859242443
16500.0 71.84316268721858
17000.0 72.64082534148866
17500.0 69.34007277067965
18000.0 66.25272114279969
18500.0 65.04353108735351
19000.0 71.65321289475882
19500.0 73.84741061764613
