Freq "Estimated In-Room Response"
20.5078 61.32835310677777
21.9727 63.56831704110442
23.4375 65.69721871468428
24.9023 67.41645797220102
26.3672 69.07687638758406
27.832 70.74552484497576
29.2969 72.06274858171777
30.7617 73.17079255629874
32.2266 74.28852611029131
33.6914 75.30524700399668
35.1562 76.18840010093263
36.6211 77.00655737711601
38.0859 77.72834623238727
39.5508 78.43471969485397
41.0156 79.07893307157181
42.4805 79.68643197205263
43.9453 80.30011078801311
45.4102 80.88855981541575
46.875 81.45584112825355
48.3398 81.94926562322227
51.2695 83.04037028047932
52.7344 83.58079708766763
54.1992 84.04678849715296
55.6641 84.51920500969496
58.5938 85.49702292713084
60.0586 85.96462964578436
62.9883 86.82187446728989
64.4531 87.29376364720926
67.3828 88.02502223315915
68.8477 88.46649184573135
71.7773 89.20667007720613
74.707 89.86502943107058
77.6367 90.33068116086639
79.1016 90.51945088558485
82.0312 90.84915214100074
84.9609 91.08200736433157
87.8906 91.20715280724255
90.8203 91.58645590611656
95.2148 91.96830663680988
98.1445 91.85531821396101
101.074 91.6511029446119
105.469 91.32102870468907
108.398 91.24109571284976
112.793 90.82263092930452
117.188 90.10285972661401
120.117 90.23804414333094
124.512 90.4457464192084
128.906 90.22152880221995
133.301 89.87985418586905
139.16 89.34505779969372
143.555 88.66651399760053
147.949 89.00832609492555
153.809 88.9587266049916
159.668 88.1544736910558
165.527 87.93008086229237
171.387 88.46096291669781
177.246 89.00416876957428
183.105 89.1282422566515
188.965 89.45300022699395
196.289 90.361459317097
203.613 89.88011759437892
210.938 90.78060064670927
218.262 91.55444688653309
225.586 91.30296980090637
232.91 91.17188942472919
241.699 91.79936947130031
250.488 90.56496223782545
259.277 91.23965661518403
268.066 92.50278015417075
276.855 90.72525808344282
287.109 90.80689946125933
297.363 91.54081561876441
307.617 91.62730888693312
319.336 91.60867834461969
329.59 91.21283201675327
341.309 91.65387508877618
353.027 91.44581581950604
366.211 91.89820905067134
379.395 91.36777287431191
392.578 91.4041375395723
405.762 92.10144720426254
420.41 91.35554155776097
435.059 91.39882550419293
451.172 91.48219582945444
465.82 91.85628224207936
483.398 92.06293823785515
499.512 90.87394220090398
517.09 91.46760933431082
536.133 91.71075362493897
555.176 91.0937162207148
574.219 91.1055973902196
594.727 91.01007986324159
615.234 90.08332811566562
637.207 90.04633587881008
659.18 89.9604642096276
682.617 89.84401325695889
707.52 89.97138099201004
732.422 89.82379954092467
757.324 90.5687183710506
785.156 90.30874284327568
811.523 90.99967843362721
840.82 91.20081644542896
870.117 91.50535131163177
900.879 91.71063090518106
933.105 91.25011364118433
965.332 91.3915340153205
1000.49 91.17431241307135
1035.64 91.38456865264489
1072.27 91.99974313819041
1108.89 92.17182651641394
1148.44 91.76428609335973
1189.45 91.01314198881
1230.47 90.40832282404534
1274.41 89.4046618956375
1319.82 88.71498403137392
1366.7 88.3972027251186
1413.57 88.16079852138942
1463.38 87.82338842946753
1516.11 87.41460410168091
1568.85 87.28242785194982
1624.51 87.77684544919964
1681.64 88.49443601860057
1741.7 88.81575358390373
1803.22 88.90990096786359
1866.21 89.06599040489364
1932.13 89.03056728593276
1999.51 88.95831927013413
2069.82 88.80003933164555
2143.07 88.61456820437441
2219.24 88.20767267751611
2296.88 87.39724595338032
2378.91 87.21988345410747
2462.4 87.12815349709832
2548.83 86.29937477763369
2639.65 85.9261799840531
2731.93 85.55861973872486
2828.61 84.38860083011586
2928.22 83.72488532933369
3030.76 84.41544433963116
3137.7 84.47441173185342
3249.02 84.81131815471946
3363.28 85.38477551116118
3481.93 85.73849942595795
3604.98 86.3334715707948
3732.42 86.80256404395105
3864.26 87.12056240205399
4000.49 87.2790824915553
4141.11 87.1717371512851
4287.6 87.386794796609
4438.48 87.10896063914393
4595.21 87.16327275113494
4756.35 87.04757128501232
4924.8 86.81663301910903
5097.66 86.9707514139551
5277.83 86.61690830565135
5463.87 86.78096201555513
5657.23 86.5600939352791
5856.45 86.68991181311328
6062.99 87.17998077248185
6276.86 87.52992415864614
6498.05 87.24207650276881
6726.56 87.7940557608126
6963.87 88.03982907349311
7209.96 88.27671267624036
7464.84 88.39184018620936
7727.05 88.35890819347784
7999.51 88.23441020085714
8282.23 88.42855487830303
8573.73 88.98467624408711
8876.95 89.36460243395277
9188.96 89.49018240275308
9514.16 89.57112400165715
9849.61 89.36819092329667
10196.8 88.54600168711079
10555.7 87.97831376210505
10927.7 87.12748035786366
11313.0 87.15997256787693
11712.9 87.31833046713061
12126.0 88.13219516052555
12553.7 89.39819008892245
12996.1 90.12864460101028
13454.6 89.79591308395604
13929.2 89.43526683884394
14419.9 89.89208682082497
14928.2 89.36391315919732
15455.6 88.43585880064111
16000.5 88.88386097764335
16564.5 89.08734228698255
17148.9 91.68885512647311
17752.4 93.06684262319219
18379.4 90.14113332769237
19026.9 87.05875745874953
19697.8 85.72348161068922
19999.5 80.85205581486103
