Freq "Front Wall Bounce"
20.0 40.785708031997856
20.2909 39.996846627427814
20.586 38.916065550823774
20.8855 37.78589312663705
21.1893 37.02724702637046
21.4975 37.449449362223916
21.8102 38.54415404205612
22.1274 39.53978573684738
22.4492 40.25781319635452
22.7758 40.552040059075054
23.1071 40.44562514157299
23.4432 40.351081449364
23.7841 40.85116315419968
24.1301 42.14733569267848
24.4811 43.747078456832824
24.8372 45.17937821822112
25.1984 46.11584826059131
25.5649 46.55661720033238
25.9368 46.6783147561177
26.3141 46.670320935221994
26.6968 46.71956629895776
27.0851 47.213303737838956
27.4791 47.972782932792015
27.8788 48.7291394048673
28.2843 49.27691422620744
28.6957 49.84000673484418
29.1131 50.53582370657021
29.5365 51.36444882897358
29.9661 52.11026090931905
30.402 52.67092290924974
30.8442 52.95166971486974
31.2929 53.25789931600163
31.748 53.73315007480737
32.2098 54.473125833663815
32.6783 55.25536021364245
33.1536 55.72027800096258
33.6359 56.0625276563341
34.1251 56.661997613063974
34.6215 57.57774291843499
35.125 58.63863315491689
35.6359 59.309611478983825
36.1543 59.65481306366131
36.6802 59.81572876910023
37.2137 60.27275856931742
37.755 61.110356630106835
38.3041 61.77679883001825
38.8613 62.38546013367555
39.4265 62.933661807369546
40.0 63.56192330815507
40.5818 64.31498264599792
41.1721 64.92406780094699
41.771 65.41355468819837
42.3785 65.97259777130402
42.9949 66.6095381617691
43.6203 67.16273740935644
44.2548 67.84762658498919
44.8985 68.49908955480369
45.5515 69.20847247438067
46.2141 69.82015262456585
46.8863 70.4693203148938
47.5683 71.15198137612991
48.2602 71.91461747137109
48.9621 72.61545751837606
49.6743 73.35628744074242
50.3968 74.0577335355604
51.1299 74.7956251989832
51.8736 75.67785776467323
52.6281 76.35525589971796
53.3936 77.06989691134673
54.1702 77.92210462220989
54.9581 78.57566323127725
55.7575 79.27789214776455
56.5685 79.9395181398127
57.3914 80.5526870265053
58.2261 81.2730488687855
59.073 81.85403029758898
59.9323 82.44260911759714
60.804 82.8811659514733
61.6884 83.42449258999494
62.5857 83.8532621539485
63.496 84.13712933355156
64.4196 84.38200869271782
65.3566 84.6281231175537
66.3073 84.84245809480589
67.2717 84.91027055592512
68.2502 84.89868620460292
69.2429 84.87650864204565
70.2501 84.79656448627331
71.2719 84.82589212981438
72.3086 84.78648308030749
73.3603 84.75743425860243
74.4274 84.70098529424381
75.5099 84.68595908224798
76.6083 84.58065281732762
77.7226 84.55821849949763
78.8531 84.47058467701892
80.0 84.3680955947152
81.1636 84.31398342893416
82.3442 84.37653013275612
83.5419 84.25519466046943
84.757 84.25691040613849
85.9899 84.2263091996911
87.2406 84.23156000679305
88.5096 84.43977602424252
89.797 84.46400577390862
91.1031 84.56455800062528
92.4282 84.69641141050323
93.7726 84.65895877429608
95.1366 84.84164599393601
96.5204 85.01123966972762
97.9243 85.02140929101715
99.3486 85.16616139877675
100.794 85.15940655194541
102.26 85.23697587332522
103.747 85.34548362249687
105.256 85.46549923190632
106.787 85.5828393914116
108.34 85.60892961373068
109.916 85.82671439858693
111.515 86.0941505863959
113.137 86.2519253105138
114.783 86.42396577881424
116.452 86.62368206321669
118.146 86.71783437398729
119.865 86.89919935380864
121.608 87.03977979389646
123.377 87.25391807654358
125.171 87.31830035184569
126.992 87.4206779051092
128.839 87.6958250789076
130.713 87.86616139877677
132.615 88.14999961334384
134.543 88.29201388132162
136.5 88.52895981095268
138.486 88.76471946478601
140.5 88.93838883103815
142.544 89.05404937840828
144.617 89.13618086322892
146.721 89.22648089609706
148.855 89.38599391159384
151.02 89.54573333972803
153.217 89.74595908270139
155.445 89.93707028412747
157.706 90.12988440699048
160.0 90.30101667807108
162.327 90.44714151054474
164.688 90.61168683636369
167.084 90.82666280387811
169.514 91.06049232376985
171.98 91.30152628544683
174.481 91.47813062311222
177.019 91.61955400536588
179.594 91.74607996616265
182.206 91.90402106621718
184.856 92.0848548840854
187.545 92.24635231642117
190.273 92.38933207185836
193.041 92.58351747742161
195.849 92.70031396851407
198.697 92.72905843962273
201.587 92.81635264123628
204.52 92.79387074927128
207.494 92.85418959621937
210.512 92.71681708646891
213.574 92.7192325341464
216.681 92.75441024790244
219.833 92.69873147172363
223.03 92.66573147172363
226.274 92.65629476275898
229.565 92.59873147172362
232.905 92.6024215086128
236.292 92.81605524124956
239.729 92.9394262512057
243.216 92.91543643866633
246.754 92.86671350531823
250.343 92.83404335193265
253.984 92.79208917668016
257.678 92.70640683936944
261.426 92.43774818252349
265.229 92.29229848387715
269.087 92.17094755456117
273.001 92.06137389809092
276.972 92.05749605163534
281.0 92.01785832675085
285.088 91.93981970244594
289.234 91.87871812306682
293.441 91.93793169273346
297.709 92.08078062483523
302.04 92.19454817805199
306.433 92.3101420856197
310.89 92.42079304537774
315.412 92.57168294976634
320.0 92.72535232347423
324.655 92.82500875143575
329.377 92.8939352410956
334.168 92.92435457441572
339.028 92.91780706427258
343.959 92.95275161491098
348.962 92.99873147172363
354.038 92.99777813795629
359.188 92.97167273426335
364.412 92.9232681255899
369.713 92.83837610043945
375.09 92.78850714764819
380.546 92.74058798174096
386.081 92.72070611525457
391.697 92.6447725965356
397.394 92.5733886049255
403.175 92.49485059363619
409.039 92.4167308916492
414.989 92.39873147172362
421.025 92.35747883152256
427.149 92.27697499063224
433.362 92.21621271092229
439.665 92.14427199242891
446.06 92.14249605163536
452.548 92.14076223178311
459.131 92.11382071200184
465.809 92.08163780570685
472.584 92.07488116935045
479.458 92.10693495375055
486.432 92.13117459919197
493.507 92.14384281815812
500.686 92.14384281815812
507.968 92.15604358904615
515.357 92.19317195715415
522.853 92.304925006658
530.458 92.38350114785779
538.174 92.42491347837586
546.002 92.50859769751577
553.943 92.57309285093443
562.001 92.62343990581265
570.175 92.6117975491917
578.469 92.60112480253234
586.883 92.51995022341303
595.419 92.46542200681485
604.08 92.41068080086717
612.866 92.35502338056901
621.78 92.35024728951659
630.824 92.33730648502133
640.0 92.27869005276969
649.309 92.2119428113983
658.753 92.10522268694656
668.335 91.98517511015713
678.056 91.87823232744587
687.919 91.82211189008164
697.925 91.80247135837935
708.077 91.84952278982858
718.376 91.8932594098094
728.825 91.88536137227054
739.426 91.80067062579259
750.181 91.74051576950282
761.093 91.65594953251487
772.163 91.60760760208437
783.394 91.68505464685545
794.789 91.74495707869268
806.349 91.79199159978003
818.078 91.80947193794637
829.977 91.82141668543643
842.05 91.83161007681832
854.298 91.90285359632959
866.724 91.98945064381334
879.33 92.05390806819874
892.12 92.06431734900751
905.097 91.98695766228916
918.262 91.94469861186928
931.618 92.01980790732307
945.169 92.15975962298604
958.917 92.31505296021116
972.864 92.44002878144907
987.015 92.53945829557763
1001.37 92.64967287198503
1015.94 92.80654644277685
1030.71 92.97137620278815
1045.71 93.0908916337485
1060.92 93.08944661293437
1076.35 92.95276653789605
1092.0 92.74336694496
1107.89 92.50632372960801
1124.0 92.26926989803108
1140.35 92.04241688774148
1156.94 91.85437360650113
1173.77 91.73337562953226
1190.84 91.72379191180737
1208.16 91.65423189064613
1225.73 91.49410304124014
1243.56 91.28224124653791
1261.65 91.10714571407286
1280.0 90.982596165946
1298.62 90.87728558680901
1317.51 90.76634042602532
1336.67 90.6624347323361
1356.11 90.59177043985213
1375.84 90.50877637766438
1395.85 90.4655655676373
1416.15 90.55424628271935
1436.75 90.76702403608347
1457.65 90.97513533444165
1478.85 91.10816456750888
1500.36 91.26285565110622
1522.19 91.49462918304714
1544.33 91.70386601142539
1566.79 91.76892301542976
1589.58 91.68576049978314
1612.7 91.61449022292821
1636.16 91.57186936201063
1659.95 91.5075736814529
1684.1 91.37390010645477
1708.6 91.20319106399045
1733.45 91.02382316810078
1758.66 90.80970732817859
1784.24 90.53728644749118
1810.19 90.23129046154534
1836.52 89.9411401731153
1863.24 89.76462795093468
1890.34 89.66706420664859
1917.83 89.64337245685392
1945.73 89.59772625450042
1974.03 89.53943720860373
2002.74 89.54412012630604
2031.87 89.52047662309754
2061.43 89.419108850388
2091.41 89.36333853213038
2121.83 89.42546321945908
2152.69 89.43356852856564
2184.01 89.44310186891917
2215.77 89.61779141208127
2248.0 89.77547484483482
2280.7 89.84282958648
2313.87 89.8454676370031
2347.53 89.81867716786992
2381.68 89.65507176669509
2416.32 89.47492198325952
2451.46 89.44515223443788
2487.12 89.45350985307023
2523.3 89.4273544771056
2560.0 89.46939542824087
2597.24 89.38078407622235
2635.01 89.24508204623831
2673.34 89.32218406659992
2712.23 89.41896875812489
2751.68 89.53050922074117
2791.7 89.4745403761503
2832.31 89.23597223118541
2873.5 89.12298736324867
2915.3 89.17955606781469
2957.7 89.2838127855302
3000.72 89.24619024776031
3044.37 89.02907867812017
3088.65 88.8756222225263
3133.58 88.9489138350028
3179.16 89.04541204282893
3225.4 89.04342483545615
3272.31 88.90174213503428
3319.91 88.79383892277258
3368.2 88.75992508870935
3417.19 88.67706346053819
3466.89 88.60558253487673
3517.32 88.4497209149367
3568.48 88.40574892501375
3620.39 88.54349991846088
3673.05 88.69871782764568
3726.47 88.57800642031775
3780.67 88.3304575838641
3835.67 88.38411042874338
3891.46 88.50311580567787
3948.06 88.4047819099684
4005.49 88.42374030478368
4063.75 88.60625675488997
4122.86 88.70187072200777
4182.82 88.79410770050754
4243.66 88.95664228686475
4305.39 89.09898727999085
4368.01 89.20908575988994
4431.55 89.35763637148148
4496.01 89.45299439169216
4561.4 89.50634822040853
4627.75 89.62059689484785
4695.06 89.66871181177324
4763.35 89.63506850261392
4832.64 89.70458432909196
4902.93 89.82306927099113
4974.24 89.81291325077949
5046.6 89.89717346708338
5120.0 89.92198585730672
5194.47 89.82757372749246
5270.03 89.77589743818096
5346.68 89.83908956937402
5424.45 89.82654614374208
5503.35 89.89175421779049
5583.4 90.0800291273537
5664.61 90.0723450577551
5747.01 90.19159128044153
5830.6 90.28497205657006
5915.41 90.24005259997124
6001.45 90.23871207443297
6088.74 90.18541365633709
6177.3 90.00362945458235
6267.15 89.92117212532055
6358.31 89.73562192704205
6450.8 89.59461116794019
6544.62 89.51659727520011
6639.82 89.44687127410732
6736.4 89.46519775615543
6834.38 89.40306388888992
6933.79 89.4029952097265
7034.64 89.36318628089529
7136.96 89.38201010453419
7240.77 89.40566664607566
7346.09 89.47778656307176
7452.94 89.48838931620259
7561.35 89.52000916107409
7671.33 89.47651815901088
7782.91 89.515381807677
7896.12 89.56062473442309
8010.97 89.70355067759469
8127.49 89.85426696067114
8245.71 90.02433735324726
8365.65 90.09694983420971
8487.33 90.16417913611896
8610.78 90.20637977296636
8736.03 90.25576593232681
8863.09 90.36639837022733
8992.01 90.50136969576873
9122.8 90.58802064560139
9255.5 90.64237675913493
9390.12 90.59824353191509
9526.7 90.76504414665308
9665.27 90.9312761096195
9805.86 91.12632009630813
9948.49 91.25348107755464
10093.2 91.30197327589997
10240.0 91.41552019824333
10388.9 91.58421441753353
10540.1 91.80682306037365
10693.4 91.97087111849139
10848.9 92.0955808565393
11006.7 92.10876668256282
11166.8 91.84100947401879
11329.2 90.73472009528336
11494.0 90.49704952352143
11661.2 91.56072603765848
11830.8 92.29305376407511
12002.9 92.83925694867101
12177.5 93.17462611272022
12354.6 93.18625599799259
12534.3 92.87282419034572
12716.6 92.01570642373174
12901.6 90.92080497114394
13089.2 90.40078017622535
13279.6 90.64816347737971
13472.8 91.17240617359143
13668.8 91.56581128226703
13867.6 91.69317438450335
14069.3 91.74934397966807
14273.9 91.74276847184359
14481.5 91.5295930511162
14692.2 91.15150204390301
14905.9 90.97819811701031
15122.7 90.96104421137606
15342.7 90.80480157295835
15565.8 90.6805999882579
15792.2 90.72073793403396
16021.9 90.79570590746131
16255.0 90.84870656249795
16491.4 91.0060391746991
16731.3 91.17309168294503
16974.7 91.42998477996875
17221.6 91.89416546071597
17472.1 91.99487257594869
17726.2 91.68805866658242
17984.0 91.4065300748448
18245.6 91.59856522842757
18511.0 92.28827316273188
18780.2 93.15694320304415
19053.4 93.69314340000388
19330.5 93.46837634446025
19611.7 92.33044342022237
19897.0 90.74990682752633
