Freq,On Axis,Listening Window,Sound Power,Early Reflections,Early Reflections DI,Sound Power DI,DI offset
22.4,49.2,48.95427207150455,46.2059794033956,47.63869437134811,41.31557770015644,42.748292668108945,40
23.0,50.8,50.51978172421052,47.78009381420931,49.22041362088321,41.29936810332731,42.73968791000121,40
23.6,52.3,52.096553898256374,49.34704807783997,50.78651452779407,41.310039370462306,42.7495058204164,40
24.0,53.8,53.608049634244665,50.880194999954185,52.3156940595609,41.29235557468377,42.72785463429048,40
25.0,55.39999999999999,55.14289819660671,52.40388505226845,53.83473824727356,41.308159949333145,42.73901314433826,40
25.8,56.89999999999999,56.68651667788991,53.923579883855794,55.36177535069656,41.32474132719335,42.76293679403412,40
26.5,58.39999999999999,58.20804963424466,55.453975368751614,56.894564766376206,41.31348486786845,42.754074265493045,40
27.2,59.89999999999999,59.70804963424466,56.964662211050765,58.40461180411897,41.30343783012569,42.743387423193894,40
28.0,61.39999999999999,61.20804963424466,58.46256564821307,59.90368381683335,41.30436581741131,42.74548398603159,40
29.0,62.89999999999999,62.708049634244674,59.958487653897194,61.402339581932054,41.30571005231262,42.74956198034748,40
30.0,64.39999999999999,64.16588012352256,61.4139920213985,62.85192502948823,41.31395509403433,42.751888102124056,40
30.7,65.8,65.6080496342447,62.85397536875162,64.29456476637623,41.31348486786847,42.754074265493074,40
31.5,67.2,67.00804963424467,64.26795946039941,65.70525270779532,41.302796926449346,42.74009017384526,40
32.5,68.6,68.40804963424468,65.65397536875163,67.09456476637622,41.31348486786845,42.754074265493045,40
33.5,70.0,69.73095627477112,66.98638501848767,68.4217426519851,41.30921362278602,42.74457125628345,40
34.5,71.3,71.03175437022813,68.28296779027374,69.72456978188544,41.30718458834269,42.748786579954384,40
35.5,72.5,72.30804963424468,69.55848765389717,71.00233958193206,41.30571005231262,42.74956198034751,40
36.5,73.7,73.50804963424467,70.76466221105076,72.20461180411898,41.30343783012569,42.74338742319391,40
37.5,74.9,74.65427207150455,71.9052413403382,73.33807286205511,41.31619920944944,42.74903073116636,40
38.7,76.0,75.76588012352254,73.01487185960758,74.45192502948824,41.3139550940343,42.751008263914954,40
40.0,77.0,76.80804963424468,74.0557146167449,75.49912759016586,41.30892204407883,42.75233501749979,40
41.2,77.99999999999999,77.76588012352255,75.01487185960757,76.45192502948824,41.31395509403431,42.75100826391498,40
42.5,78.9,78.68651667788993,75.92550242807125,77.36236565906223,41.32415101882769,42.76101424981867,40
43.7,79.7,79.50804963424467,76.76543111716991,78.20461180411897,41.3034378301257,42.74261851707476,40
45.0,80.49999999999999,80.29655389825639,77.52752749566304,78.9704334104774,41.326120487778994,42.769026402593354,40
46.2,81.2,80.98674541111995,78.2287430945426,79.66846983982184,41.318275571298116,42.75800231657736,40
47.5,81.8,81.60804963424468,78.86256564821306,80.30368381683337,41.30436581741131,42.745483986031616,40
48.7,82.4,82.16588012352254,79.41399202139849,80.85192502948824,41.3139550940343,42.751888102124056,40
50.0,82.90000000000002,82.65427207150456,79.90524134033818,81.3380728620551,41.316199209449465,42.749030731166386,40
51.5,83.3,83.05427207150456,80.31115783606884,81.74729675302586,41.30697531847869,42.74311423543571,40
53.0,83.6,83.40804963424468,80.66835269384312,82.10525270779532,41.30279692644936,42.73969694040156,40
54.5,83.9,83.70804963424469,80.97439159163481,82.41505469501415,41.29299493923054,42.733658042609875,40
56.0,84.2,83.9428981966067,81.20549073017862,82.63473824727357,41.30815994933313,42.73740746642808,40
58.0,84.39999999999999,84.14289819660671,81.39507631765436,82.82902797758203,41.31387021902468,42.74782187895235,40
60.0,84.5,84.30804963424468,81.56074338112727,83.00233958193205,41.305710052312634,42.747306253117415,40
61.5,84.6,84.40804963424468,81.68019499995417,83.11569405956091,41.29235557468377,42.72785463429051,40
63.0,84.7,84.50804963424467,81.77439159163481,83.21505469501415,41.292994939230525,42.73365804260986,40
65.0,84.8,84.60804963424467,81.85086046374845,83.29456476637623,41.31348486786844,42.75718917049622,40
67.0,84.9,84.65427207150455,81.9036296778306,83.3386943713481,41.31557770015645,42.75064239367396,40
69.0,84.9,84.70804963424469,81.97172190130287,83.41505469501415,41.29299493923054,42.73632773294182,40
71.0,85.0,84.75427207150456,82.00279008786801,83.4386943713481,41.31557770015645,42.75148198363655,40
73.0,85.0,84.80804963424468,82.03701965675242,83.48806197803258,41.319987656212106,42.77102997749226,40
75.0,85.10000000000001,84.85427207150455,82.09090618397678,83.53098511916414,41.32328695234041,42.76336588752777,40
77.5,85.10000000000001,84.89655389825639,82.13627302157747,83.58589982488166,41.31065407337472,42.76028087667892,40
80.0,85.2,84.9428981966067,82.1968378864696,83.62902797758203,41.31387021902468,42.74606031013711,40
82.5,85.2,85.00804963424468,82.27006592394841,83.71123773373078,41.2968119005139,42.73798371029628,40
85.0,85.3,85.10804963424468,82.36963412639413,83.80927019067737,41.29877944356731,42.73841550785055,40
87.5,85.40000000000002,85.17745723161691,82.44457652627754,83.8712955211284,41.30616171048851,42.73288070533937,40
90.0,85.49999999999999,85.26588012352255,82.53701497691468,83.96407249140081,41.301807632121736,42.72886514660787,40
92.5,85.6,85.33175437022813,82.61389594942791,84.03893893789194,41.292815432336184,42.71785842080021,40
95.0,85.6,85.38751538737269,82.6695602489707,84.08646303449521,41.30105235287748,42.71795513840199,40
97.5,85.7,85.43175437022812,82.70820789320047,84.12493825698473,41.306816113243386,42.723546477027654,40
100.0,85.7,85.45427207150455,82.70097381393637,84.13419216662705,41.3200799048775,42.753298257568176,40
103.0,85.7,85.46310977173971,82.67662945764187,84.1256729072947,41.33743686444501,42.786480314097844,40
106.0,85.6,85.4401131411483,82.61471962437513,84.09169323398866,41.34841990715964,42.825393516773175,40
109.0,85.6,85.39428176701229,82.54592802549266,84.04729686606542,41.346984900946865,42.84835374151963,40
112.0,85.49999999999999,85.34875654509406,82.45644796433457,83.98231450258177,41.36644204251229,42.89230858075949,40
115.0,85.49999999999999,85.31450151839213,82.33718709907185,83.88108519226846,41.43341632612368,42.97731441932028,40
118.0,85.40000000000002,85.24849764652045,82.20982035356796,83.78391609838465,41.4645815481358,43.038677292952485,40
122.0,85.3,85.16919486783486,82.06307308518501,83.65901992150779,41.51017494632707,43.10612178264985,40
125.0,85.3,85.10328449402552,81.92420051288666,83.54240824891811,41.56087624510741,43.17908398113886,40
128.0,85.2,85.03536100122722,81.78168938488844,83.42038859410205,41.614972407125165,43.25367161633878,40
132.0,85.2,84.96945853721432,81.63078958225319,83.290730314392,41.67872822282233,43.338668954961136,40
136.0,85.10000000000001,84.91450151839214,81.46817608142835,83.15891597447424,41.7555855439179,43.44632543696379,40
140.0,85.10000000000001,84.85938115039191,81.30576068451678,83.02843241587203,41.83094873451988,43.55362046587513,40
145.0,85.10000000000001,84.80407536313236,81.14030808842242,82.89950724478182,41.90456811835054,43.66376727470994,40
150.0,85.0,84.75990365112534,80.98554017049655,82.78154114201824,41.9783625091071,43.77436348062879,40
155.0,85.0,84.72726310317204,80.80289180251553,82.65893223439687,42.06833086877516,43.9243713006565,40
160.0,85.0,84.67228736133087,80.62201545792983,82.53989328326797,42.1323940780629,44.05027190340104,40
165.0,85.0,84.66121878766971,80.45678178575696,82.42951572972423,42.23170305794548,44.20443700191275,40
170.0,85.0,84.64023020087784,80.29550181677158,82.32103256243374,42.319197638444095,44.34472838410626,40
175.0,84.9,84.59384519544084,80.12641140241192,82.19727665863849,42.39656853680235,44.46743379302892,40
180.0,84.9,84.57204145147985,79.97944122058684,82.09609077843047,42.47595067304938,44.59260023089301,40
185.0,84.8,84.52652329949328,79.82493948170323,81.96948409404646,42.55703920544681,44.70158381779005,40
190.0,84.8,84.49336136764337,79.67168031472197,81.85596814891115,42.63739321873223,44.821681052921406,40
195.0,84.8,84.48182663435858,79.52086053549911,81.73847098530452,42.74335564905407,44.96096609885947,40
200.0,84.7,84.41456591793373,79.3507996339732,81.59106918373205,42.82349673420168,45.06376628396053,40
206.0,84.7,84.37128005454892,79.18509183548689,81.45237274575874,42.91890730879018,45.18618821906203,40
212.0,84.6,84.31531356459266,79.02713711488381,81.30979355126225,43.00552001333041,45.28817644970884,40
218.0,84.6,84.2609487409969,78.8631781389516,81.1711143467263,43.089834394270596,45.3977706020453,40
224.0,84.5,84.18308251146874,78.69542618373487,81.0192531561442,43.16382935532454,45.48765632773387,40
230.0,84.5,84.17253898474458,78.56535038165812,80.91298983661017,43.25954914813441,45.607188603086456,40
236.0,84.39999999999999,84.08436726586758,78.41497300355859,80.76456430207274,43.31980296379484,45.669394262309,40
240.0,84.39999999999999,84.05161628713363,78.28217267811856,80.64995765116788,43.401658635965745,45.76944360901507,40
250.0,84.39999999999999,84.00895000648056,78.14275307272545,80.53589100562013,43.47305900086043,45.866196933755106,40
258.0,84.39999999999999,83.9773917722218,77.99005284368586,80.44649939822038,43.53089237400141,45.987338928535934,40
265.0,84.39999999999999,83.96801549734298,77.84484138521229,80.36607268934101,43.601942808001965,46.123174112130684,40
272.0,84.39999999999999,83.94821903074786,77.70907702239596,80.30786525936308,43.64035377138478,46.239142008351905,40
280.0,84.5,83.964010563916,77.60349963777976,80.28660835074359,43.677402213172414,46.36051092613624,40
290.0,84.5,83.96613134102807,77.51849941584611,80.27936437546141,43.68676696556666,46.447631925181966,40
300.0,84.5,83.95929744867932,77.46615327230634,80.30918302860219,43.65011442007713,46.49314417637298,40
307.0,84.6,83.99591081822518,77.45454760802191,80.38080463060932,43.615106187615865,46.54136321020327,40
315.0,84.6,84.03138866864064,77.4884405497739,80.48149374396316,43.54989492467749,46.54294811886675,40
325.0,84.6,84.06530172466971,77.56096026275152,80.61982015945942,43.44548156521029,46.50434146191819,40
335.0,84.6,84.08925295269215,77.66496381205575,80.76489096608232,43.32436198660983,46.424289140636404,40
345.0,84.7,84.13455276163548,77.81375398525621,80.95627749959526,43.178275262040216,46.32079877637926,40
355.0,84.7,84.1856431310254,78.00135270181809,81.15769732306292,43.02794580796248,46.18429042920731,40
365.0,84.8,84.25243723085131,78.21850978386351,81.3764084061929,42.87602882465842,46.0339274469878,40
375.0,84.8,84.31574664863997,78.44655753216685,81.57183428047159,42.74391236816838,45.86918911647312,40
387.0,84.9,84.39353445037455,78.66291828293147,81.74139028835681,42.652144162017734,45.730616167443074,40
400.0,85.0,84.4730797474407,78.8346898178683,81.85908739726895,42.613992350171756,45.63838992957241,40
412.0,85.2,84.58681425531087,78.95630804043621,81.95369057208158,42.633123683229286,45.63050621487466,40
425.0,85.3,84.67944773424419,79.00859324309867,81.98486406489229,42.6945836693519,45.67085449114552,40
437.0,85.40000000000002,84.7939382089604,79.00762364694977,81.9870642905257,42.806873918434704,45.78631456201063,40
450.0,85.49999999999999,84.86590463144591,78.98033381435339,81.98124152749047,42.88466310395545,45.88557081709253,40
462.0,85.6,84.89564448476585,78.9048327196567,81.93849854664818,42.95714593811768,45.99081176510916,40
475.0,85.6,84.89178740485443,78.81489959152377,81.88660820391547,43.005179200938954,46.07688781333066,40
487.0,85.6,84.84118117828784,78.73713461324463,81.8540925982085,42.987088580079345,46.104046565043205,40
500.0,85.49999999999999,84.70160633753926,78.66031317495951,81.81406334279572,42.88754299474354,46.04129316257975,40
515.0,85.2,84.47017427409028,78.60813955986767,81.78788067244996,42.682293601640325,45.86203471422262,40
530.0,85.0,84.217174344599,78.58926795739774,81.82288634614338,42.394287998455624,45.627906387201264,40
545.0,84.6,83.92205723496083,78.58749215871912,81.86072247096192,42.061334763998914,45.33456507624172,40
560.0,84.3,83.62977677203976,78.63446972118366,81.9637030312272,41.666073740812564,44.9953070508561,40
580.0,83.9,83.3287100153899,78.66058570466423,82.03227750661476,41.29643250877514,44.66812431072567,40
600.0,83.6,83.06482118549275,78.69481376503909,82.12169678778237,40.94312439771038,44.37000742045366,40
615.0,83.4,82.85735257954546,78.68722324183064,82.1588565272712,40.698496052274265,44.170129337714826,40
630.0,83.3,82.71547479463158,78.63249861613198,82.16164152767305,40.55383326695852,44.08297617849959,40
650.0,83.2,82.66546306318553,78.51743076558172,82.08451517732895,40.580947885856574,44.148032297603805,40
670.0,83.3,82.6889854915854,78.32531602665915,81.93470364501897,40.75428184656643,44.36366946492625,40
690.0,83.5,82.8072625760727,78.13043883871923,81.77860655945145,41.028656016621255,44.67682373735347,40
710.0,83.7,82.9509641588363,77.89777141379878,81.58733440858305,41.36362975025325,45.05319274503752,40
730.0,84.00000000000001,83.147263883519,77.68529940462358,81.4189635105937,41.728300372925304,45.461964478895425,40
750.0,84.2,83.32277714876751,77.51423957525134,81.30711648150667,42.015660667260846,45.808537573516176,40
775.0,84.5,83.5489992780102,77.39205405157388,81.23796733005345,42.31103194795675,46.15694522643632,40
800.0,84.8,83.76428192952645,77.31281962582496,81.23243362171858,42.53184830780786,46.45146230370149,40
825.0,85.0,83.94999123847772,77.3201318684769,81.30287224134838,42.64711899712934,46.629859370000815,40
850.0,85.2,84.12666687442886,77.36468029035564,81.4082341896301,42.71843268479877,46.76198658407323,40
875.0,85.3,84.2638654374232,77.43462824702036,81.55192449652523,42.711940940897975,46.82923719040285,40
900.0,85.40000000000002,84.38203209254429,77.5029823598727,81.67759897239215,42.704433120152146,46.87904973267159,40
925.0,85.49999999999999,84.46375522178666,77.58319501905858,81.80971481071052,42.65404041107614,46.88056020272808,40
950.0,85.49999999999999,84.53475218273877,77.63946559272038,81.92018506307227,42.6145671196665,46.89528659001839,40
975.0,85.49999999999999,84.55670056248327,77.63199199752022,81.96134151157257,42.5953590509107,46.924708564963055,40
1000.0,85.49999999999999,84.56385769605723,77.57474538285753,81.95194185036412,42.611915845693105,46.9891123131997,40
1030.0,85.40000000000002,84.4986006749787,77.44613667561468,81.86043620359764,42.63816447138106,47.05246399936402,40
1060.0,85.3,84.44649549881093,77.26630152371796,81.71496832913377,42.731527169677165,47.180193975092976,40
1090.0,85.2,84.37907790935034,77.05308407302495,81.50605877027344,42.8730191390769,47.325993836325395,40
1120.0,85.10000000000001,84.29154051906015,76.80947385361995,81.24816133476087,43.04337918429928,47.4820666654402,40
1150.0,85.0,84.23208716833584,76.58336094791703,81.00875827915473,43.223328889181104,47.64872622041881,40
1180.0,84.9,84.14467663173838,76.34107480248288,80.7379380570556,43.40673857468278,47.8036018292555,40
1220.0,84.8,84.07481560968226,76.12102332817562,80.46637798127658,43.60843762840568,47.95379228150664,40
1250.0,84.8,84.06323144819844,75.95638471860933,80.25873560497836,43.80449584322008,48.10684672958911,40
1280.0,84.7,84.03424423016106,75.81303377502375,80.04827406916262,43.98597016099845,48.22121045513731,40
1320.0,84.7,84.02669817614435,75.71247059752892,79.88450798004057,44.14219019610378,48.31422757861543,40
1360.0,84.7,84.03547335976167,75.61447970364327,79.72462193950462,44.31085142025705,48.4209936561184,40
1400.0,84.8,84.06206967781317,75.54813717931991,79.60992509531889,44.452144582494284,48.51393249849326,40
1450.0,84.8,84.06793001300755,75.47748330472172,79.47338218850909,44.59454782449846,48.59044670828584,40
1500.0,84.9,84.06915406023522,75.37866425549586,79.35061285269538,44.71854120753984,48.69048980473936,40
1550.0,85.0,84.05181091645677,75.2438474640456,79.19207732097122,44.85973359548555,48.80796345241117,40
1600.0,85.10000000000001,84.01039067709169,75.06555785133457,79.04266622982277,44.96772444726892,48.94483282575712,40
1650.0,85.2,83.94145933456203,74.79670879860521,78.8301007311516,45.11135860341042,49.14475053595682,40
1700.0,85.3,83.84739989425223,74.50299122997532,78.6232035272822,45.224196366970034,49.34440866427691,40
1750.0,85.3,83.71890993679018,74.19219332335884,78.40185264140534,45.31705729538484,49.52671661343135,40
1800.0,85.40000000000002,83.61936244285984,73.89958712677318,78.24547267079056,45.373889772069276,49.719775316086654,40
1850.0,85.40000000000002,83.51280337005235,73.63606856727114,78.1009578179055,45.41184555214686,49.876734802781215,40
1900.0,85.40000000000002,83.42292298495224,73.44737859462012,78.02713661870756,45.39578636624468,49.97554439033212,40
1950.0,85.40000000000002,83.35759513296975,73.30520711832065,77.98770920475296,45.36988592821679,50.0523880146491,40
2000.0,85.3,83.30874991903376,73.24954040965613,77.99197083357534,45.31677908545842,50.059209509377624,40
2060.0,85.10000000000001,83.27634755149714,73.27907172235429,78.0600549840032,45.21629256749394,49.99727582914285,40
2120.0,84.9,83.28672751709165,73.36938912384191,78.16126406503938,45.12546345205227,49.917338393249736,40
2180.0,84.7,83.32104466150791,73.52602130650193,78.31154617447403,45.00949848703388,49.79502335500598,40
2240.0,84.5,83.39469758418379,73.74815758737354,78.51305359659261,44.881643987591175,49.64653999681025,40
2300.0,84.3,83.4834566094758,74.00399982246637,78.73658683362662,44.74686977584918,49.479456787009426,40
2360.0,84.2,83.64442028762807,74.30790655920093,79.02012470444873,44.62429558317933,49.336513728427136,40
2400.0,84.09999999999998,83.73499254491925,74.58567529271731,79.2697538079197,44.46523873699955,49.14931725220194,40
2500.0,84.09999999999998,83.88097538238723,74.85991153399964,79.53278044749436,44.348194934892874,49.0210638483876,40
2580.0,84.2,83.98174639266998,75.07739979476398,79.73660141882803,44.245144973841946,48.904346597906,40
2650.0,84.39999999999999,84.08014436879331,75.23868870142944,79.88397871249582,44.196165656297495,48.841455667363874,40
2720.0,84.7,84.19288336962838,75.3674619396143,80.01438358175275,44.17849978787562,48.825421430014075,40
2800.0,85.0,84.25891641123334,75.43555703213444,80.07396251312183,44.184953898111516,48.8233593790989,40
2900.0,85.3,84.33749918637413,75.48226409818324,80.12549412786979,44.212005058504346,48.855235088190895,40
3000.0,85.49999999999999,84.37791368729218,75.49993622402299,80.13120038544322,44.246713301848956,48.87797746326919,40
3070.0,85.8,84.41846749261279,75.49175708186424,80.13407871481057,44.28438877780222,48.926710410748555,40
3150.0,86.0,84.4813509552275,75.50144936687015,80.13610551373053,44.34524544149697,48.97990158835735,40
3250.0,86.1,84.46861854281676,75.46569784676518,80.0799364986997,44.38868204411706,49.002920696051575,40
3350.0,86.1,84.47028067462338,75.43230404516156,80.02546783925018,44.4448128353732,49.037976629461824,40
3450.0,86.1,84.47329305107402,75.39697420328353,79.95623661974582,44.5170564313282,49.07631884779049,40
3550.0,86.0,84.43705116704385,75.34936899830333,79.86302873860627,44.57402242843757,49.087682168740514,40
3650.0,85.9,84.42375935484291,75.29153859857324,79.76175584784498,44.662003506997934,49.132220756269675,40
3750.0,85.8,84.41360147543146,75.2443004234095,79.68473714280422,44.72886433262724,49.169301052021964,40
3870.0,85.6,84.38704855813792,75.20042873956906,79.58597866239525,44.80106989574267,49.18661981856886,40
4000.0,85.49999999999999,84.3996289925651,75.18977062172407,79.54549376851737,44.854135224047724,49.20985837084103,40
4120.0,85.40000000000002,84.42929165806028,75.17314943931552,79.5094765766702,44.919815081390084,49.256142218744756,40
4250.0,85.3,84.45723091284252,75.17400461492115,79.47911277862003,44.978118134222484,49.283226297921374,40
4370.0,85.3,84.50457234044659,75.19586432983063,79.47964932327884,45.02492301716775,49.30870801061596,40
