Freq "Sound Power"
22.4 46.20597940339562
23.0 47.78009381420932
23.6 49.347048077839986
24.0 50.88019499995417
25.0 52.403885052268464
25.8 53.92357988385581
26.5 55.45397536875163
27.2 56.96466221105075
28.0 58.46256564821306
29.0 59.95848765389718
30.0 61.413992021398485
30.7 62.85397536875162
31.5 64.2679594603994
32.5 65.65397536875162
33.5 66.98638501848765
34.5 68.28296779027376
35.5 69.55848765389719
36.5 70.76466221105076
37.5 71.90524134033818
38.7 73.01487185960758
40.0 74.0557146167449
41.2 75.01487185960758
42.5 75.92550242807127
43.7 76.7654311171699
45.0 77.52752749566304
46.2 78.2287430945426
47.5 78.86256564821306
48.7 79.4139920213985
50.0 79.9052413403382
51.5 80.31115783606884
53.0 80.6683526938431
54.5 80.9743915916348
56.0 81.20549073017862
58.0 81.39507631765436
60.0 81.56074338112725
61.5 81.68019499995417
63.0 81.77439159163481
65.0 81.85086046374845
67.0 81.9036296778306
69.0 81.97172190130289
71.0 82.00279008786802
73.0 82.03701965675242
75.0 82.09090618397677
77.5 82.13627302157747
80.0 82.19683788646961
82.5 82.2700659239484
85.0 82.36963412639413
87.5 82.44457652627754
90.0 82.53701497691469
92.5 82.61389594942793
95.0 82.6695602489707
97.5 82.70820789320047
100.0 82.70097381393636
103.0 82.67662945764188
106.0 82.61471962437513
109.0 82.54592802549266
112.0 82.45644796433459
115.0 82.33718709907185
118.0 82.20982035356798
122.0 82.06307308518501
125.0 81.92420051288667
128.0 81.78168938488844
132.0 81.63078958225319
136.0 81.46817608142834
140.0 81.3057606845168
145.0 81.1403080884224
150.0 80.98554017049656
155.0 80.80289180251552
160.0 80.62201545792982
165.0 80.45678178575696
170.0 80.29550181677159
175.0 80.12641140241193
180.0 79.97944122058685
185.0 79.82493948170323
190.0 79.67168031472195
195.0 79.52086053549911
200.0 79.35079963397321
206.0 79.18509183548687
212.0 79.02713711488383
218.0 78.86317813895158
224.0 78.69542618373488
230.0 78.56535038165812
236.0 78.4149730035586
240.0 78.28217267811854
250.0 78.14275307272545
258.0 77.99005284368585
265.0 77.84484138521229
272.0 77.70907702239597
280.0 77.60349963777976
290.0 77.51849941584611
300.0 77.46615327230636
307.0 77.45454760802191
315.0 77.48844054977391
325.0 77.56096026275152
335.0 77.66496381205573
345.0 77.81375398525621
355.0 78.00135270181809
365.0 78.21850978386352
375.0 78.44655753216685
387.0 78.66291828293146
400.0 78.83468981786828
412.0 78.95630804043621
425.0 79.00859324309866
437.0 79.00762364694978
450.0 78.9803338143534
462.0 78.9048327196567
475.0 78.81489959152377
487.0 78.73713461324465
500.0 78.6603131749595
515.0 78.60813955986767
530.0 78.58926795739772
545.0 78.58749215871912
560.0 78.63446972118365
580.0 78.66058570466424
600.0 78.69481376503907
615.0 78.68722324183064
630.0 78.632498616132
650.0 78.51743076558174
670.0 78.32531602665915
690.0 78.13043883871921
710.0 77.89777141379878
730.0 77.68529940462359
750.0 77.51423957525135
775.0 77.39205405157387
800.0 77.31281962582494
825.0 77.3201318684769
850.0 77.36468029035564
875.0 77.43462824702036
900.0 77.5029823598727
925.0 77.58319501905859
950.0 77.63946559272037
975.0 77.6319919975202
1000.0 77.57474538285751
1030.0 77.44613667561468
1060.0 77.26630152371797
1090.0 77.05308407302496
1120.0 76.80947385361995
1150.0 76.58336094791701
1180.0 76.34107480248286
1220.0 76.12102332817562
1250.0 75.95638471860931
1280.0 75.81303377502375
1320.0 75.71247059752893
1360.0 75.61447970364328
1400.0 75.5481371793199
1450.0 75.4774833047217
1500.0 75.37866425549586
1550.0 75.2438474640456
1600.0 75.06555785133457
1650.0 74.79670879860521
1700.0 74.50299122997532
1750.0 74.19219332335882
1800.0 73.89958712677318
1850.0 73.63606856727112
1900.0 73.4473785946201
1950.0 73.30520711832065
2000.0 73.24954040965613
2060.0 73.27907172235429
2120.0 73.36938912384193
2180.0 73.52602130650192
2240.0 73.74815758737353
2300.0 74.00399982246637
2360.0 74.30790655920093
2400.0 74.5856752927173
2500.0 74.85991153399962
2580.0 75.07739979476398
2650.0 75.23868870142944
2720.0 75.36746193961429
2800.0 75.43555703213445
2900.0 75.48226409818322
3000.0 75.49993622402299
3070.0 75.49175708186425
3150.0 75.50144936687013
3250.0 75.46569784676517
3350.0 75.43230404516154
3450.0 75.39697420328355
3550.0 75.34936899830333
3650.0 75.29153859857324
3750.0 75.24430042340948
3870.0 75.20042873956906
4000.0 75.18977062172405
4120.0 75.17314943931554
4250.0 75.17400461492116
4370.0 75.19586432983063
4500.0 75.2111881631978
4620.0 75.23867468365984
4750.0 75.27119094169183
4870.0 75.2755149860837
5000.0 75.28203426224248
5150.0 75.25443160076682
5300.0 75.20298281286652
5450.0 75.14800677699174
5600.0 75.07566460028852
5800.0 75.00656789251536
6000.0 74.95060656075984
6150.0 74.88886628373281
6300.0 74.83612506247151
6500.0 74.79855852879604
6700.0 74.77618777079478
6900.0 74.77702916524485
7100.0 74.74950452909926
7300.0 74.72816837718486
7500.0 74.68720937527132
7750.0 74.62460206315572
8000.0 74.50581150056345
8250.0 74.37540892624
8500.0 74.21027072580199
8750.0 74.00430402061912
9000.0 73.83409406886189
9250.0 73.65289668322464
9500.0 73.48089269707538
9750.0 73.37136227467549
10000.0 73.2594493796703
10300.0 73.18306358010865
10600.0 73.11033575701539
10900.0 73.0734187638902
11200.0 73.0179724074195
11500.0 72.9969363851898
11800.0 72.95716590473825
12200.0 72.91672808790874
12500.0 72.8872767239088
12800.0 72.81873173598837
13200.0 72.74389230463566
13600.0 72.65054276169894
14000.0 72.54479469436819
14500.0 72.44201948744121
15000.0 72.3196681296599
15500.0 72.19069335345418
16000.0 72.026202025878
16500.0 71.89612869990992
17000.0 71.71480385160935
17500.0 71.5449475865919
18000.0 71.34507760825846
18500.0 71.145277067804
19000.0 70.91502972091797
19500.0 70.6996629497506
