Freq,Floor Bounce,Ceiling Bounce,Front Wall Bounce,Side Wall Bounce,Rear Wall Bounce,Total Early Reflection
20.5078,50.8706406021206,52.56620342369172,50.99366884689354,52.571898176805234,56.64034287605256,53.306641514030474
23.4375,53.94789752314006,51.46456263300587,53.26829908307306,52.38885198952801,52.337484316544135,52.765405368188766
26.3672,55.00417955552129,55.057621894464944,54.86044800926808,55.1452666678378,58.307382778495196,55.90491621743132
29.2969,55.5481174490867,53.38649513691453,54.91993170756197,53.95197923777195,56.588186495197675,55.02860488182975
32.2266,59.22489241025332,57.70906683058462,58.72403620679404,58.22084275261375,60.20458380471533,58.90325965895968
35.1563,61.64934550841613,60.27767410234489,61.2181995871571,60.66501875356116,62.33229756498207,61.289267460538525
38.0859,64.99661762500864,63.45143451152603,64.54667936001096,63.990344890385074,64.86646999216049,64.40761697168816
41.0156,65.96027764871425,63.99091524210641,65.39617826708559,64.59917152460903,65.10016604487501,65.06107706665284
43.9453,69.37802060370927,68.0451071152062,69.00990568001532,68.48471989178327,68.839926321072,68.77520691454978
46.875,71.3432371706133,69.82219447591001,70.93034740806569,70.34182137871218,70.27211850604186,70.57498051154431
49.8047,73.35145657920931,71.84980993258407,72.9471866299788,72.37781241221802,72.05100700047662,72.55184300347639
52.7344,75.21792842768416,73.73577905570778,74.823261668957,74.26621191217708,73.76126591400568,74.40058864678647
55.6641,76.94628376384736,75.5033931125033,76.56112513648793,76.03572813758188,75.40005689515567,76.13052663340977
58.5938,78.45323899858576,77.01202105540371,78.06753476574228,77.55397782553923,76.79913971507506,77.62182591786447
61.5234,79.49529004614192,78.10414626151498,79.12567392004159,78.6226770631093,77.78733691934505,78.67259956297931
64.4531,80.69602351671922,79.34254155963313,80.33761020606197,79.85391326384473,78.96853069628632,79.88531553419932
67.3828,81.7653661084544,80.4542177475639,81.41610649554815,80.95714449227668,80.04018621786484,80.97129845511138
70.3125,83.00033494355402,81.777246096535,82.66991846974324,82.25616024052285,81.39993228384337,82.25921611736297
73.2422,83.93353434624676,82.785420892165,83.6204601670336,83.24279647340175,82.41097228587964,83.23321428104833
76.1719,84.80679487783898,83.69511859192538,84.50450063908826,84.14164565042364,83.29421671603588,84.12220584764353
79.1016,85.45230047968123,84.39749907047181,85.1615362811365,84.82759584134224,84.0072442401247,84.79990147142328
82.0313,85.9634212586283,84.9443778059412,85.68587963082406,85.36256612300247,84.50314858354629,85.32271313917333
84.9609,86.79621352989201,85.82862595503816,86.53260057155121,86.23050770283834,85.39960256840436,86.18566650514889
87.8906,87.60703789411335,86.68528436315209,87.3480933175819,87.0841095964296,86.35556261290915,87.03909869107108
90.8203,88.11626161433954,87.28707223904192,87.85892205298477,87.68436857932656,87.16436898359201,87.63660016321867
93.75,88.73655827065473,87.99149361862038,88.52105345761359,88.33452973729993,87.70311876169927,88.27295855365574
96.6797,89.24121658072961,88.47619235936449,89.03235721912314,88.80854314187634,88.05418855723758,88.74248639588954
102.539,90.0559384597535,89.371483168445,89.84589635918478,89.7152268251312,89.18521621836807,89.646211360412
105.469,90.58101782030252,89.9499983712769,90.38701028987094,90.26875894683496,89.73943886188277,90.19573978513142
108.398,91.0450562701896,90.44467950602619,90.85773344521806,90.75666386870705,90.25121048980508,90.68044853539519
111.328,91.45312052842453,90.88366957993851,91.27406637215992,91.18826872879214,90.70671464824744,91.10951214463515
117.188,92.12686041389694,91.640156749835,91.97136034816114,91.9111626732845,91.4809885499769,91.83234811833101
120.117,92.37777107604443,91.91874039199763,92.2351254297287,92.17996090940852,91.74405115660973,92.09710223571102
125.977,92.97571499184471,92.53098774613146,92.83061487999915,92.8074865204805,92.40998084991095,92.71592444464713
128.906,93.31227743283628,92.90179924500256,93.17003683721052,93.17235352109509,92.82148591709803,93.07947108640371
134.766,93.78981688719837,93.42674064736966,93.65472530820631,93.68640984601328,93.41985218656683,93.5980118388522
137.695,94.0025342004235,93.65239319856028,93.87209689418758,93.90139832107985,93.63998908223725,93.81604938880712
143.555,94.1991410071425,93.86853519463602,94.07956036056481,94.10485104611742,93.81492354931359,94.01587387411007
149.414,94.68026073699139,94.35608627200219,94.56784029327872,94.5966493574656,94.30552396910736,94.50368211417724
155.273,94.8251803695407,94.52313581155965,94.71499508216272,94.76990651730758,94.52341736534382,94.67314573688282
158.203,94.78261597129399,94.48499571931957,94.67290126973911,94.73005110640054,94.49574445585877,94.63496589564951
164.063,94.90875054049295,94.63523092098566,94.80318760740612,94.86608364775022,94.68083972411571,94.78009010010437
169.922,95.12285410496804,94.89302443117026,95.03296435175105,95.10992609905747,94.97950581227569,95.02848884089941
175.781,95.13364916969172,94.91007373620991,95.0533839863292,95.11373738459824,94.97182629248974,95.0373580536846
181.641,95.07606576479684,94.83261491056666,94.99540769030892,95.03435232456772,94.85362969073091,94.95951241506785
190.43,95.16331679568661,94.91643875939515,95.08802679529803,95.12637309196259,94.92275101426426,95.04462050526156
196.289,95.17076029653398,94.94863054388166,95.10598935247887,95.1299835739575,94.9361679015021,95.05938636184965
202.148,95.11237312382177,94.88946558633816,95.05408638322422,95.05357974641177,94.84070436358465,94.99131662716559
210.938,95.02395975626284,94.80228915485283,94.96985979623507,94.96805986469529,94.77759963937889,94.90948064081739
216.797,95.02323291075513,94.80257864922257,94.9661031008207,94.96888666902245,94.7864526404297,94.9105132547468
225.586,94.88987690853995,94.63516248522046,94.83932636050032,94.8002900626128,94.59990956111548,94.75442344582245
234.375,94.93626730006359,94.68143569581441,94.89710002528818,94.82391547384111,94.57797807743005,94.78541553350387
240.234,94.74573444944899,94.49339184917558,94.70500696151782,94.63467848612294,94.37371997248358,94.59269681499724
249.023,94.72796722720962,94.39914673777332,94.673418185705,94.52875334303357,94.17137882891686,94.5047264608549
257.813,94.64893588277182,94.32834829860693,94.58830675980279,94.4985908760464,94.21664055666145,94.4591492557978
266.602,94.48923763801615,94.04096848975686,94.39704298592054,94.25113532637623,93.8768994655544,94.21688238258089
278.32,94.37055613522038,93.93753036858821,94.30322705012202,94.0873929521813,93.96226198482347,94.13576926233061
287.109,94.48506536053439,94.14704963655755,94.50616461537973,94.24051150416386,93.80822382221453,94.2448260898071
295.898,94.29480627978602,93.98512980500078,94.33056233009506,94.0112261086106,93.51364446208461,94.03680262858533
307.617,94.22296611556413,93.79594168206069,94.14829204057993,93.8778640151232,93.48898203864952,93.91472221526831
319.336,93.99215854554863,93.4741636185222,93.92981341828698,93.65818915986858,93.34945328725831,93.68793619208274
331.055,94.06750561325818,93.42957139015883,94.01304287819917,93.59505946466724,93.12080410520021,93.65981572788161
342.773,94.02181249865282,93.39621988849768,93.98188927908961,93.50849629559404,92.95015663099272,93.58978363222101
354.492,93.89275311022853,93.28652094668712,93.87303863520211,93.3643871316166,92.65956389223308,93.43849373935302
366.211,93.80899873662722,93.24813670202911,93.79787826745178,93.33518565521813,92.61528209519464,93.38278013901713
377.93,93.8767891150259,93.07571601544493,93.79079307933924,93.28426009089716,92.72018972402616,93.37128563010755
392.578,93.67275839274777,92.70075461755336,93.55653809250882,92.9974634061068,92.43927264986655,93.09958802647172
407.227,93.49949078450449,92.66349710021284,93.4775815266126,92.78305841149887,92.34824397864377,92.97865993596594
421.875,93.65549138206404,92.67530742006058,93.58625929424461,92.72315341564612,92.10854720856193,92.98963650864067
436.523,93.52947628221342,92.5222249832178,93.49613749569056,92.58146558453814,92.02182075210703,92.8703675486585
451.172,93.84980165002939,92.51041786237148,93.71140204182934,92.66213593939784,91.58262199506615,92.94247108807926
465.82,93.70410091908651,92.47413617499896,93.6229716392695,92.6322755362196,91.68264697599174,92.88860028609218
483.398,93.68579346047089,92.43873202723279,93.60666533321188,92.52098904680636,91.22416985445402,92.78608929532024
500.977,93.57553538909922,92.52614883426585,93.56557046231335,92.45785995627114,91.17481590772769,92.74690615449057
518.555,93.57950567472598,92.59132159753571,93.54318735789381,92.339415613603,90.94130570313433,92.70119492817624
536.133,93.56484704949222,92.35727577990768,93.54085085470305,92.33812521844753,90.6833407633616,92.61818593155793
553.711,93.9539579307837,92.31879744497343,93.78328945459059,92.50225230435755,90.59484066631904,92.79056133242064
574.219,93.94589935500268,92.27269383926156,93.77654006582408,92.56087845841668,90.1816356570662,92.74175930560259
594.727,93.96373925322659,92.1528597638527,93.80480146393546,92.76192159962092,89.975605729195,92.74960261721608
615.234,94.03214173260886,92.27531850816143,93.94778244707709,92.87779668904673,89.93374678285474,92.84466500517152
638.672,94.0208664746105,92.29967191226515,93.86217049010723,92.9124941834911,90.03306251613486,92.8414292867985
659.18,94.14203397199424,92.2392303562007,94.02704491540806,93.08149142266484,89.68275540008295,92.90490015063895
682.617,94.24980296368265,91.7451439574988,94.03625807381084,93.10161962904164,89.8364996483736,92.87518013028573
706.055,94.11880243615826,91.67211454476931,93.87546825973416,93.07963050303673,89.8629309280289,92.78442066707598
732.422,94.32317604159739,91.33388559482461,93.98561754610098,93.08501374994682,89.70082125688168,92.80450104258591
758.789,94.41053750832555,91.17577030927757,94.14310862484578,93.17304168655784,89.61616763612264,92.85991772029666
785.156,94.27453575030985,91.0157154697183,93.74476079532637,93.02268713114674,89.2036272573746,92.622599987672
811.523,94.23508954563889,91.0948145678239,93.60715464993137,92.9464782484298,89.34936009202572,92.58381211932753
840.82,93.99374353538339,91.61209119092565,93.58625608956838,92.90926440499655,89.08810498030111,92.5556121888824
870.117,93.7840543829235,91.57124815837828,93.28151514325167,92.69793335315764,89.38219971909206,92.39721179056839
902.344,93.81212279865461,91.20843830520475,93.41624326724285,92.68510902033046,89.12941021208454,92.35345876204173
931.641,94.00561489012289,91.37440707160631,93.81082233374632,92.87630796030943,89.11002210554642,92.57494875552565
966.797,93.88239770161404,91.95827146389394,93.83266913030204,92.81040506243185,88.97297500477407,92.61543378759195
999.023,93.44461590866628,91.64094304851596,93.4241496554032,92.67030631333785,89.03369407738016,92.31436898948095
1034.18,93.02241670658674,90.78539703743147,93.15869941394065,92.12072452996945,88.71715110795517,91.84529570040465
1072.27,92.78178861786196,90.4875333474248,93.06656381924465,91.74978608172262,87.97062373869315,91.56260394626457
1110.35,92.2598006005147,89.97297912140536,92.95441508563,91.67238021321364,87.63321340273427,91.27131530795477
1148.44,92.12443565033064,90.0748367845557,92.85374114612475,91.40254936638546,87.49082342447564,91.15269419246009
1189.45,92.00608093933324,89.57212558275052,93.26435428240742,91.315664697302,87.25235317868106,91.13862195200576
1230.47,91.94490698851416,89.82540404075532,93.42770638112307,91.19829353385651,87.4011930273646,91.2022530622903
1274.41,92.23673071572625,90.4068591027004,93.71390861617496,91.29369574993942,87.4533176888059,91.47798555134011
1318.36,92.36156821009939,91.27918428566427,93.90109724788994,91.31085889949485,87.42316666741043,91.7173537475403
1365.23,91.86771056786905,91.17017807259117,93.61928594812623,90.95725319695543,86.9712523222658,91.39382732403405
1415.04,91.02672064810363,90.70646217559253,93.31072804993748,90.35427790768945,86.44359831284774,90.87249374177509
1464.84,90.27927234648831,90.65186277737435,93.30558529545853,90.24329303754573,86.10706953912057,90.67051566105332
1514.65,89.86707085325952,90.71828246097756,93.7009693681971,90.5553254728681,86.14287902022033,90.82231381552583
1570.31,89.13799165996393,90.96357733380842,93.82080217457082,90.74620997746062,86.22809323370598,90.85345852620425
1623.05,88.191416066467,90.74911679518058,93.16367997363074,90.0843996675257,85.57875173246954,90.25344821813911
1681.64,86.76863519287237,90.94040247949076,92.29288217005234,89.41061317776705,84.59471660186878,89.61284661787869
1740.23,85.61027784016514,90.6080531310619,92.1671986668699,89.20548031162906,84.27519587564359,89.306187005597
1801.76,84.8415722233361,90.30979298803285,92.5828495477018,89.33403150671684,84.16891724366516,89.3554271857598
1866.21,84.81235532199916,90.98338673908924,92.29292424034901,89.25351773457453,83.72405252266879,89.37543476987219
1930.66,85.77975082929387,91.76472117502132,91.22066814292009,88.54043527599029,82.84156615737085,89.15001627886275
2000.98,87.31096276106868,92.67856403039676,91.32108899907844,88.53790737305299,83.05750842820615,89.69711735645842
2071.29,87.75015892413663,92.79867847139613,91.36887710668825,88.75812883756562,82.7892740049817,89.83397802443528
2144.53,89.56541429502744,93.06074630558972,90.55624565059767,87.94955648840528,82.85768856498746,89.89588007796318
2217.77,90.72426508242307,93.0780134329982,90.48948187992633,87.61408960343472,81.89372684734455,90.05539148738752
2296.88,92.29205564313706,93.98961789196595,90.43223045957897,88.0830137225191,82.74377675424006,90.8897929533191
2378.91,93.78073811805359,94.40671418611798,91.44042936885137,88.68775018574422,82.93274957623338,91.74680949567683
2460.94,94.69734353601082,93.54231137733818,91.89899127545699,88.62257083567432,82.55850015998318,91.85652648285179
2548.83,95.30221461642529,94.45421173592683,91.81255497572124,88.2367743014603,81.85049228982302,92.31284783155644
2639.65,95.8993044760586,94.5035560149409,92.6577322553644,89.11664860478193,82.54738539170741,92.81047172414063
2733.4,95.81194170427234,94.36430195285737,92.76827459562628,89.17827213892204,82.64690009951744,92.7633289032738
2827.15,96.07386766691417,94.00424885854396,92.99284340565823,89.27958216354922,83.33146322504565,92.84123002114461
2926.76,96.42421500879942,93.72153826854802,93.51481604397569,89.44775583023528,83.84574616378558,93.05988907422432
3032.23,96.5515270676445,92.9464158273806,94.11384623099617,90.01018209884211,83.39742060111878,93.1346822375988
3137.7,96.60012152567003,91.63657421326954,94.59241843596348,90.5218350956697,83.69018216933709,93.1256839874871
3249.02,96.28419967779371,92.04403078499513,93.82287151137395,90.64330314684096,83.65018415451647,92.85748749419591
3363.28,96.59259408766711,92.96795389283105,93.40575432497236,90.12856651918203,83.01596308006452,92.9949234744804
3483.4,96.51862721075051,93.74025418800697,93.77579234870711,90.40008884844389,82.72767572276899,93.2310734845964
3606.45,96.06468686301993,93.8160392196747,94.03842422836311,90.27319385312789,82.76059272037783,93.11180668817069
3732.42,95.98099333121827,94.28599313128342,93.98594496306887,90.06301741990316,82.67667425377797,93.15976748873878
3864.26,95.50986967725518,94.17089595186833,94.23826235948312,90.61966315350512,83.52330419291566,93.09668096488215
3999.02,95.53013833298748,93.80046698001769,94.43645368065285,91.02473469800739,84.28168935809413,93.13171556482217
4139.65,95.83082004613564,93.03138964558674,94.69325272025418,91.39304947531008,84.04708064189147,93.18790888258744
4286.13,95.56715868443912,93.03447216104776,94.51498112484519,91.20923234791965,83.4533106781463,93.00389072222777
4438.48,94.86993885337843,92.39222481279273,94.05384207716864,91.51644053050522,83.77164729914455,92.5542255654185
4593.75,95.19016705184237,92.79296886664368,93.7749921047451,91.77326972376218,84.25640366465458,92.723986075339
4757.81,96.53600632155242,93.48538432972715,91.9635163618004,91.94279243577742,84.08045373304778,93.06506351954212
4924.8,96.18426543697512,92.80971815418565,91.54292861368343,91.56511384327908,83.72433274182595,92.62903269951872
5097.66,95.68882573928147,92.80282427388812,92.0695610939183,91.71011195314377,83.27189785660887,92.51295602571807
5279.3,95.77763601600593,92.53508199588377,91.69263740873168,91.89592098077715,83.02471881976022,92.45497839658596
5463.87,96.0100061111866,91.86615449810232,93.11118787070852,91.31204622050373,82.56103342385293,92.60410425168152
5657.23,95.69702719051762,91.93631104544767,92.91384880362222,91.32330532779667,82.30633227527225,92.43385145322694
5856.45,94.6709699189952,91.1651768077005,92.80324399300085,91.70880421195362,81.81391690705819,91.92015904438928
6061.52,93.9938655437828,91.27868456952575,92.9681212878761,91.26323653631258,81.48733320441599,91.64935701051493
6275.39,93.71441417618504,91.49582693197144,92.55715813920412,91.2847933228143,81.3454878931667,91.48948337955272
6498.05,94.13383742005101,91.71649959549808,92.10386858657506,91.03139204078273,80.65037591891401,91.5122932729933
6726.56,93.88872289443621,92.12426239752608,91.88604221455377,90.27996914559736,80.30676561992398,91.3334684772891
6963.87,93.73420121071084,92.43546250497748,91.89068595217745,89.71785669957072,78.77512477315912,91.25340332677857
7209.96,93.4631089296673,92.00691058591127,91.4607478372299,89.11365346652371,78.31079025895842,90.85661321071056
7464.84,93.263263515797,91.64253785855293,91.6354062018044,88.7462283752915,77.66260114534104,90.67778494065121
7728.52,92.77632581260559,91.16427723957446,92.20917472287141,88.9945197605783,77.28445407818873,90.57855775044331
8000.98,92.6311720447585,90.28485557541399,92.89651534116172,89.50700402879792,78.30750822392925,90.65153331058609
8282.23,92.66215343944395,89.61285879495207,93.2940733226229,89.93957193675622,78.27182006987749,90.75477281598813
8575.2,92.21108444847218,88.8986289258045,93.3538362044813,89.9321831122956,78.08503485756304,90.53332726349831
8876.95,91.72226330945816,88.18950053124921,92.85025933840052,89.46535624822988,77.42403404356959,90.01117051585197
9190.43,91.53966804873134,87.78255040122878,92.2710178304568,88.56503662796973,76.3713430697879,89.51782476117938
9512.7,90.82612998694822,87.4554826870387,91.82059590677638,87.72846162403367,75.3329561876694,88.93622008658107
9849.61,90.88118104728278,87.25246200403461,91.39103226906317,86.98938234158783,74.57483492818182,88.64784947202037
10195.3,90.43246980933513,86.6788602221603,91.49259558695262,86.75727045351681,73.66720762742722,88.42298618893783
10555.7,90.21334303136749,86.04764249542437,91.71625442763936,86.7955511949084,73.33389427557054,88.3723365499287
10927.7,89.76230804513804,85.8019323936878,91.80473298962814,86.42519845018928,72.68007758945159,88.19531036522287
11314.5,89.29626296797758,85.82325306593388,91.88927854454523,85.86348743522373,71.34656482159129,88.03055038361317
11712.9,89.30108950523046,85.56511951425888,91.888469454387,85.18589326891463,70.70651442932495,87.9211969474315
12126.0,88.61613927083111,85.13462110267749,92.04183873241614,85.03164739897981,70.80342887931815,87.7584697934361
12553.7,88.5442454693466,84.48713285606061,92.09023668492998,85.0732106848148,71.25991095176569,87.7075443347223
12996.1,88.08682740645925,83.3662944378139,91.73594192949076,84.69239962650599,70.95988069105547,87.25791164391713
13453.1,87.46149772946481,82.44408641704695,91.34801877327769,84.12592819418464,70.64559193331496,86.75241702697843
13927.7,86.93922856821942,81.95197411918761,90.63326819633446,83.70219984301218,70.41928228343389,86.13526191349277
14419.9,86.43323566910979,81.76458023211552,89.91468918431872,83.48120612429193,69.29585174621758,85.56773393420654
14929.7,86.1817142973408,81.65975702338314,89.57344651206299,83.3128787547541,69.05090347127557,85.2906680251146
15454.1,86.14138013083237,81.30912971531306,89.59373842228482,83.12085076207784,68.40785314211487,85.23549992603112
