Freq,On Axis,Listening Window,Sound Power,Early Reflections,Early Reflections DI,Sound Power DI,DI offset
22.4,-12.700000000000003,-10.706223305901815,-8.260161217453728,-8.743578197387635,38.03735489148582,37.55393791155191,40
23.0,-11.000000000000014,-9.716704614443515,-6.952041565276673,-7.501909242021938,37.78520462757842,37.23533695083316,40
23.6,-9.299999999999997,-8.43665718812197,-5.56749998210644,-6.14554436330728,37.70888717518531,37.13084279398447,40
24.0,-6.700000000000003,-3.810457357472629,-2.3562586338230886,-2.717062187458268,38.90660482998564,38.54580127635046,40
25.0,-4.800000000000026,-0.11865182802624474,0.37930076725443485,0.1802612760788378,39.70108689589492,39.50204740471932,40
25.8,-3.500000000000014,2.6368181268920097,2.540185076386635,2.4252656024841457,40.211552524407864,40.096633050505375,40
26.5,-2.3000000000000256,4.988046937702492,4.470405702229371,4.389333662161604,40.59871327554089,40.51764123547312,40
27.2,2.1000000000000085,9.253443151406557,8.320770884002641,8.313946810191155,40.9394963412154,40.932672267403916,40
28.0,6.1000000000000085,12.646319139710116,11.113798157212997,11.274722906545733,41.37159623316438,41.53252098249712,40
29.0,9.700000000000031,15.230730662369737,13.035890463726204,13.444707663512915,41.78602299885682,42.19484019864353,40
30.0,14.90000000000002,17.479863454637254,15.7719928636633,16.334984443627278,41.14487901100998,41.707870590973954,40
30.7,17.299999999999997,18.964530082012445,17.88976476670375,18.037165553190775,40.92736452882167,41.074765315308696,40
31.5,18.89999999999999,19.527490162160817,19.29968573883322,19.115264524666642,40.412225637494174,40.2278044233276,40
32.5,20.39999999999999,19.857136021296455,20.449094135142687,20.096783326664408,39.76035269463205,39.40804188615377,40
33.5,23.799999999999997,23.216905269958247,24.314282564126913,24.129986631015285,39.08691863894296,38.902622705831334,40
34.5,26.799999999999997,26.78150565889358,28.662928846690775,28.540345459276736,38.24116019961684,38.118576812202804,40
35.5,29.999999999999986,31.78064054718861,34.89531478104577,34.83659108900396,36.94404945818465,36.88532576614284,40
36.5,32.8,35.212828689478854,37.069899551347376,37.27474774155998,37.93808094791888,38.14292913813148,40
37.5,34.89999999999999,38.5062537515722,38.588758656887094,39.06902684839868,39.437226903173524,39.91749509468511,40
38.7,37.7,42.26778008190159,39.774251401930925,40.869387204631934,41.39839287726966,42.493528679970666,40
40.0,42.60000000000001,43.47379475367414,40.90412310759105,42.01109783145232,41.462696922221824,42.569671646083094,40
41.2,46.89999999999999,45.35611016184804,44.080184707385754,44.41679828857552,40.939311873272516,41.27592545446228,40
42.5,51.2,51.283308907129495,50.70492134840184,49.66865649817781,41.614652408951684,40.578387558727655,40
43.7,53.10000000000001,55.148864728035605,54.22365429074877,52.79521038205131,42.353654345984296,40.925210437286836,40
45.0,53.7,54.88211807637809,54.51003496133832,53.47406804470289,41.4080500316752,40.37208311503977,40
46.2,56.10000000000001,54.749287849252184,54.59762657021166,54.635153103593254,40.11413474565893,40.151661279040525,40
47.5,58.60000000000001,57.89800207261156,56.73808328775222,57.42736668065869,40.47063539195287,41.15991878485934,40
48.7,62.499999999999986,64.00599506699302,61.913534507569665,62.502203474431596,41.50379159256143,42.09246055942336,40
50.0,65.8,68.8900020496581,66.43305376511852,66.85833115401745,42.031670895640644,42.45694828453958,40
51.5,65.2,65.78481753289023,63.94501367822572,64.34762898754967,41.43718854534056,41.83980385466451,40
53.0,65.7,66.04793143102957,65.25040406427682,65.61039579618428,40.43753563484529,40.797527366752746,40
54.5,67.9,68.40805796592467,66.53052035990984,67.221697786884,41.186360179040676,41.877537606014826,40
56.0,70.1,70.5658218847998,68.81886995582977,69.52929307934187,41.036528805457934,41.746951928970034,40
58.0,72.40000000000002,72.28631647659046,70.8932770809547,71.53013916148957,40.756177315100885,41.39303939563575,40
60.0,74.3,73.91792942580354,72.6881627303399,73.23422314223146,40.68370628357208,41.22976669546364,40
61.5,76.00000000000001,75.44618775943627,74.32149202092728,74.77038372834679,40.675804031089484,41.12469573850899,40
63.0,77.3,77.0324026060105,75.84521623917028,76.31686233681721,40.7155402691933,41.18718636684022,40
65.0,78.50000000000001,78.54780258745737,77.24839009734141,77.78054903838292,40.767253549074454,41.299412490115955,40
67.0,79.60000000000001,79.39129829693563,78.38476753824952,78.83746585788722,40.553832439048406,41.00653075868611,40
69.0,80.5,80.21379491760636,79.38043188100868,79.7488774762999,40.46491744130647,40.83336303659769,40
71.0,81.2,81.03789335294637,80.275384435796,80.56904787405963,40.468845478886735,40.76250891715037,40
73.0,81.7,81.45890536322388,80.99389422741277,81.21979279603669,40.23911256718719,40.46501113581111,40
75.0,82.2,81.89393963410934,81.62026486407991,81.744340345574,40.14959928853534,40.27367477002943,40
77.5,82.6,82.33822352968241,82.17383927486658,82.20728936822574,40.130934161456665,40.16438425481583,40
80.0,82.8,82.67823306508387,82.65071471232493,82.64635238005705,40.03188068502682,40.027518352758946,40
82.5,83.2,83.06717965375994,83.08199114362569,83.02611066447088,40.04106898928906,39.98518851013425,40
85.0,83.4,83.31122549985842,83.38831179300696,83.28638959303228,40.02483590682614,39.92291370685146,40
87.5,83.3,83.25609803813524,83.45257004029718,83.31608447280527,39.94001356532996,39.80352799783806,40
90.0,83.2,83.16768347817136,83.38224393774087,83.25688059833762,39.91080287983374,39.78543954043049,40
92.5,83.2,83.08925841531061,83.22897365115176,83.10433928058931,39.984919134721295,39.86028476415885,40
95.0,83.0,82.91173585711586,83.1158904895226,83.0010373438875,39.910698513228354,39.79584536759326,40
97.5,82.8,82.73384370232101,82.79823564614007,82.74913780896121,39.9847058933598,39.93560805618094,40
100.0,82.6,82.533843702321,82.41595615404462,82.45312754961942,40.08071615270157,40.11788754827637,40
103.0,82.40000000000002,82.50051167804048,82.20672172239524,82.33811719241243,40.162394485628056,40.29378995564524,40
106.0,82.2,82.40230816861715,81.93505914335317,82.14372111737313,40.25858705124402,40.46724902526398,40
109.0,82.10000000000001,82.26794123556499,81.67764408313853,81.9672242981392,40.30071693742579,40.59029715242646,40
112.0,82.2,82.13409756292211,81.54245887961561,81.84986054199483,40.28423702092728,40.5916386833065,40
115.0,82.10000000000001,82.11173585711586,81.54179800427835,81.88761587730691,40.22411997980895,40.56993785283751,40
118.0,82.0,82.10051167804048,81.4902995545031,81.84483838468749,40.255673293352984,40.61021212353738,40
122.0,82.0,82.033843702321,81.45233321788065,81.76648694835639,40.267356753964606,40.581510484440344,40
125.0,81.8,81.88951489542683,81.28771382679216,81.58492077017966,40.304594125247164,40.60180106863467,40
128.0,81.6,81.66717965375996,81.17798750935368,81.40411106192482,40.263068591835136,40.489192144406275,40
132.0,81.5,81.50051167804047,81.07630267101224,81.2754786445045,40.225033033535965,40.424209007028225,40
136.0,81.39999999999999,81.4447289505772,81.02238887996053,81.19327299235557,40.25145595822163,40.42234007061667,40
140.0,81.3,81.32293110248064,80.84817834551968,81.0417172456373,40.28121385684334,40.47475275696095,40
145.0,81.3,81.24498807390718,80.78806688886165,81.00093018099736,40.24405789290982,40.45692118504553,40
150.0,81.3,81.3789985633745,80.6987008072006,81.0049838584037,40.37401470497079,40.6802977561739,40
155.0,81.39999999999999,81.32293110248064,80.64184683568938,80.95367813881911,40.36925296366152,40.68108426679126,40
160.0,81.39999999999999,81.30051167804048,80.59652049458528,80.907205898112,40.39330577992848,40.7039911834552,40
165.0,81.39999999999999,81.25686156553041,80.47337754445586,80.82067762085389,40.43618394467653,40.78348402107456,40
170.0,81.39999999999999,81.25686156553041,80.43327801780723,80.78808095428042,40.46878061125,40.82358354772319,40
175.0,81.3,81.17899271118895,80.30464198612917,80.66707692639868,40.511915784790276,40.874350725059784,40
180.0,81.2,81.03562068408569,80.18854655098953,80.51390770762849,40.521712976457195,40.84707413309616,40
185.0,81.2,81.00255805872011,80.18258033691919,80.47548316037198,40.52707489834813,40.819977721800925,40
190.0,81.2,80.99255700981675,80.17507571944161,80.44543871845916,40.54711829135759,40.81748129037514,40
195.0,81.09999999999998,80.88127710423244,79.98283886377187,80.26105529620435,40.62022180802809,40.898438240460564,40
200.0,81.09999999999998,80.79558653578087,79.61933592108616,80.02522172163592,40.770364814144955,41.17625061469471,40
206.0,81.00000000000001,80.72896215694927,79.01176062036733,79.69174807446174,41.03721408248752,41.71720153658194,40
212.0,81.00000000000001,80.70708482926707,78.46122487561014,79.46530366877244,41.24178116049464,42.24585995365693,40
218.0,80.9,80.64928032556396,77.97852129138987,79.25355767745963,41.39572264810434,42.6707590341741,40
224.0,80.8,80.49455002383584,77.68896643803511,79.06888552265941,41.42566450117643,42.80558358580073,40
230.0,80.6,80.35228246738139,77.4784547601668,78.85549673087225,41.49678573650914,42.87382770721459,40
236.0,80.5,80.18703592431402,77.19713181789986,78.59162108244541,41.5954148418686,42.98990410641416,40
240.0,80.3,79.96390198076044,76.84016367246082,78.31717026530318,41.646731715457264,43.12373830829962,40
250.0,80.2,79.89882484139397,76.60672764099992,78.21547148189678,41.68335335949719,43.29209720039405,40
258.0,80.1,79.86063752019827,76.58068030051241,78.24787851113855,41.612759009059715,43.279957219685855,40
265.0,79.99999999999999,79.85837672536982,76.70812927434788,78.36633138932153,41.49204533604829,43.15024745102194,40
272.0,79.90000000000002,79.8343573213356,76.98140814893452,78.49419336421768,41.34016395711792,42.85294917240108,40
280.0,79.8,79.80051167804048,77.16514255342757,78.54947795308739,41.25103372495309,42.63536912461291,40
290.0,79.7,79.74523538608283,77.25596308716499,78.54926905415105,41.19596633193177,42.48927229891784,40
300.0,79.60000000000001,79.65583957685776,77.08308077646387,78.4058397659564,41.24999981090136,42.572758800393885,40
307.0,79.60000000000001,79.6015232095018,76.83400760405685,78.26372815394122,41.33779505556059,42.767515605444956,40
315.0,79.5,79.47899271118895,76.6007092275007,78.0557906501512,41.423202061037756,42.87828348368825,40
325.0,79.4,79.32293110248064,76.47135526783761,77.91769939044191,41.40523171203873,42.85157583464303,40
335.0,79.3,79.20152320950179,76.22325800408194,77.69769276676858,41.503830442733204,42.978265205419845,40
345.0,79.3,79.14701360926962,75.88736554100377,77.46684325352099,41.68017035574863,43.25964806826585,40
355.0,79.3,79.08076315484847,75.5271931553255,77.27375116271482,41.80701199213365,43.55356999952296,40
365.0,79.4,79.14753759997562,75.40427064065939,77.3072637812475,41.84027381872812,43.74326695931623,40
375.0,79.4,79.1586410523403,75.27344394554336,77.23534764740245,41.92329340493785,43.88519710679694,40
387.0,79.3,79.09454391774932,75.00707619385207,77.07622804961478,42.018315868134536,44.08746772389725,40
400.0,79.2,78.97223459127416,74.66934138471512,76.85765096365233,42.114583627621826,44.302893206559034,40
412.0,79.1,78.8063124995639,74.30164972582374,76.57581669761932,42.230495801944585,44.504662773740165,40
425.0,78.89999999999999,78.54246570630923,73.8550532019991,76.2046253741771,42.33784033213213,44.68741250431013,40
437.0,78.8,78.38757957553713,73.54517790392255,75.95096521645557,42.43661435908156,44.84240167161458,40
450.0,78.89999999999999,78.52101655063004,73.64883062335434,76.07858138937128,42.44243516125876,44.872185927275694,40
462.0,78.89999999999999,78.62896215694926,73.87520658731056,76.2644373591926,42.36452479775666,44.7537555696387,40
475.0,79.0,78.82621015383259,74.21840527477441,76.55699884003855,42.269211313794045,44.60780487905818,40
487.0,79.0,78.88050017092458,74.41401226506677,76.68040890311306,42.200091267811516,44.466487905857804,40
500.0,78.89999999999999,78.72471847978657,74.23564267864263,76.51471139988041,42.21000707990616,44.48907580114394,40
515.0,78.50000000000001,78.34701360926961,73.68566492086953,75.99465916582584,42.35235444344377,44.66134868840008,40
530.0,78.2,78.0017849235051,73.24734896287251,75.56205378945187,42.43973113405323,44.75443596063259,40
545.0,77.9,77.73613409300067,72.81602776316456,75.19703638540058,42.53909770760009,44.920106329836116,40
560.0,77.9,77.6516040939979,72.40531262996,74.93669578618399,42.714908307813914,45.24629146403791,40
580.0,78.2,77.76179121223197,72.52053443873912,75.04060802213995,42.72118319009202,45.24125677349285,40
600.0,78.4,78.01530161905966,72.85911747987265,75.29089620637333,42.72440541268632,45.156184139187005,40
615.0,78.8,78.41086734881428,73.21997729986411,75.61229409158419,42.79857325723009,45.190890048950166,40
630.0,79.3,78.90280258971171,73.44903469376939,75.98038507735232,42.92241751235939,45.45376789594232,40
650.0,79.8,79.38052391933365,73.61201593105665,76.29307254932688,43.087451370006775,45.76850798827701,40
670.0,80.1,79.61644270823666,73.68786629312397,76.40567968128546,43.2107630269512,45.92857641511269,40
690.0,80.1,79.63069572898549,73.7053516409114,76.39504021066055,43.23565551832493,45.925344088074084,40
710.0,80.1,79.67182096732155,73.68105736879622,76.35645357779903,43.31536738952252,45.990763598525334,40
730.0,80.2,79.78311944524911,73.65219424587767,76.4006308651822,43.38248858006692,46.13092519937145,40
750.0,80.4,80.00228522505887,73.68851196975031,76.54592121766795,43.45636400739092,46.31377325530856,40
775.0,80.5,80.04545271025253,73.86551389484237,76.6668670488117,43.37858566144084,46.17993881541017,40
800.0,79.8,79.72495549955775,74.52214926297981,76.74461993999874,42.98033555955901,45.20280623657794,40
825.0,78.8,78.9535074346413,75.04035788078438,76.45956004799102,42.49394738665028,43.91314955385691,40
850.0,78.50000000000001,78.22004442591249,74.47038692169593,75.47730204605915,42.74274237985334,43.74965750421656,40
875.0,79.60000000000001,78.88249620307577,73.8245940927184,75.1742481038567,43.70824809921908,45.057902110357375,40
900.0,80.4,79.70329129150011,73.72060938284837,75.57696821551613,44.126323075983976,45.98268190865174,40
925.0,80.5,79.81584566696259,73.4870617527069,75.71386177191307,44.101983895049514,46.328783914255695,40
950.0,80.1,79.46612498458373,73.0691487358116,75.6145857144971,43.85153927008663,46.396976248772134,40
975.0,79.90000000000002,79.12254543690845,72.46000340374248,75.22881353050141,43.89373190640704,46.66254203316598,40
1000.0,79.99999999999999,79.13837024573463,71.99788756613147,75.05637844139112,44.08199180434352,47.14048267960317,40
1030.0,80.1,79.15212517945626,71.52411296247473,74.82423498361608,44.32789019584018,47.62801221698153,40
1060.0,79.99999999999999,78.99074788566065,71.04409046805816,74.50186688594538,44.48888099971528,47.946657417602495,40
1090.0,79.99999999999999,78.9769112668375,70.63734341595419,74.27355638485822,44.70335488197928,48.33956785088331,40
1120.0,80.4,79.37185199929561,70.6785613810666,74.42605668974686,44.94579530954876,48.693290618229014,40
1150.0,80.6,79.63286174551361,70.81673002984775,74.66132315062157,44.97153859489204,48.81613171566586,40
1180.0,80.7,79.87752585470909,71.08175451036648,74.87250397725099,45.005021877458105,48.79577134434261,40
1220.0,80.8,79.94942411319327,71.27885273229803,74.95928352271366,44.99014059047961,48.67057138089524,40
1250.0,80.8,79.82296272259838,71.08872403296233,74.74528424220327,45.07767848039511,48.734238689636044,40
1280.0,80.7,79.67826754686394,70.81783281787999,74.47331390636286,45.204953640501074,48.86043472898395,40
1320.0,80.4,79.49084152703854,70.6102659636236,74.12107659404354,45.369764932995,48.880575563414936,40
1360.0,80.6,79.98521137948228,71.59856854231874,74.76986638060748,45.2153449988748,48.386642837163535,40
1400.0,80.4,79.74891041754023,71.61536945721873,74.71526559702055,45.03364482051968,48.1335409603215,40
1450.0,79.8,78.91218105658461,71.26229195600106,74.11180811984902,44.8003729367356,47.64988910058355,40
1500.0,79.1,78.20598240005457,70.91668492719417,73.49111601991233,44.71486638014224,47.2892974728604,40
1550.0,78.4,77.53282695846035,70.8868374079875,73.17260037656646,44.36022658189388,46.64598955047285,40
1600.0,77.9,77.24391996801532,71.13277977855753,73.31592460887289,43.92799535914243,46.111140189457785,40
1650.0,78.4,77.53875538672794,71.32697435318339,73.79987098115926,43.73888440556868,46.211781033544554,40
1700.0,79.5,78.31355455407935,71.29798242686446,74.26901750648022,44.04453704759912,47.01557212721488,40
1750.0,80.9,79.50786731366007,71.50166437358213,74.94759261541569,44.560274698244385,48.00620294007794,40
1800.0,81.5,80.09035770136343,72.30090191813092,75.83928744732093,44.2510702540425,47.78945578323251,40
1850.0,81.39999999999999,79.92829904707578,72.43620432045502,76.19036304565748,43.737936001418305,47.49209472662076,40
1900.0,81.2,79.99335371124091,73.26189768761547,77.05914411841634,42.93420959282457,46.73145602362544,40
1950.0,81.2,80.20994537720061,73.96013723433212,77.80778377890418,42.40216159829643,46.24980814286849,40
2000.0,80.9,79.89407876033756,73.46141495307494,77.4313925794621,42.462686180875465,46.43266380726263,40
2060.0,80.6,79.71564290762119,73.29080495156299,77.52595125880354,42.18969164881764,46.4248379560582,40
2120.0,80.2,79.5368795479399,73.12592363864049,77.54257925910292,41.99430028883698,46.41095590929942,40
2180.0,79.90000000000002,79.25499402615645,72.75263356364508,77.11451277706968,42.140481249086776,46.502360462511376,40
2240.0,79.5,78.7798268125838,71.82083297060113,76.4207599498553,42.35906686272851,46.958993841982675,40
2300.0,78.89999999999999,78.34438372336517,71.2467543512221,75.88545545974168,42.45892826362349,47.097629372143075,40
2360.0,78.8,78.50253892995381,71.41114085667415,75.95697490993555,42.54556402001826,47.09139807327966,40
2400.0,79.4,79.33846049923027,72.22587346220524,76.59917290355034,42.739287595679926,47.11258703702502,40
2500.0,80.2,80.1153511943153,72.88076632628491,76.78504119332439,43.330310000990906,47.23458486803038,40
2580.0,80.9,80.49676731979955,72.82373025384244,76.78354197422827,43.713225345571274,47.673037065957104,40
2650.0,81.6,80.75134249069366,72.58713873241976,76.51149096246242,44.23985152823124,48.1642037582739,40
2720.0,82.2,80.71685338331427,72.25651384686027,76.0378674255321,44.678985957782174,48.460339536454,40
2800.0,82.40000000000002,80.79511413652736,72.21157382876633,75.99439896760049,44.80071516892687,48.58354030776103,40
2900.0,82.40000000000002,80.79288510458964,72.83746605990318,76.27530179295734,44.51758331163231,47.955419044686465,40
3000.0,82.10000000000001,80.28642853993838,72.29199801778886,75.82750353984908,44.45892500008931,47.99443052214953,40
3070.0,81.5,79.84620513461128,71.90959709647875,75.53948409147209,44.30672104313919,47.93660803813253,40
3150.0,81.2,79.24546594818247,71.00441941144109,74.85057421240363,44.39489173577884,48.24104653674138,40
3250.0,80.8,78.82250260075962,70.90504695677906,74.81207538072486,44.01042722003476,47.91745564398056,40
3350.0,79.99999999999999,78.06119550514009,70.40993331504194,74.48019803380868,43.580997471331415,47.65126219009815,40
3450.0,79.1,77.40089965855164,69.66643339466908,74.01109767694064,43.389801981611,47.73446626388255,40
3550.0,78.7,77.4287506907793,69.46333640733273,73.81005865570349,43.61869203507581,47.96541428344656,40
3650.0,79.5,77.99527046045444,69.48972521972668,74.19386255760706,43.80140790284737,48.505545240727756,40
3750.0,79.8,78.1840046689917,69.45679439095399,74.18265108730715,44.001353581684555,48.72721027803772,40
3870.0,79.2,77.6710959220762,68.95472872033895,73.64305066323121,44.028045258845,48.716367201737256,40
4000.0,78.59999999999998,77.11304854352456,68.61565344238763,73.26625652692965,43.846792016594904,48.49739510113693,40
4120.0,79.1,77.67602552934896,69.45196513242213,73.91428458800726,43.7617409413417,48.22406039692683,40
