Freq "On Axis"
22.4 -12.325316455696182
23.0 -10.625316455696193
23.6 -8.925316455696148
24.0 -6.325316455696182
25.0 -4.425316455696148
25.8 -3.1253164556961934
26.5 -1.925316455696148
27.2 2.4746835443038293
28.0 6.474683544303829
29.0 10.074683544303852
30.0 15.27468354430384
30.7 17.674683544303818
31.5 19.27468354430384
32.5 20.77468354430384
33.5 24.174683544303818
34.5 27.174683544303818
35.5 30.374683544303835
36.5 33.17468354430382
37.5 35.27468354430384
38.7 38.07468354430385
40.0 42.97468354430383
41.2 47.27468354430384
42.5 51.57468354430385
43.7 53.47468354430383
45.0 54.07468354430385
46.2 56.47468354430383
47.5 58.97468354430383
48.7 62.874683544303835
50.0 66.17468354430383
51.5 65.57468354430382
53.0 66.07468354430384
54.5 68.27468354430384
56.0 70.47468354430383
58.0 72.77468354430384
60.0 74.67468354430383
61.5 76.37468354430383
63.0 77.67468354430385
65.0 78.87468354430383
67.0 79.97468354430383
69.0 80.87468354430383
71.0 81.57468354430385
73.0 82.07468354430384
75.0 82.57468354430384
77.5 82.97468354430383
80.0 83.17468354430383
82.5 83.57468354430384
85.0 83.77468354430384
87.5 83.67468354430383
90.0 83.57468354430384
92.5 83.57468354430384
95.0 83.37468354430383
97.5 83.17468354430383
100.0 82.97468354430383
103.0 82.77468354430384
106.0 82.57468354430384
109.0 82.47468354430383
112.0 82.57468354430384
115.0 82.47468354430383
118.0 82.37468354430383
122.0 82.37468354430383
125.0 82.17468354430383
128.0 81.97468354430383
132.0 81.87468354430383
136.0 81.77468354430384
140.0 81.67468354430382
145.0 81.67468354430382
150.0 81.67468354430382
155.0 81.77468354430384
160.0 81.77468354430384
165.0 81.77468354430384
170.0 81.77468354430384
175.0 81.67468354430382
180.0 81.57468354430385
185.0 81.57468354430385
190.0 81.57468354430385
195.0 81.47468354430383
200.0 81.47468354430383
206.0 81.37468354430383
212.0 81.37468354430383
218.0 81.27468354430384
224.0 81.17468354430383
230.0 80.97468354430383
236.0 80.87468354430383
240.0 80.67468354430383
250.0 80.57468354430382
258.0 80.47468354430383
265.0 80.37468354430383
272.0 80.27468354430384
280.0 80.17468354430385
290.0 80.07468354430384
300.0 79.97468354430383
307.0 79.97468354430383
315.0 79.87468354430383
325.0 79.77468354430384
335.0 79.67468354430383
345.0 79.67468354430383
355.0 79.67468354430383
365.0 79.77468354430384
375.0 79.77468354430384
387.0 79.67468354430383
400.0 79.57468354430384
412.0 79.47468354430383
425.0 79.27468354430384
437.0 79.17468354430382
450.0 79.27468354430384
462.0 79.27468354430384
475.0 79.37468354430383
487.0 79.37468354430383
500.0 79.27468354430384
515.0 78.87468354430383
530.0 78.57468354430384
545.0 78.27468354430384
560.0 78.27468354430384
580.0 78.57468354430384
600.0 78.77468354430384
615.0 79.17468354430382
630.0 79.67468354430383
650.0 80.17468354430385
670.0 80.47468354430383
690.0 80.47468354430383
710.0 80.47468354430383
730.0 80.57468354430382
750.0 80.77468354430384
775.0 80.87468354430383
800.0 80.17468354430385
825.0 79.17468354430382
850.0 78.87468354430383
875.0 79.97468354430383
900.0 80.77468354430384
925.0 80.87468354430383
950.0 80.47468354430383
975.0 80.27468354430384
1000.0 80.37468354430383
1030.0 80.47468354430383
1060.0 80.37468354430383
1090.0 80.37468354430383
1120.0 80.77468354430384
1150.0 80.97468354430383
1180.0 81.07468354430384
1220.0 81.17468354430383
1250.0 81.17468354430383
1280.0 81.07468354430384
1320.0 80.77468354430384
1360.0 80.97468354430383
1400.0 80.77468354430384
1450.0 80.17468354430385
1500.0 79.47468354430383
1550.0 78.77468354430384
1600.0 78.27468354430384
1650.0 78.77468354430384
1700.0 79.87468354430383
1750.0 81.27468354430384
1800.0 81.87468354430383
1850.0 81.77468354430384
1900.0 81.57468354430385
1950.0 81.57468354430385
2000.0 81.27468354430384
2060.0 80.97468354430383
2120.0 80.57468354430382
2180.0 80.27468354430384
2240.0 79.87468354430383
2300.0 79.27468354430384
2360.0 79.17468354430382
2400.0 79.77468354430384
2500.0 80.57468354430382
2580.0 81.27468354430384
2650.0 81.97468354430383
2720.0 82.57468354430384
2800.0 82.77468354430384
2900.0 82.77468354430384
3000.0 82.47468354430383
3070.0 81.87468354430383
3150.0 81.57468354430385
3250.0 81.17468354430383
3350.0 80.37468354430383
3450.0 79.47468354430383
3550.0 79.07468354430385
3650.0 79.87468354430383
3750.0 80.17468354430385
3870.0 79.57468354430384
4000.0 78.97468354430383
4120.0 79.47468354430383
4250.0 81.17468354430383
4370.0 80.27468354430384
4500.0 78.07468354430382
4620.0 80.37468354430383
4750.0 82.47468354430383
4870.0 81.67468354430382
5000.0 81.27468354430384
5150.0 81.37468354430383
5300.0 80.47468354430383
5450.0 78.97468354430383
5600.0 78.07468354430382
5800.0 81.37468354430383
6000.0 81.57468354430385
6150.0 79.77468354430384
6300.0 79.67468354430383
6500.0 79.67468354430383
6700.0 80.07468354430384
6900.0 80.37468354430383
7100.0 79.57468354430384
7300.0 79.57468354430384
7500.0 79.07468354430385
7750.0 78.37468354430383
8000.0 78.37468354430383
8250.0 79.17468354430382
8500.0 81.17468354430383
8750.0 81.17468354430383
9000.0 79.17468354430382
9250.0 76.57468354430385
9500.0 77.77468354430384
9750.0 80.07468354430384
10000.0 80.17468354430385
10300.0 79.47468354430383
10600.0 78.67468354430383
10900.0 82.07468354430384
11200.0 82.87468354430383
11500.0 81.87468354430383
11800.0 80.67468354430383
12200.0 79.77468354430384
12500.0 79.17468354430382
12800.0 79.07468354430385
13200.0 80.27468354430384
13600.0 81.27468354430384
14000.0 79.47468354430383
14500.0 78.37468354430383
15000.0 79.07468354430385
15500.0 77.77468354430384
16000.0 77.57468354430384
16500.0 78.87468354430383
17000.0 79.77468354430384
17500.0 79.97468354430383
18000.0 78.17468354430383
18500.0 78.97468354430383
19000.0 78.07468354430382
19500.0 77.37468354430383
