Freq "Estimated In-Room Response"
20.5078 74.01256413321548
21.9727 76.50163156310808
23.4375 80.01773704369731
24.9023 83.48842807725921
26.3672 86.13742274132605
27.832 89.69197611812989
29.2969 92.60189796997759
30.7617 94.93596142913518
32.2266 97.2849280085596
33.6914 99.36970052093135
35.1562 101.17389229596658
36.6211 102.77082017960132
38.0859 104.10647107519974
39.5508 105.29864501415057
41.0156 106.22286325791853
42.4805 106.9940284004649
43.9453 107.49795884441157
45.4102 107.9327475696225
46.875 108.1502402465414
48.3398 108.32470724792795
51.2695 108.84402479375797
52.7344 108.85660659489977
54.1992 108.91233641754323
55.6641 109.02378499834005
58.5938 109.10529920282632
60.0586 109.16542637182178
62.9883 109.2167417161055
64.4531 109.2461516657635
67.3828 109.33602754559078
68.8477 109.38166479533581
71.7773 109.46966827868796
74.707 109.5470953246175
77.6367 109.62790241548456
79.1016 109.67955634643354
82.0312 109.74719631306176
84.9609 109.78041946539221
87.8906 109.79463083072379
90.8203 109.78467616591126
95.2148 110.01569587562254
98.1445 110.0820847323737
101.074 109.90272836567978
105.469 109.9065128976326
108.398 109.99854723489145
112.793 110.03417539245697
117.188 110.0383962040294
120.117 110.16001080703832
124.512 110.22231034843263
128.906 110.16891810755071
133.301 110.05481882362683
139.16 110.08742442399092
143.555 110.20601597407095
147.949 110.14341730071263
153.809 110.02777747554708
159.668 109.98393412676892
165.527 110.02847756999091
171.387 110.10651252703636
177.246 110.20500962417276
183.105 110.14892610547898
188.965 110.27995726386519
196.289 110.22223908836538
203.613 110.11546289365076
210.938 109.73015037189452
218.262 109.41034209554837
225.586 109.44741082184927
232.91 108.99872107322916
241.699 108.75006104104406
250.488 108.9490336223507
259.277 108.81020617565038
268.066 108.34969472360845
276.855 108.09628650420365
287.109 108.22528737681567
297.363 108.1175855370807
307.617 108.06291642943415
319.336 107.79842023155095
329.59 108.4190105241525
341.309 108.49788351313217
353.027 108.59431787182028
366.211 109.06933236975615
379.395 108.99180929065253
392.578 108.46465658400619
405.762 108.22764229228105
420.41 108.59862873311046
435.059 107.62891005363674
451.172 108.02534993877441
465.82 108.05717193803692
483.398 107.71552325831038
499.512 107.96316638027236
517.09 107.45989257698479
536.133 107.2521943121383
555.176 107.37303874570836
574.219 107.7242578042016
594.727 106.65669343326667
615.234 107.4317442271209
637.207 108.6821491710391
659.18 107.30929637823448
682.617 107.26258083902134
707.52 106.46348931929582
732.422 104.97385952366146
757.324 103.3504112936699
785.156 104.88628095617122
811.523 106.26046159942024
840.82 107.53521641357781
870.117 107.87271918814122
900.879 107.35518912407056
933.105 108.0945263184434
965.332 107.61715476161173
1000.49 107.67022939375623
1035.64 107.18723400324751
1072.27 107.03263519532204
1108.89 106.634059644908
1148.44 106.36091125263144
1189.45 106.3780243315148
1230.47 105.99806627671082
1274.41 105.94825461401146
1319.82 105.11491472657141
1366.7 104.74525567732012
1413.57 104.94752376207795
1463.38 105.49263988802153
1516.11 105.64390309770849
1568.85 104.97132900922793
1624.51 104.45929905116029
1681.64 104.5634636055597
1741.7 105.22509566092839
1803.22 105.4547940459481
1866.21 104.90825683544459
1932.13 104.41425119134901
1999.51 105.41324034253722
2069.82 106.04351125691285
2143.07 106.22228156255584
2219.24 106.29517546066569
2296.88 106.52579957593532
2378.91 106.51368473062902
2462.4 106.83906689206037
2548.83 107.51812566823344
2639.65 106.45770753545948
2731.93 105.95657722186421
2828.61 106.23970421392968
2928.22 105.88724013887926
3030.76 105.93222590579998
3137.7 105.74415534793214
3249.02 105.4867284935816
3363.28 105.69793463628632
3481.93 106.1645849670912
3604.98 106.41533704719271
3732.42 106.83619859319222
3864.26 106.9804871146359
4000.49 106.83434754819532
4141.11 106.73843351943721
4287.6 106.67540151112638
4438.48 106.908488485676
4595.21 106.93272876345688
4756.35 107.1595728808454
4924.8 107.25316591883693
5097.66 107.90667631340833
5277.83 108.13522303081317
5463.87 108.4362680621751
5657.23 108.34440823919695
5856.45 108.31924704154072
6062.99 108.17526705686893
6276.86 108.24743266970388
6498.05 108.26343755730352
6726.56 108.0110410512019
6963.87 108.09237053044578
7209.96 108.15205709967161
7464.84 107.79879910264982
7727.05 107.35603193718802
7999.51 107.14657896078776
8282.23 107.05174733367397
8573.73 106.9309076885431
8876.95 106.73723323542576
9188.96 106.37861456312004
9514.16 106.10187365446907
9849.61 106.01020765363305
10196.8 105.6987285461453
10555.7 105.12929984169905
10927.7 104.6701654310168
11313.0 106.18066429239585
11712.9 107.25205913190355
12126.0 107.12038544956846
12553.7 106.07289527776567
12996.1 106.6808945894073
13454.6 107.76419263065776
13929.2 108.31767918264963
14419.9 108.29161216347225
14928.2 107.34831047326037
15455.6 105.51104797565853
16000.5 103.30356334527495
16564.5 104.33667716888243
17148.9 104.89120487468514
17752.4 104.72506601950482
18379.4 105.73709959847346
19026.9 106.24121608115362
19697.8 103.59740006535648
19999.5 100.95909586859302
