Freq "Front Wall Bounce"
22.4 6.974161786662307
23.0 8.953923090839652
23.6 10.743056098726584
24.0 12.225507382915566
25.0 13.362919030954231
25.8 14.250227521864872
26.5 14.969796047703767
27.2 15.592250401943659
28.0 16.181807758112484
29.0 16.87228689424444
30.0 17.706332380529943
30.7 18.784387859773545
31.5 20.169594081530988
32.5 22.02361278910314
33.5 24.13531368174253
34.5 26.563380153990238
35.5 29.144858721516187
36.5 31.8278940123937
37.5 34.36211680952323
38.7 36.78750020041542
40.0 39.06920024144887
41.2 41.30316442639864
42.5 43.42211629253441
43.7 45.45411909842238
45.0 47.41188827654278
46.2 49.31952082395128
47.5 51.15679128473013
48.7 52.92313453413604
50.0 54.633130061779994
51.5 56.34483184447238
53.0 57.95623688136345
54.5 59.56934370616452
56.0 61.05296892849947
58.0 62.47778784779021
60.0 63.836907015982405
61.5 65.07534476892411
63.0 66.23079214087838
65.0 67.3006099809175
67.0 68.28228224982463
69.0 69.21123199732203
71.0 69.97904869477904
73.0 70.7080199331791
75.0 71.44988289426743
77.5 72.04988289426741
80.0 72.67710809159084
82.5 73.20479188263519
85.0 73.71989465772813
87.5 74.17646114546415
90.0 74.64859558934216
92.5 75.04859558934216
95.0 75.37710809159084
97.5 75.67710809159084
100.0 75.9622033133951
103.0 76.26220331339508
106.0 76.44758822255176
109.0 76.64758822255176
112.0 76.79128676727488
115.0 76.94758822255176
118.0 77.04758822255175
122.0 77.14758822255178
125.0 77.24758822255174
128.0 77.37546022227338
132.0 77.50445532904872
136.0 77.60445532904872
140.0 77.64693686369229
145.0 77.67612238914381
150.0 77.67612238914381
155.0 77.67612238914381
160.0 77.67612238914381
165.0 77.69064192998502
170.0 77.74825465239233
175.0 77.79064192998501
180.0 77.86286750447385
185.0 77.96286750447388
190.0 77.96286750447388
195.0 78.06286750447387
200.0 78.06286750447387
206.0 78.06286750447387
212.0 78.03555260697352
218.0 78.00609223529139
224.0 77.93555260697352
230.0 77.90869246209067
236.0 77.86415058658642
240.0 77.80869246209068
250.0 77.76415058658642
258.0 77.73746727544477
265.0 77.70869246209068
272.0 77.70869246209068
280.0 77.63746727544476
290.0 77.60869246209069
300.0 77.60869246209069
307.0 77.68228224982462
315.0 77.68228224982462
325.0 77.75380380852519
335.0 77.79746336932229
345.0 77.79746336932229
355.0 77.8276673293166
365.0 77.8276673293166
375.0 77.79746336932229
387.0 77.79746336932229
400.0 77.79746336932229
412.0 77.71294336141273
425.0 77.69746336932229
437.0 77.69746336932229
450.0 77.69746336932229
462.0 77.72378170236891
475.0 77.7524570420024
487.0 77.8237817023689
500.0 77.8237817023689
515.0 77.79746336932229
530.0 77.71294336141273
545.0 77.6430402255744
560.0 77.51743687442328
580.0 77.43320423527072
600.0 77.49226964762963
615.0 77.50812847798113
630.0 77.53895794831267
650.0 77.43895794831266
670.0 77.23895794831266
690.0 76.98348283527424
710.0 76.78348283527424
730.0 76.63895794831265
750.0 76.60812847798114
775.0 76.50812847798113
800.0 76.33895794831265
825.0 76.06385683693357
850.0 75.80812847798114
875.0 75.5922696476296
900.0 75.46753358636845
925.0 75.31448713138077
950.0 75.03063202148407
975.0 74.75465960223633
1000.0 74.50850448849721
1030.0 74.50850448849721
1060.0 74.60850448849722
1090.0 74.53137767580348
1120.0 74.3313776758035
1150.0 74.51460203881099
1180.0 75.12043146617225
1220.0 75.52940169118587
1250.0 75.62940169118586
1280.0 75.71127756727037
1320.0 75.91127756727036
1360.0 76.05016719338187
1400.0 76.05016719338187
1450.0 76.12277204768773
1500.0 76.25016719338187
1550.0 76.32046032517383
1600.0 76.34787001108313
1650.0 76.30002900500094
1700.0 76.20002900500097
1750.0 76.06854760516546
1800.0 75.95694718600933
1850.0 75.93851750830936
1900.0 75.95694718600933
1950.0 75.93573003812482
2000.0 75.83573003812481
2060.0 75.76854760516548
2120.0 75.66854760516546
2180.0 75.59443764495364
2240.0 75.47947670278509
2300.0 75.33161159867689
2360.0 75.17546484618451
2400.0 74.96628961696914
2500.0 74.78303327806127
2580.0 74.70546516956479
2650.0 74.66099948852616
2720.0 74.60140258354959
2800.0 74.4694282939047
2900.0 74.32737890783378
3000.0 74.23060126629261
3070.0 74.12890343371971
3150.0 74.07129959225898
3250.0 74.0481069379941
3350.0 73.98355081398412
3450.0 73.94062764766348
3550.0 73.96023132592151
3650.0 73.99332389494441
3750.0 74.13370117195268
3870.0 74.2847032971164
4000.0 74.42658243637698
4120.0 74.56894636034268
4250.0 74.50759958369534
4370.0 74.47904869477904
4500.0 74.33895538548381
4620.0 74.19650380914122
4750.0 74.09738612420443
4870.0 74.0793375338357
5000.0 74.16135496503568
5150.0 74.2188441901992
5300.0 74.26030832735091
5450.0 74.19567970243567
5600.0 73.99027233917022
5800.0 73.80498825046473
6000.0 73.54953626600293
6150.0 73.32937989393496
6300.0 73.07642312578959
6500.0 72.7344317816231
6700.0 72.35350975625539
6900.0 72.12690192438035
7100.0 71.9936162896246
7300.0 72.02634533232435
7500.0 72.07138538060487
7750.0 72.18689121041535
8000.0 72.24570240220177
8250.0 72.37143000461609
8500.0 72.49772448087526
8750.0 72.56919242112205
9000.0 72.52746071720418
9250.0 72.42390018535616
9500.0 72.26888915077969
9750.0 72.01257011613693
10000.0 71.64896721078355
10300.0 71.23678327394231
10600.0 70.86146028888706
10900.0 70.59212415069774
11200.0 70.41138004739973
11500.0 70.24158857989374
11800.0 69.94393538430558
12200.0 69.71257513103504
12500.0 69.60393809044776
12800.0 69.45732715122944
13200.0 69.17941200534459
13600.0 68.80305510533263
14000.0 68.3021229061582
14500.0 67.76886154865392
15000.0 67.23403463833765
15500.0 66.83217081284086
16000.0 66.60395590812614
16500.0 66.17615820662908
17000.0 65.55188736528366
17500.0 64.76544535370958
18000.0 63.704564191673484
18500.0 62.265833951729576
19000.0 60.58891398873581
19500.0 58.738714267142186
