Freq "Floor Bounce"
22.4 61.83160071863347
23.0 62.72397182522178
23.6 63.39438168392091
24.0 64.02397182522178
25.0 64.38753934628343
25.8 64.58221383135364
26.5 64.68221383135364
27.2 64.88221383135364
28.0 64.91786390639095
29.0 64.51786390639096
30.0 63.94867716225332
30.7 63.0784079085706
31.5 61.97612356058376
32.5 60.90869400305924
33.5 59.513280159768115
34.5 58.51328015976813
35.5 59.11022298995306
36.5 61.04177215189874
37.5 64.24484172294126
38.7 67.61786390639097
40.0 70.41786390639095
41.2 72.68753934628344
42.5 74.62397182522179
43.7 76.48753934628343
45.0 78.38753934628343
46.2 80.21786390639096
47.5 81.95163843862203
48.7 83.61786390639095
50.0 85.21786390639096
51.5 86.68753934628344
53.0 88.01786390639094
54.5 89.01786390639094
56.0 89.78753934628342
58.0 90.25163843862202
60.0 90.51786390639094
61.5 90.55163843862202
63.0 90.45163843862204
65.0 90.18221383135365
67.0 89.88221383135364
69.0 89.48221383135365
71.0 89.18221383135365
73.0 88.81328015976811
75.0 88.48221383135365
77.5 88.14709021956344
80.0 87.81328015976811
82.5 87.51328015976813
85.0 87.14709021956344
87.5 86.84709021956346
90.0 86.57840790857061
92.5 86.34709021956344
95.0 86.0784079085706
97.5 85.74405676585894
100.0 85.34405676585894
103.0 85.0784079085706
106.0 85.0784079085706
109.0 85.34405676585894
112.0 85.6784079085706
115.0 85.94405676585893
118.0 86.04405676585894
122.0 86.11022298995307
125.0 86.17612356058378
128.0 86.27536197877872
132.0 86.24253964635437
136.0 86.04253964635436
140.0 85.77612356058377
145.0 85.24405676585894
150.0 84.5784079085706
155.0 83.91626566220313
160.0 83.28753934628342
165.0 82.6576990741658
170.0 81.82833861501122
175.0 80.20845767979895
180.0 78.05931018429807
185.0 76.0581598550288
190.0 74.63215099237593
195.0 74.35932928778539
200.0 74.92128693473725
206.0 75.80049672932171
212.0 76.67168172575016
218.0 77.54674883866682
224.0 78.31818844922026
230.0 78.93683673225704
236.0 79.55769754069857
240.0 80.1239702797993
250.0 80.51055249186665
258.0 80.74211328129702
265.0 80.73626084122164
272.0 80.6898287994549
280.0 80.64665307111241
290.0 80.64665307111241
300.0 80.7275099634783
307.0 80.64442528441488
315.0 80.393541362941
325.0 79.92670556721374
335.0 79.15350061627254
345.0 78.31895111179676
355.0 77.59699184498254
365.0 77.12559549357469
375.0 76.9843548885289
387.0 77.02338423723295
400.0 77.24507599018803
412.0 77.50083478847382
425.0 77.77930408766778
437.0 78.30083478847382
450.0 78.81119201556604
462.0 79.16779667546564
475.0 79.31277827201356
487.0 79.35833034367045
500.0 79.32937138874092
515.0 79.15292530921508
530.0 78.87518354978003
545.0 78.52092661861064
560.0 78.35171822897047
580.0 78.4004967293217
600.0 78.49978019959215
615.0 78.57815303229017
630.0 78.22275705740552
650.0 77.54674883866682
670.0 76.93415113999674
690.0 76.38590267571449
710.0 75.94976480405462
730.0 76.00200870656938
750.0 76.24344899794602
775.0 76.65113740857933
800.0 77.38244021083872
825.0 78.04968290753322
850.0 78.62338423723295
875.0 79.00139249389984
900.0 79.20703326529642
925.0 79.27590931041142
950.0 79.17570410867083
975.0 78.76769692184652
1000.0 78.13043899488376
1030.0 77.71955804627581
1060.0 77.71627573538561
1090.0 78.05323113232423
1120.0 78.2947182601776
1150.0 78.09558134817144
1180.0 77.40123548903452
1220.0 76.66012178265048
1250.0 76.25031871900029
1280.0 76.06910819551258
1320.0 76.01228411020867
1360.0 75.85844161189759
1400.0 75.39035613761773
1450.0 74.41284790296355
1500.0 73.47585122460373
1550.0 72.92864668885306
1600.0 72.99029230648681
1650.0 73.91055249186664
1700.0 75.23649144309078
1750.0 76.6784079085706
1800.0 78.02035047404974
1850.0 79.10657337773534
1900.0 79.64610127439731
1950.0 79.89460970725314
2000.0 79.93772698457899
2060.0 79.82330338371057
2120.0 79.80212512170621
2180.0 80.11627573538559
2240.0 80.74899922095446
2300.0 81.5324799325649
2360.0 82.114611146386
2400.0 82.28751373079643
2500.0 81.80352201246406
2580.0 80.87093898974476
2650.0 79.9193677574908
2720.0 79.13969508851095
2800.0 78.65408987196275
2900.0 78.4113631849792
3000.0 78.04262183249206
3070.0 77.62956615032888
3150.0 77.36950519221503
3250.0 77.1726548254797
3350.0 77.12539727316152
3450.0 77.0443018901263
3550.0 76.62972713964176
3650.0 76.07913749583057
3750.0 75.71369018096432
3870.0 75.40136600801806
4000.0 75.16446275377749
4120.0 74.79748796604251
4250.0 74.05376691559609
4370.0 73.55213648651994
4500.0 73.88129234323381
4620.0 74.59978019959215
4750.0 75.6663520887777
4870.0 76.38374237747357
5000.0 76.41923695190512
5150.0 76.25292769695652
5300.0 76.28055300465034
5450.0 76.57823329177035
5600.0 77.12191044260308
5800.0 77.64462310951052
6000.0 78.06270509124056
6150.0 78.12401843466886
6300.0 78.16699075102306
6500.0 78.23508110244471
6700.0 78.60241231023863
6900.0 79.13724783918421
7100.0 79.65983377917513
7300.0 80.14253459317064
7500.0 80.25689222007625
7750.0 80.09120196941583
8000.0 79.62975256063928
8250.0 78.86327290545299
8500.0 78.16102124694518
8750.0 77.7238305563396
9000.0 77.67775887527023
9250.0 77.91126214210648
9500.0 78.30428537255395
9750.0 78.37982767276968
10000.0 78.09026712853853
10300.0 77.63469985467678
10600.0 76.79337111817378
10900.0 75.31098848000099
11200.0 72.79369171097717
11500.0 70.95146819869248
11800.0 71.27079418998636
12200.0 72.36236397895803
12500.0 74.3086189788072
12800.0 75.3514746953309
13200.0 73.81248948987513
13600.0 71.6288645994298
14000.0 71.18417225857077
14500.0 72.32182626972036
15000.0 73.78940657582802
15500.0 75.10779864637767
16000.0 75.75119771003446
16500.0 75.04352694457083
17000.0 72.78401011092635
17500.0 69.88949001273913
18000.0 66.81713952700224
18500.0 64.98138597209453
19000.0 63.80376727115487
19500.0 62.943526944570834
