Freq "On Axis"
22.4 37.79620253164559
23.0 39.19620253164557
23.6 40.396202531645585
24.0 41.396202531645585
25.0 42.99620253164558
25.8 44.29620253164559
26.5 45.396202531645585
27.2 46.596202531645574
28.0 47.99620253164558
29.0 49.19620253164557
30.0 50.19620253164557
30.7 51.49620253164558
31.5 52.49620253164558
32.5 53.49620253164558
33.5 54.79620253164559
34.5 55.896202531645585
35.5 56.99620253164558
36.5 58.19620253164557
37.5 59.19620253164557
38.7 60.29620253164558
40.0 61.396202531645585
41.2 62.396202531645585
42.5 63.596202531645574
43.7 64.59620253164557
45.0 65.59620253164557
46.2 66.59620253164557
47.5 67.49620253164558
48.7 68.29620253164558
50.0 69.09620253164557
51.5 69.79620253164559
53.0 70.59620253164557
54.5 71.1962025316456
56.0 71.89620253164557
58.0 72.59620253164557
60.0 73.29620253164558
61.5 73.99620253164558
63.0 74.69620253164558
65.0 75.19620253164557
67.0 75.79620253164558
69.0 76.1962025316456
71.0 76.59620253164557
73.0 76.89620253164557
75.0 77.19620253164558
77.5 77.39620253164556
80.0 77.59620253164557
82.5 77.99620253164558
85.0 78.29620253164558
87.5 78.49620253164558
90.0 78.59620253164557
92.5 78.79620253164556
95.0 78.99620253164558
97.5 79.09620253164557
100.0 79.29620253164558
103.0 79.39620253164557
106.0 79.49620253164558
109.0 79.59620253164557
112.0 79.79620253164559
115.0 79.79620253164559
118.0 79.99620253164558
122.0 80.09620253164557
125.0 80.19620253164557
128.0 80.29620253164558
132.0 80.49620253164558
136.0 80.69620253164558
140.0 80.79620253164558
145.0 80.79620253164558
150.0 80.79620253164558
155.0 80.79620253164558
160.0 80.79620253164558
165.0 80.79620253164558
170.0 80.69620253164558
175.0 80.49620253164558
180.0 80.39620253164557
185.0 80.29620253164558
190.0 80.19620253164557
195.0 80.29620253164558
200.0 80.39620253164557
206.0 80.49620253164558
212.0 80.69620253164558
218.0 80.79620253164558
224.0 80.79620253164558
230.0 80.59620253164557
236.0 80.39620253164557
240.0 80.19620253164557
250.0 79.99620253164558
258.0 79.79620253164559
265.0 79.69620253164558
272.0 79.59620253164557
280.0 79.39620253164557
290.0 79.39620253164557
300.0 79.49620253164558
307.0 79.89620253164556
315.0 80.49620253164558
325.0 81.09620253164557
335.0 81.49620253164558
345.0 81.59620253164557
355.0 81.59620253164557
365.0 81.69620253164558
375.0 81.99620253164558
387.0 82.29620253164559
400.0 82.29620253164559
412.0 82.19620253164558
425.0 81.99620253164558
437.0 81.89620253164557
450.0 82.09620253164557
462.0 82.19620253164558
475.0 82.19620253164558
487.0 82.29620253164559
500.0 82.59620253164557
515.0 82.79620253164558
530.0 82.89620253164557
545.0 82.89620253164557
560.0 82.99620253164558
580.0 82.99620253164558
600.0 82.89620253164557
615.0 82.89620253164557
630.0 83.09620253164557
650.0 83.09620253164557
670.0 82.89620253164557
690.0 82.69620253164557
710.0 82.59620253164557
730.0 82.39620253164556
750.0 82.29620253164559
775.0 82.29620253164559
800.0 82.49620253164558
825.0 82.49620253164558
850.0 82.59620253164557
875.0 82.39620253164556
900.0 82.49620253164558
925.0 82.59620253164557
950.0 82.79620253164558
975.0 83.19620253164558
1000.0 83.49620253164558
1030.0 83.99620253164558
1060.0 84.19620253164558
1090.0 84.29620253164558
1120.0 84.49620253164558
1150.0 84.29620253164558
1180.0 84.09620253164557
1220.0 83.59620253164557
1250.0 82.99620253164558
1280.0 82.69620253164557
1320.0 82.29620253164559
1360.0 81.99620253164558
1400.0 81.69620253164558
1450.0 81.69620253164558
1500.0 81.99620253164558
1550.0 82.29620253164559
1600.0 82.59620253164557
1650.0 82.69620253164557
1700.0 82.79620253164558
1750.0 82.99620253164558
1800.0 83.19620253164558
1850.0 83.49620253164558
1900.0 83.79620253164556
1950.0 83.59620253164557
2000.0 82.59620253164557
2060.0 81.59620253164557
2120.0 81.09620253164557
2180.0 80.89620253164559
2240.0 80.79620253164558
2300.0 80.99620253164558
2360.0 81.1962025316456
2400.0 81.59620253164557
2500.0 82.19620253164558
2580.0 82.59620253164557
2650.0 82.89620253164557
2720.0 83.19620253164558
2800.0 83.49620253164558
2900.0 83.39620253164559
3000.0 83.39620253164559
3070.0 83.49620253164558
3150.0 83.19620253164558
3250.0 83.19620253164558
3350.0 83.29620253164558
3450.0 83.6962025316456
3550.0 83.89620253164557
3650.0 84.19620253164558
3750.0 84.39620253164557
3870.0 83.79620253164556
4000.0 83.59620253164557
4120.0 83.19620253164558
4250.0 82.79620253164558
4370.0 82.89620253164557
4500.0 82.99620253164558
4620.0 82.69620253164557
4750.0 82.59620253164557
4870.0 82.59620253164557
5000.0 82.69620253164557
5150.0 82.89620253164557
5300.0 83.79620253164556
5450.0 84.69620253164558
5600.0 84.89620253164556
5800.0 84.69620253164558
6000.0 83.89620253164557
6150.0 83.99620253164558
6300.0 84.99620253164558
6500.0 85.59620253164557
6700.0 85.99620253164558
6900.0 85.99620253164558
7100.0 85.89620253164559
7300.0 86.09620253164557
7500.0 86.1962025316456
7750.0 86.1962025316456
8000.0 86.09620253164557
8250.0 85.59620253164557
8500.0 84.89620253164556
8750.0 84.79620253164559
9000.0 84.89620253164556
9250.0 85.19620253164557
9500.0 85.99620253164558
9750.0 86.79620253164558
10000.0 86.59620253164557
10300.0 86.1962025316456
10600.0 85.89620253164559
10900.0 85.89620253164559
11200.0 85.99620253164558
11500.0 85.79620253164558
11800.0 85.69620253164558
12200.0 85.39620253164557
12500.0 85.29620253164558
12800.0 85.49620253164558
13200.0 84.99620253164558
13600.0 84.79620253164559
14000.0 84.79620253164559
14500.0 83.6962025316456
15000.0 85.19620253164557
15500.0 87.49620253164558
16000.0 88.59620253164557
16500.0 87.19620253164558
17000.0 85.69620253164558
17500.0 86.59620253164557
18000.0 87.69620253164557
18500.0 87.79620253164558
19000.0 86.59620253164557
19500.0 83.6962025316456
