Freq,On Axis,Listening Window,Sound Power,Early Reflections,Early Reflections DI,Sound Power DI,DI offset
20.5078,89.37786969696971,89.41549444730056,90.05786410370871,89.76352272440786,49.6519717228927,49.35763034359185,50
21.9727,90.4657696969697,90.50292121613285,91.13220678159668,90.84299885402325,49.6599223621096,49.37071443453617,50
23.4375,91.30026969696969,91.33660410534553,91.9438431724229,91.66517124924071,49.671432856104815,49.39276093292263,50
24.9023,92.08976969696971,92.12538587397827,92.72574834940885,92.44947509458721,49.67591077939106,49.39963752456943,50
26.3672,92.71436969696971,92.74919082203483,93.34060773763186,93.06744925352614,49.6817415685087,49.40858308440298,50
27.832,93.29596969696972,93.3301853479232,93.91818445126994,93.64652469936333,49.68366064855988,49.41200089665327,50
29.2969,93.83976969696971,93.87336992259728,94.46092712455065,94.18830272311645,49.68506719948083,49.41244279804663,50
30.7617,94.30196969696972,94.3346637614482,94.91459371839349,94.64423667167303,49.69042708977517,49.42007004305471,50
32.2266,94.66926969696969,94.70162706572161,95.28914715226448,95.01453496429541,49.6870921014262,49.41247991345713,50
33.6914,95.05306969696971,95.0846908085978,95.67001283314919,95.39541838031859,49.68927242827921,49.41467797544861,50
35.1562,95.35586969696972,95.38642800564669,95.96492945493237,95.69232608910004,49.69410191654666,49.42149855071432,50
36.6211,95.6009696969697,95.63085608957334,96.20989193221784,95.93657323903325,49.69428285054009,49.4209641573555,50
38.0859,95.86266969696972,95.89110235132398,96.45351520712778,96.18740518334376,49.70369716798022,49.4375871441962,50
39.5508,96.06296969696972,96.09000088434536,96.63945941988173,96.378562468425,49.711438415920355,49.450541464463626,50
41.0156,96.21306969696971,96.23946174850714,96.7910853060955,96.52768623118943,49.711775517317704,49.44837644241164,50
42.4805,96.34886969696971,96.37360708070455,96.89924066785939,96.64739565399812,49.72621142670643,49.47436641284516,50
43.9453,96.52876969696972,96.55215843875963,97.06626685391741,96.81893207198236,49.733226366777274,49.48589158484222,50
45.4102,96.68746969696971,96.70933841905357,97.2112704352429,96.9686393511665,49.740699067887064,49.49806798381067,50
46.875,96.79256969696972,96.8128394854106,97.29983035410483,97.06349157268693,49.74934791272368,49.51300913130578,50
48.3398,96.8871696969697,96.9050175339799,97.35696879592892,97.13597602516829,49.76904150881161,49.54804873805098,50
51.2695,97.07606969696971,97.09047561684973,97.50779922914417,97.30113847370446,49.789337143145275,49.58267638770556,50
52.7344,97.10096969696971,97.11369467100882,97.51712353109549,97.31626341142275,49.79743125958606,49.59657113991332,50
54.1992,97.1361696969697,97.14724120166284,97.53150175693331,97.33981410676566,49.80742709489718,49.61573944472953,50
55.6641,97.18436969696971,97.19323281963362,97.55059838723129,97.37100334502142,49.8222294746122,49.64263443240233,50
58.5938,97.25336969696971,97.25705030772187,97.54461552325975,97.39515063509033,49.86189967263154,49.71243478446212,50
60.0586,97.24646969696971,97.24712805547983,97.49206441835472,97.36167914901664,49.885448906463196,49.75506363712512,50
62.9883,97.29456969696972,97.28990378948153,97.46604248810287,97.36643591604167,49.92346787343986,49.823861301378656,50
64.4531,97.29626969696973,97.28903467135464,97.43093393754476,97.34659623336712,49.94243843798752,49.85810073380988,50
67.3828,97.34126969696972,97.3273689376442,97.36713547171573,97.32912672125782,49.99824221638637,49.96023346592847,50
68.8477,97.36356969696972,97.34574108574026,97.32097466641864,97.31317564960173,50.032565436138526,50.02476641932162,50
71.7773,97.3922696969697,97.36669044053333,97.21505167531413,97.2695387947173,50.09715164581603,50.151638765219204,50
74.707,97.42216969696972,97.38915977103572,97.12659813682335,97.23517063581082,50.153989135224904,50.262561634212375,50
77.6367,97.41446969696973,97.37325627150977,96.98064703757352,97.15213642410335,50.22111984740643,50.392609233936255,50
79.1016,97.42486969696971,97.37930089616789,96.91354282164465,97.12152838676114,50.25777250940675,50.46575807452324,50
82.0312,97.46706969696972,97.41183307232176,96.78031055686442,97.0725420251864,50.33929104713536,50.631522515457334,50
84.9609,97.49776969696971,97.43171254822153,96.607737357494,96.99931474259722,50.432397805624305,50.82397519072752,50
87.8906,97.3989696969697,97.3237499260912,96.35606663297308,96.82174569397976,50.50200423211143,50.967683293118114,50
90.8203,97.4307696969697,97.34372081281303,96.1581840573765,96.74015709091238,50.603563721900656,51.18553675543653,50
95.2148,97.34506969696973,97.23971945375247,95.72738233986583,96.48871784267833,50.751001611074145,51.512337113886645,50
98.1445,97.2592696969697,97.141383159348,95.41025866793143,96.29541230025312,50.84597085909488,51.731124491416566,50
101.074,97.11056969696972,96.97882788456761,95.01714950802459,96.0336199812926,50.945207903275005,51.96167837654302,50
105.469,97.0720696969697,96.92329737575102,94.64884354348729,95.84757177651933,51.07572559923169,52.27445383226373,50
108.398,97.02676969696971,96.86646186627266,94.41057174478904,95.71506799587135,51.15139387040131,52.45589012148362,50
112.793,97.05436969696972,96.8780721374769,94.16465013860358,95.6235297536265,51.254542383850406,52.71342199887333,50
117.188,97.14906969696972,96.9592294648341,94.04674008507028,95.62758498310659,51.33164448172751,52.91248937976381,50
120.117,97.24376969696971,97.04607948328858,94.03911915783898,95.67583695791117,51.37024252537741,53.0069603254496,50
124.512,97.30116969696972,97.09110037680658,93.91696398967618,95.65213152913269,51.43896884767389,53.1741363871304,50
128.906,97.39396969696972,97.17236030469054,93.85433801581279,95.67614444095757,51.49621586373297,53.318022288877756,50
133.301,97.53336969696971,97.30130135408497,93.84113013074575,95.74823212281575,51.55306923126922,53.460171223339216,50
139.16,97.66386969696971,97.42053727578825,93.80882309949577,95.80929531477638,51.61124196101187,53.61171417629248,50
143.555,97.64896969696971,97.39737745730211,93.66655725082013,95.74058607873978,51.65679137856233,53.73082020648198,50
147.949,97.53386969696972,97.27305810755038,93.4410010563388,95.57845674512949,51.6946013624209,53.83205705121158,50
153.809,97.42166969696972,97.14886773002645,93.17889365077542,95.40103411036101,51.74783361966544,53.96997407925103,50
159.668,97.37736969696971,97.10089438304898,93.0831034634178,95.33286131300572,51.76803307004326,54.01779091963118,50
165.527,97.36566969696973,97.08498063793729,92.97808873117013,95.29105661712245,51.79392402081484,54.10689190676716,50
171.387,97.32266969696973,97.03778666304532,92.85246426187412,95.21425701568238,51.823529647362946,54.185322401171206,50
177.246,97.18756969696972,96.89923648454503,92.67467628945806,95.05944867894355,51.839787805601475,54.224560195086966,50
183.105,96.93786969696971,96.6393883829776,92.35749186663968,94.77791834903027,51.86147003394733,54.28189651633792,50
188.965,97.06836969696973,96.76159449634089,92.36682923585053,94.86073297850082,51.90086151784007,54.39476526049036,50
196.289,97.2798696969697,96.97728132692846,92.60986939186718,95.09264363740553,51.88463768952293,54.367411935061284,50
203.613,97.33586969696971,97.02564023910993,92.5763466141814,95.09910621401592,51.926534025094014,54.44929362492853,50
210.938,97.45366969696971,97.14672060627021,92.70322153708175,95.21426015911216,51.93246044715805,54.44349906918846,50
218.262,97.12946969696971,96.81076239729146,92.37428833874576,94.86660475030727,51.94415764698418,54.4364740585457,50
225.586,97.36296969696973,97.03604595306665,92.37633740240544,95.0160955639236,52.01995038914305,54.65970855066121,50
232.91,97.30466969696971,96.97663578630197,92.30131595833743,94.95128911922858,52.02534666707339,54.67531982796454,50
241.699,97.40756969696972,97.08085184274715,92.33501373922049,95.01298049361867,52.06787134912848,54.745838103526665,50
250.488,97.56876969696971,97.2358603703921,92.45510787903059,95.14900776871504,52.086852601677066,54.78075249136151,50
259.277,97.32086969696972,96.99421516068212,92.33182912790814,94.9352671447576,52.058948015924514,54.66238603277398,50
268.066,96.97236969696971,96.62833661691946,92.02810150714126,94.57220513329008,52.05613148362937,54.6002351097782,50
276.855,96.77266969696971,96.424979952736,92.0349384639312,94.43906972720693,51.98591022552907,54.3900414888048,50
287.109,96.86116969696971,96.46303638442107,91.83253335395706,94.31949414648902,52.14354223793205,54.63050303046401,50
297.363,97.15566969696972,96.75898900395262,91.91930198362955,94.5198303819282,52.23915862202442,54.83968702032307,50
307.617,97.60256969696971,97.2039528031223,92.01986403745548,94.7964751806141,52.40747762250821,55.18408876566683,50
319.336,97.82366969696973,97.4281566117336,91.92473450627814,94.91972251355438,52.50843409817922,55.503422105455456,50
329.59,98.02796969696969,97.67237735850283,92.16989595754761,95.20561325835938,52.46676410014345,55.50248140095522,50
341.309,97.58136969696972,97.23138196864478,91.84341195962914,94.82395191035532,52.407430058289464,55.387970009015646,50
353.027,97.3398696969697,97.00900791427232,91.73974734694345,94.62853996159816,52.38046795267415,55.26926056732887,50
366.211,97.2986696969697,96.96536380240248,91.45591997214204,94.42660860311962,52.53875519928286,55.50944383026044,50
379.395,97.20066969696971,96.90354012256442,91.37663453453379,94.37302190448273,52.530518218081696,55.52690558803063,50
392.578,97.15806969696972,96.85076333433298,91.24956167604776,94.2610411472258,52.589722187107185,55.60120165828522,50
405.762,97.0300696969697,96.69758554969073,90.76278212240868,93.95955840782985,52.73802714186088,55.93480342728205,50
420.41,97.62536969696971,97.31567651571478,91.44375781114047,94.56251484925014,52.75316166646465,55.87191870457431,50
435.059,97.5162696969697,97.1693512976272,91.12483204499316,94.29625948766825,52.87309180995895,56.044519252634046,50
451.172,97.36556969696971,97.058433000256,91.0851750774037,94.22212602310255,52.836306977153455,55.9732579228523,50
465.82,97.62496969696971,97.2980526721771,91.03366949484024,94.33004486950455,52.96800780267256,56.26438317733687,50
483.398,97.30786969696972,96.97275271057191,90.76614846273243,93.9113526849928,53.061400025579104,56.20660424783948,50
499.512,97.29786969696971,96.96705663002413,90.34267042224731,93.72602796890318,53.24102866112095,56.62438620777682,50
517.09,97.54496969696972,97.21772944815005,90.5783267922245,93.91098490617632,53.30674454197373,56.63940265592555,50
536.133,97.41786969696972,97.07271648437636,90.32361141101242,93.72675126294835,53.345965221428,56.749105073363936,50
555.176,97.5232696969697,97.1739307612079,90.31049245470452,93.73353445044914,53.44039631075876,56.86343830650338,50
574.219,97.26226969696971,96.94896866736782,90.18925873099964,93.50759518552503,53.44137348184279,56.75970993636818,50
594.727,96.98916969696971,96.70095922841804,89.84952819052364,93.19011202298921,53.51084720542883,56.8514310378944,50
615.234,97.40006969696971,97.0974641382122,90.25764701438654,93.54767498626224,53.549789151949966,56.83981712382567,50
637.207,97.60926969696972,97.25486251717042,90.32352132384726,93.53903167101608,53.71583084615435,56.93134119332316,50
659.18,97.39696969696972,97.05148724356131,90.23388111908129,93.330167964595,53.721319278966305,56.81760612448002,50
682.617,97.47376969696971,97.16597920983845,90.48277349532991,93.59804136696731,53.567937842871146,56.683205714508546,50
707.52,97.26966969696971,96.9731726760588,90.24483303868818,93.1679967283891,53.805175947669696,56.72833963737061,50
732.422,96.7732696969697,96.39735532255546,89.80127080956586,92.65433018725217,53.743025135303284,56.59608451298959,50
757.324,96.51666969696971,96.17021837650528,89.99417996568437,92.6773712213483,53.49284715515698,56.17603841082091,50
785.156,96.44916969696972,96.15887949067687,90.21157312119318,92.66017676749085,53.498702723186014,55.947306369483684,50
811.523,97.23716969696973,96.95319117439293,90.96220661564027,93.53164991822133,53.421541256171594,55.99098455875266,50
840.82,97.53216969696972,97.24303069668458,90.88684188036626,93.45986297131951,53.783167725365075,56.35618881631832,50
870.117,97.3622696969697,97.02703472872744,90.45758362027011,93.15179311135716,53.87524161737028,56.56945110845733,50
900.879,97.29946969696971,96.86933419113184,90.26579134554551,92.93115574049021,53.93817845064163,56.60354284558633,50
933.105,97.5350696969697,97.0976499414714,90.1540345933183,92.95722269123102,54.14042725024038,56.9436153481531,50
965.332,97.24956969696971,96.85294114237179,90.12476252890055,92.84377243243051,54.00916870994128,56.72817861347124,50
1000.49,97.31916969696971,96.91705974466761,89.7822694188213,92.71174496242904,54.205314782238574,57.13479032584631,50
1035.64,97.44226969696972,96.95643473539677,89.66912426426292,92.69469743665846,54.26173729873831,57.28731047113385,50
1072.27,96.59426969696973,96.21214917863786,89.13288572960455,92.16232899237106,54.0498201862668,57.079263449033306,50
1108.89,96.53806969696971,96.1331679442369,89.24565463281643,92.22312036198585,53.91004758225105,56.88751331142048,50
1148.44,96.88336969696971,96.53478945469826,89.55200528036063,92.54027707970269,53.994512374995566,56.982784174337624,50
1189.45,97.77226969696972,97.19040511520167,89.93272159085318,92.93560509482683,54.254800020374844,57.257683524348494,50
1230.47,97.83696969696972,97.36170309568222,90.11910501627621,93.19109687815907,54.170606217523144,57.24259807940601,50
1274.41,97.35316969696972,96.88413229144498,89.70682707644772,92.76223302967635,54.12189926176863,57.17730521499726,50
1319.82,96.99366969696972,96.41184856620984,89.50669244001008,92.53869523145154,53.8731533347583,56.905156126199756,50
1366.7,96.60576969696972,95.99177897950013,89.13028345309421,92.25927077723885,53.73250820226127,56.86149552640592,50
1413.57,97.02166969696971,96.28960268172615,89.10581283067187,92.18954613644654,54.100056545279614,57.183789851054286,50
1463.38,97.92326969696971,97.0272982443608,89.63526051255126,92.78491161430888,54.24238663005191,57.39203773180954,50
1516.11,98.2685696969697,97.40150229751141,90.06711120542654,93.23915132596736,54.16235097154406,57.33439109208487,50
1568.85,97.87586969696972,97.19272611851476,89.84998723715282,92.97201222433631,54.220713894178445,57.34273888136194,50
1624.51,96.93756969696972,96.38578904107196,89.34003715074418,92.42527537179032,53.96051366928164,57.04575189032778,50
1681.64,96.64836969696971,95.81869202863656,88.8892746008352,91.9196183474295,53.89907368120706,56.92941742780137,50
1741.7,97.05166969696971,96.1595749150165,89.00645222472224,91.91131811268531,54.2482568023312,57.15312269029427,50
1803.22,97.4195696969697,96.53962456870163,89.19037703126195,92.23447229299514,54.30515227570649,57.34924753743968,50
1866.21,96.8818696969697,96.19216103583756,89.1055880679781,92.14428631730026,54.0478747185373,57.08657296785945,50
1932.13,96.23526969696971,95.62256449686164,89.02057708753172,92.00144720509871,53.62111729176293,56.60198740932992,50
1999.51,96.73266969696971,96.08674137859755,89.23119152224896,92.4243450753303,53.66239630326726,56.85554985634859,50
2069.82,97.26366969696971,96.60622970069294,89.66936467899122,92.91040719476705,53.69582250592589,56.93686502170172,50
2143.07,96.8032696969697,96.26222574064738,89.61508677798749,92.89998835152765,53.36223738911973,56.647138962659895,50
2219.24,96.1127696969697,95.72676291547286,89.39704775735206,92.67713460433869,53.04962831113417,56.329715158120806,50
2296.88,96.7363696969697,96.41437187513493,89.59152804339298,92.95085597927351,53.46351589586142,56.82284383174195,50
2378.91,96.42896969696972,96.39921879074888,89.50528198723171,92.85506773261854,53.54415105813034,56.893936803517164,50
2462.4,95.43266969696971,95.26113990504103,88.75978464764029,92.2781455936324,52.98299431140863,56.501355257400746,50
2548.83,96.21816969696972,95.69568925625457,88.76575287106985,92.30913556085633,53.386553695398234,56.92993638518472,50
2639.65,97.1448696969697,96.45483232104458,89.1740402733492,92.72630436998875,53.728527951055824,57.28079204769537,50
2731.93,96.53676969696971,95.81693999612045,88.73544224202458,92.38810335231942,53.428836643801034,57.08149775409588,50
2828.61,96.38696969696973,95.74477136836062,88.49209109063526,92.3409543073122,53.403817061048414,57.25268027772536,50
2928.22,96.94176969696971,96.2476083924215,88.6326392563982,92.50196570392521,53.74564268849629,57.61496913602329,50
3030.76,96.90006969696971,96.16163987977765,88.58450872976947,92.45329431860928,53.70834556116837,57.577131150008185,50
3137.7,96.34366969696971,95.68472885081954,88.36092558589162,92.18168828372241,53.50304056709713,57.32380326492792,50
3249.02,96.8473696969697,95.99443127728601,88.46333728307422,92.24874147681616,53.74568980046985,57.53109399421179,50
3363.28,96.96896969696972,96.08602393766834,88.5323070155559,92.33552358204892,53.75050035561942,57.55371692211244,50
3481.93,96.82046969696971,95.96098443302746,88.35897623118979,92.13284127160834,53.82814316141912,57.60200820183768,50
3604.98,96.56646969696972,95.83934109205553,88.0020071242473,91.92519075129012,53.91415034076542,57.837333967808235,50
3732.42,97.56656969696971,96.45026926873138,88.25911390317106,92.25577615935187,54.19449310937951,58.19115536556032,50
3864.26,97.0940696969697,95.9939390169299,87.73120047560901,91.88599881891399,54.10794019801591,58.262738541320886,50
4000.49,97.70886969696971,96.28420074530683,87.86093123985329,92.14631961641474,54.13788112889209,58.42326950545355,50
4141.11,97.33176969696972,95.90801264271938,87.6710955454477,91.77205195093708,54.1359606917823,58.236917097271686,50
4287.6,97.15326969696972,95.77339016514323,87.61671132963234,91.72903111280394,54.04435905233929,58.15667883551089,50
4438.48,96.96986969696972,95.6409112724079,87.67433050861139,91.69526782697345,53.945643445434456,57.966580763796514,50
4595.21,97.15636969696972,96.09678372586284,87.93054603626676,91.95019262067783,54.14659110518501,58.16623768959607,50
4756.35,97.84806969696972,96.1768948877844,87.96711315505867,92.10077656985275,54.076118317931645,58.20978173272573,50
4924.8,97.5623696969697,96.0853556581213,87.82300277713647,92.10482021380191,53.980535444319386,58.262352880984835,50
5097.66,97.95696969696971,96.14730914295197,87.74781861634288,92.19898115947285,53.94832798347912,58.399490526609085,50
5277.83,97.81926969696971,96.118520798297,87.84444972856373,92.28931111055655,53.829209687740445,58.27407106973327,50
5463.87,98.13296969696971,96.39830144311888,87.87710267486428,92.46652756577421,53.93177387734467,58.52119876825461,50
5657.23,97.31236969696972,95.79798174532495,87.5868356509449,92.00228174517537,53.79570000014958,58.21114609438004,50
5856.45,97.01236969696971,95.73523306638931,87.63288194414267,91.92198604814823,53.813247018241086,58.102351122246645,50
6062.99,96.93446969696971,95.81868483201002,87.66343932346552,91.993791072978,53.82489375903202,58.155245508544496,50
6276.86,96.99286969696969,95.84587610578859,87.72510076380844,92.12738695710819,53.718489148680405,58.12077534198015,50
6498.05,96.32106969696972,95.5113440235963,87.55433740650696,91.95446824918947,53.55687577440682,57.957006617089334,50
6726.56,96.21736969696971,95.5792892573215,87.72051770701431,92.17433808003541,53.404951177286094,57.858771550307196,50
6963.87,95.8096696969697,95.57847041516133,87.76698084527568,92.24213611881804,53.336334296343296,57.81148956988565,50
7209.96,95.86846969696971,95.5800115765631,87.63025347759465,92.0602909698088,53.51972060675429,57.949758098968445,50
7464.84,95.82946969696971,95.78436157980998,87.74244066593029,92.11191155183623,53.67245002797375,58.04192091387969,50
7727.05,95.79206969696972,95.96650144402847,87.78600781974356,92.09117453537947,53.875326908649,58.18049362428491,50
7999.51,95.67006969696972,95.8890392999721,87.58629904181642,91.96809731165666,53.920941988315434,58.30274025815568,50
