Freq "Ceiling Bounce"
20.5078 59.11048072501167
21.9727 60.61736325593087
23.4375 64.32129255159222
24.9023 67.62756681086645
26.3672 71.6260977626658
27.832 74.66218489052132
29.2969 77.22279972977692
30.7617 79.50121396993335
32.2266 81.45638803958506
33.6914 82.71854347125449
35.1562 83.53681507156311
36.6211 83.98608352845162
38.0859 84.11810169576117
39.5508 84.18823995303644
41.0156 84.31112159077118
42.4805 84.35886618382449
43.9453 84.42348156814005
45.4102 84.38224899732184
46.875 84.41043314256079
48.3398 84.45964137690731
51.2695 84.50687582401802
52.7344 84.50270507820245
54.1992 84.48035017468322
55.6641 84.427103842432
58.5938 84.36534611957524
60.0586 84.30635600678075
62.9883 84.10604490777746
64.4531 84.00697084019785
67.3828 83.84957951350465
68.8477 83.7910342586729
71.7773 83.73574716668593
74.707 83.7374392502583
77.6367 83.84557709192615
79.1016 83.90857885640597
82.0312 84.061738813761
84.9609 84.23100745218684
87.8906 84.4222350328448
90.8203 84.52070006063289
95.2148 84.67540062399335
98.1445 84.76026844138012
101.074 84.76794323865995
105.469 84.84993533073846
108.398 84.96906185715865
112.793 85.12790286399886
117.188 85.1756868250507
120.117 85.17337380571941
124.512 85.22716429427742
128.906 85.26503059091708
133.301 85.38089430819063
139.16 85.40204617664078
143.555 85.28319135847703
147.949 85.24218899470685
153.809 85.37914251651263
159.668 85.45594329710444
165.527 85.48851780480203
171.387 85.4062379073546
177.246 85.24154935337798
183.105 85.04030926717174
188.965 84.94158868522507
196.289 84.83445234487057
203.613 84.54716182128858
210.938 84.59621890355895
218.262 84.61296620284867
225.586 84.89003164512435
232.91 84.9972295777678
241.699 84.8987214237236
250.488 85.08930018872793
259.277 85.10922267797629
268.066 84.7521795733416
276.855 84.67167900067786
287.109 84.6690148189111
297.363 85.33364076378714
307.617 85.03738718679038
319.336 84.87690900114139
329.59 84.96979997678098
341.309 84.79014017511032
353.027 84.8508229421228
366.211 84.32572938675746
379.395 85.0255432907448
392.578 84.65225713987432
405.762 84.81618406107161
420.41 84.82185277397114
435.059 84.57671154942322
451.172 85.08066083253688
465.82 84.44253521140483
483.398 84.34230154301079
499.512 84.6612901470685
517.09 85.26713839451114
536.133 84.13308951871342
555.176 84.1461883524466
574.219 84.2794185269862
594.727 83.65390667071462
615.234 83.79011999547339
637.207 83.37650845569853
659.18 83.25676827105642
682.617 82.50956956167293
707.52 82.60540812737507
732.422 82.55856648453583
757.324 82.3689026924253
785.156 82.65608821810018
811.523 82.76558912679185
840.82 82.49741674731935
870.117 83.04326393654964
900.879 83.12624115212907
933.105 83.47469341230506
965.332 83.50359699127584
1000.49 83.08402112077259
1035.64 82.80089386655557
1072.27 82.10061468095468
1108.89 81.15528071961508
1148.44 80.92786128987747
1189.45 80.80727139605446
1230.47 80.96197444563552
1274.41 81.4580203326486
1319.82 81.94305299634317
1366.7 81.97801395959965
1413.57 81.89920154565927
1463.38 80.97542209461535
1516.11 79.88248935538175
1568.85 79.55925672309002
1624.51 79.31778715089672
1681.64 79.66720732047314
1741.7 81.77704090613302
1803.22 81.73280124091247
1866.21 81.18915871594193
1932.13 80.52535750223363
1999.51 80.14799711646393
2069.82 81.15660507679021
2143.07 81.38869501012114
2219.24 80.99176084009854
2296.88 79.94192436940875
2378.91 79.43640391239596
2462.4 80.31529830114452
2548.83 81.02793014244214
2639.65 80.18057558796559
2731.93 78.8139837351378
2828.61 78.94003335548062
2928.22 79.60237612658597
3030.76 80.18285022692024
3137.7 80.04742586789426
3249.02 79.68498376479913
3363.28 79.64049081289089
3481.93 80.64172584753346
3604.98 80.916072897756
3732.42 81.38153873872294
3864.26 80.79926205698311
4000.49 80.02261130407955
4141.11 81.2499141354841
4287.6 80.47660763105984
4438.48 80.39907350284588
4595.21 80.12373985280612
4756.35 79.69937615160141
4924.8 81.04794512042628
5097.66 79.31345125316116
5277.83 79.62605316719231
5463.87 80.04508429361312
5657.23 79.57886393598565
5856.45 79.63504178163953
6062.99 80.78882958929394
6276.86 79.5637030885414
6498.05 79.77272836544073
6726.56 79.34265615259649
6963.87 78.79163932183569
7209.96 79.42718236887693
7464.84 79.482098074383
7727.05 79.29913995476049
7999.51 80.12580822891942
8282.23 80.25590472403033
8573.73 80.54865263961356
8876.95 79.91407735695479
9188.96 80.20659547929468
9514.16 79.92763624100678
9849.61 79.88884816445902
10196.8 80.07113902518573
10555.7 80.47981084824275
10927.7 80.5365229155708
11313.0 80.7212484157648
11712.9 80.78857270498443
12126.0 80.69687639696792
12553.7 80.489341047767
12996.1 79.89195363423393
13454.6 79.58568680686817
13929.2 79.46113147777947
14419.9 79.6089216839301
14928.2 80.12024899751951
15455.6 80.52135088623736
16000.5 80.03937956013155
16564.5 79.25929972316275
17148.9 78.38843648524609
17752.4 78.03326988430018
18379.4 77.65321525317043
19026.9 77.273420708544
19697.8 76.72786452544355
19999.5 76.27404532650695
