Freq "Rear Wall Bounce"
20.5078 63.29106934720426
21.9727 65.46313943947781
23.4375 69.20027786582014
24.9023 72.2099281786859
26.3672 75.24486828854329
27.832 77.96139380054517
29.2969 80.21464370860024
30.7617 82.22787458099161
32.2266 83.94520625947632
33.6914 84.9855213432701
35.1562 85.57141697077031
36.6211 85.79878065551814
38.0859 85.7785791692772
39.5508 85.71991894476392
41.0156 85.68932584878704
42.4805 85.6133588767256
43.9453 85.55782193952929
45.4102 85.42502818638012
46.875 85.35767272699397
48.3398 85.3271560069282
51.2695 85.22568391837106
52.7344 85.14270725884971
54.1992 85.05576806710276
55.6641 84.94084536300144
58.5938 84.80720931223256
60.0586 84.70822301326766
62.9883 84.43281960152336
64.4531 84.32782897916387
67.3828 84.10777774625033
68.8477 84.0192547023069
71.7773 83.8917380547618
74.707 83.8440010891519
77.6367 83.8796106638621
79.1016 83.91420772745118
82.0312 84.0115891195989
84.9609 84.17720083738617
87.8906 84.24771970812428
90.8203 84.28562247290067
95.2148 84.4668768169709
98.1445 84.51677592477687
101.074 84.44767134608061
105.469 84.34254745236915
108.398 84.37999064438176
112.793 84.508979627037
117.188 84.42133776578139
120.117 84.43374213579463
124.512 84.52385030922109
128.906 84.51279187187569
133.301 84.46524513961397
139.16 84.36108062106355
143.555 84.29933309570006
147.949 84.15410678222499
153.809 84.03592545939692
159.668 84.15766246687798
165.527 84.25045626024652
171.387 83.94449188561128
177.246 83.62649929786303
183.105 83.27790410630672
188.965 82.93323802124549
196.289 82.71463125899183
203.613 82.07917281607239
210.938 81.92544516585018
218.262 82.1699227486623
225.586 82.29833814097698
232.91 81.75687541867752
241.699 81.43413183591686
250.488 81.5972453248143
259.277 81.3244849377968
268.066 81.06079939234147
276.855 80.63912237861754
287.109 80.47570737176143
297.363 80.04027688014557
307.617 79.48151615475533
319.336 79.3167420832911
329.59 78.5312278782113
341.309 79.08361777406684
353.027 78.78780494593413
366.211 78.67140491466697
379.395 78.84576941358917
392.578 79.17368271564705
405.762 78.82483379576051
420.41 78.62882359823497
435.059 79.15209155876882
451.172 79.30251877224609
465.82 78.5279178096764
483.398 79.2867829995323
499.512 79.46062327236804
517.09 79.1844280661657
536.133 78.65520147715706
555.176 78.61650060661906
574.219 78.7812328232239
594.727 79.0735544257208
615.234 77.37534255634249
637.207 78.50284138210729
659.18 78.01542283987158
682.617 78.06097515533172
707.52 77.54531274165807
732.422 76.99239072725162
757.324 76.40578806558057
785.156 76.70009931159292
811.523 75.14789936141453
840.82 74.38666794112028
870.117 75.08189181726902
900.879 74.62885693527859
933.105 74.05695454357969
965.332 71.97504957247969
1000.49 72.20876140596421
1035.64 71.74408301051658
1072.27 72.3091057123018
1108.89 72.2956438533461
1148.44 71.75732072360981
1189.45 72.29330529081184
1230.47 72.49197413348861
1274.41 71.55828438772284
1319.82 73.09204187430468
1366.7 71.78023855504695
1413.57 71.24200625825684
1463.38 71.90957115258819
1516.11 72.98000478932218
1568.85 71.54709370674236
1624.51 70.05250737851766
1681.64 70.7872337976163
1741.7 71.2726568968897
1803.22 69.8513451721382
1866.21 70.32598320638907
1932.13 69.73576794468285
1999.51 69.81904198061105
2069.82 69.14739148517025
2143.07 69.28575205905874
2219.24 68.45789516916913
2296.88 68.07239631645368
2378.91 67.27406043549591
2462.4 66.3342311130988
2548.83 65.6885061744202
2639.65 65.78474894638781
2731.93 64.99982460185491
2828.61 65.36748832920905
2928.22 65.8854171197798
3030.76 65.68285614300504
3137.7 65.69688225685124
3249.02 65.35517612091753
3363.28 64.29014181024486
3481.93 62.94025501042937
3604.98 63.48265741960378
3732.42 64.71390346003948
3864.26 64.46504465606759
4000.49 63.92511663318312
4141.11 64.00210366319946
4287.6 63.712586969156916
4438.48 61.37350101360657
4595.21 60.02066624004753
4756.35 60.530869084633636
4924.8 60.87767219822284
5097.66 61.0069055233523
5277.83 59.258744587238695
5463.87 58.15371088930668
5657.23 57.59733652263846
5856.45 58.30091715344723
6062.99 60.54054341098636
6276.86 59.542201206879454
6498.05 59.38418136458954
6726.56 56.59729815338004
6963.87 56.44225238353057
7209.96 54.5564720507049
7464.84 55.290804756758675
7727.05 55.1795563377798
7999.51 56.20179980234717
8282.23 57.704828057786514
8573.73 55.9664256316383
8876.95 56.0280566382183
9188.96 54.68911535505431
9514.16 52.3537374130821
9849.61 51.81112019968769
10196.8 54.59182618722765
10555.7 56.06822775029731
10927.7 54.97370477775756
11313.0 54.322097933923246
11712.9 51.92307361901818
12126.0 53.332979641134
12553.7 55.30534019699034
12996.1 54.81173451555962
13454.6 53.47199116631721
13929.2 53.788930585991196
14419.9 56.30876303907753
14928.2 57.35269353440235
15455.6 58.180305221937815
16000.5 58.81246961486737
16564.5 58.03089890512153
17148.9 57.37789090528106
17752.4 56.919052051304035
18379.4 56.4403438577168
19026.9 56.06081501077209
19697.8 56.211024212646564
19999.5 55.88708289469368
