Freq "Ceiling Bounce"
22.4 29.22592306115422
23.0 31.491817674981235
23.6 33.763545915765974
24.0 36.35899534255688
25.0 38.791817674981274
25.8 40.85822784810128
26.5 42.82514969926177
27.2 45.69181767498125
28.0 48.15899534255689
29.0 50.19181767498122
30.0 52.35822784810128
30.7 55.125149699261755
31.5 57.391817674981255
32.5 59.42514969926178
33.5 62.09181767498124
34.5 64.39181767498125
35.5 66.32514969926177
36.5 68.79181767498125
37.5 70.82514969926179
38.7 72.72514969926178
40.0 74.72514969926178
41.2 76.42514969926177
42.5 77.82514969926177
43.7 79.12514969926178
45.0 80.22514969926178
46.2 81.09181767498126
47.5 81.79181767498125
48.7 82.12514969926177
50.0 82.45899534255688
51.5 82.49181767498123
53.0 82.39181767498125
54.5 82.19181767498125
56.0 81.92514969926178
58.0 81.52514969926176
60.0 80.9589953425569
61.5 80.3589953425569
63.0 79.59181767498124
65.0 78.92514969926177
67.0 78.72514969926178
69.0 79.09181767498126
71.0 79.8933584398811
73.0 80.92824273067605
75.0 81.5933584398811
77.5 81.92592306115422
80.0 82.09181767498124
82.5 82.0589953425569
85.0 81.89181767498125
87.5 81.62514969926178
90.0 81.19181767498125
92.5 80.59181767498124
95.0 79.99181767498123
97.5 79.39181767498125
100.0 78.72514969926178
103.0 78.09181767498124
106.0 77.42514969926178
109.0 76.82514969926177
112.0 76.32514969926177
115.0 75.79181767498126
118.0 75.39181767498124
122.0 74.99181767498123
125.0 74.85899534255688
128.0 74.89181767498125
132.0 75.05899534255688
136.0 75.25899534255689
140.0 75.52514969926177
145.0 75.65899534255689
150.0 75.8925792567863
155.0 76.1266786861556
160.0 76.32667868615559
165.0 76.55899534255688
170.0 76.7589953425569
175.0 76.8266786861556
180.0 76.9266786861556
185.0 76.95899534255689
190.0 76.8589953425569
195.0 76.6933584398811
200.0 76.3612974191438
206.0 76.06513285845585
212.0 75.80721299689678
218.0 75.5858150409372
224.0 75.45720229941053
230.0 75.35720229941052
236.0 75.22905755094426
240.0 75.02905755094424
250.0 74.82905755094424
258.0 74.69575562110154
265.0 74.62905755094425
272.0 74.55720229941052
280.0 74.59080002856686
290.0 74.72905755094425
300.0 74.92905755094425
307.0 75.41344754118506
315.0 76.81083738012346
325.0 78.12973585597065
335.0 78.22667868615561
345.0 77.3612974191438
355.0 76.53431960259348
365.0 76.17049963125746
375.0 76.3343196025935
387.0 76.17049963125746
400.0 75.60721299689678
412.0 75.28581504093721
425.0 75.36786041491749
437.0 75.9072114396097
450.0 76.35329242845957
462.0 76.95329242845958
475.0 77.31344754118507
487.0 77.84042597600182
500.0 78.38002523499023
515.0 78.74042597600183
530.0 78.50137610919562
545.0 77.38002523499023
560.0 76.24361495276027
580.0 75.9292339682161
600.0 75.75253529354794
615.0 75.14582708494346
630.0 74.80954544390953
650.0 75.2714635921326
670.0 75.45307449265587
690.0 74.73448219952765
710.0 74.38076118692788
730.0 74.53085805847249
750.0 73.5635227993966
775.0 72.80701485543045
800.0 73.5172837719144
825.0 73.63392366328368
850.0 73.49955771017753
875.0 73.52541246947253
900.0 73.1112258468828
925.0 72.87602787420664
950.0 72.01351773101167
975.0 71.24628554511277
1000.0 70.0970170890411
1030.0 69.19786174466986
1060.0 68.4897083955401
1090.0 67.38611694119129
1120.0 67.03673904229859
1150.0 66.96552937791823
1180.0 66.1851021647438
1220.0 65.76072236680433
1250.0 64.31443018754264
1280.0 62.98830043241635
1320.0 62.57771202157625
1360.0 62.2197540972532
1400.0 61.460100342808076
1450.0 61.9506043554677
1500.0 62.25909881034025
1550.0 63.57378987773683
1600.0 64.0577848332895
1650.0 65.18814353987672
1700.0 65.65775847591598
1750.0 67.12666297080185
1800.0 66.78096610167194
1850.0 67.238108373516
1900.0 66.54093415136919
1950.0 67.27451295963454
2000.0 65.69945837846966
2060.0 63.96991316279829
2120.0 63.18035435183839
2180.0 62.31185925205956
2240.0 64.79368876659177
2300.0 66.46022687972284
2360.0 66.20850394587087
2400.0 66.7955931920331
2500.0 65.62796793607355
2580.0 66.8501557276318
2650.0 68.35946357436767
2720.0 67.7277147997671
2800.0 67.70134867812885
2900.0 67.96510397944903
3000.0 67.23014587716688
3070.0 65.690348156732
3150.0 65.75418069618723
3250.0 65.59131520199637
3350.0 64.21096808172067
3450.0 65.02635524542848
3550.0 64.45566615432003
3650.0 64.48369203969452
3750.0 63.465800943049516
3870.0 63.894750433250664
4000.0 63.03884495384821
4120.0 62.19862675446629
4250.0 62.16817537464462
4370.0 60.89911616897038
4500.0 60.14419452999766
4620.0 61.44091371479307
4750.0 63.46656489521908
4870.0 64.38787280165691
5000.0 64.43643876456333
5150.0 64.13972766960296
5300.0 63.616547644342276
5450.0 63.53567671465092
5600.0 62.0888869908449
5800.0 62.814214761218324
6000.0 63.61395346196508
6150.0 64.10235038649722
6300.0 64.38541459739604
6500.0 62.44525055934872
6700.0 62.63167919247513
6900.0 61.286869467818676
7100.0 59.89759971682794
7300.0 58.04989739950146
7500.0 59.53271037939069
7750.0 60.16268040001759
8000.0 61.458784481331534
8250.0 62.95903805452973
8500.0 66.29814043195142
8750.0 68.39008710693548
9000.0 70.51614159014277
9250.0 69.65640471359558
9500.0 68.32027748290679
9750.0 67.03426439819393
10000.0 66.10151376713772
10300.0 68.17391405842854
10600.0 68.16159282695338
10900.0 66.61991567929022
11200.0 63.26177552173138
11500.0 59.50609614034427
11800.0 57.40691798347197
12200.0 59.79354956530767
12500.0 58.73091930132722
12800.0 57.65998264077338
13200.0 60.42718867847941
13600.0 66.75699379725685
14000.0 68.28904168731046
14500.0 60.13272135840566
15000.0 66.47251308032205
15500.0 65.20395045132334
16000.0 68.55530859338819
16500.0 65.19647639971275
17000.0 60.54024236867684
17500.0 60.37170097534619
18000.0 62.07644831174507
18500.0 63.609845971241754
19000.0 58.02254863516967
19500.0 54.97726435537987
