Freq "Front Wall Bounce"
22.4 28.63320147987065
23.0 30.605025371307562
23.6 32.65289215735888
24.0 35.84738241763506
25.0 38.50169293508026
25.8 40.67298316339338
26.5 42.65888570879551
27.2 45.529890602020174
28.0 47.987035004846575
29.0 49.98703500484655
30.0 52.187035004846535
30.7 54.98703500484655
31.5 57.201367243439094
32.5 59.20136724343908
33.5 61.91565233945943
34.5 64.17265531149874
35.5 66.15822784810128
36.5 68.57265531149872
37.5 70.67265531149873
38.7 72.54408233720366
40.0 74.48736177304414
41.2 76.12989060202018
42.5 77.67298316339337
43.7 78.97298316339337
45.0 80.04441235312078
46.2 80.94441235312077
47.5 81.61630912007375
48.7 82.00202618777153
50.0 82.27364642814665
51.5 82.34540993544087
53.0 82.28769612720069
54.5 82.11598452274659
56.0 81.84540993544087
58.0 81.54540993544087
60.0 81.11763767598111
61.5 80.64773470507441
63.0 80.1632295023348
65.0 79.92199269464547
67.0 80.22468722619277
69.0 80.99533765682055
71.0 81.9076214873394
73.0 82.70432826435844
75.0 83.16118778538242
77.5 83.33186944179177
80.0 83.3176376759811
82.5 83.25955112987822
85.0 83.10368466181417
87.5 82.79000581028468
90.0 82.3189814695388
92.5 81.70368466181418
95.0 81.17531577318631
97.5 80.61865707189253
100.0 80.00302596908897
103.0 79.3473972600544
106.0 78.74739726005438
109.0 78.16153199550064
112.0 77.59167719222503
115.0 77.04739726005441
118.0 76.5176376759811
122.0 76.01763767598112
125.0 75.63220038702498
128.0 75.38802284566032
132.0 75.33022169807545
136.0 75.30170052112206
140.0 75.34474234396222
145.0 75.4159769616144
150.0 75.55953598417906
155.0 75.75953598417908
160.0 75.88800779892958
165.0 76.15953598417906
170.0 76.3460321917048
175.0 76.47525540158746
180.0 76.66050015907075
185.0 76.77462222548208
190.0 76.76150170983584
195.0 76.66283200136745
200.0 76.53611145967444
206.0 76.48307366785816
212.0 76.45675690325444
218.0 76.43235988755818
224.0 76.37615966897357
230.0 76.3017986716158
236.0 76.17102905821338
240.0 76.01575773667876
250.0 75.85625942516485
258.0 75.70044954999932
265.0 75.58261395903128
272.0 75.49631607557177
280.0 75.44988663816513
290.0 75.64988663816514
300.0 76.00654781113644
307.0 76.60461633921201
315.0 77.22989060202018
325.0 77.64540993544087
335.0 77.59261851944545
345.0 77.40096475816887
355.0 77.08508458622426
365.0 77.04486019794811
375.0 77.12035549804978
387.0 77.04228590712022
400.0 76.84004301674214
412.0 76.73090431737333
425.0 76.99653847596046
437.0 77.51390622749659
450.0 78.00332878282953
462.0 78.40233683283418
475.0 78.68996068256789
487.0 79.1023368328342
500.0 79.66083658757458
515.0 80.12212815417797
530.0 80.11193310230885
545.0 79.53361173716519
560.0 79.02789842368642
580.0 79.13246406644274
600.0 79.13182462031136
615.0 78.68742388792738
630.0 78.40930288449908
650.0 78.72135231824697
670.0 78.57005661670169
690.0 77.89145283407575
710.0 77.78057653565897
730.0 78.08334910084461
750.0 77.69705428791995
775.0 77.3685544921351
800.0 77.73014637010954
825.0 77.7912395829202
850.0 78.05382217483387
875.0 78.05551738429942
900.0 78.0149241234126
925.0 78.8825455560445
950.0 79.15349077740746
975.0 78.6991601841956
1000.0 78.15340290297183
1030.0 77.79147938476402
1060.0 77.31508871271734
1090.0 76.95398122635787
1120.0 76.8031200362588
1150.0 77.04281694044482
1180.0 76.61494315471826
1220.0 76.5092257994926
1250.0 75.92353642685978
1280.0 75.62856828319423
1320.0 75.72037843530313
1360.0 75.74297599465473
1400.0 75.95315703192524
1450.0 76.39683546338482
1500.0 76.68734919699638
1550.0 77.05356768642054
1600.0 77.11349797323422
1650.0 77.11830587205168
1700.0 76.88316987788723
1750.0 76.56250394535498
1800.0 76.18673821320701
1850.0 76.25616707370068
1900.0 76.28756548176837
1950.0 76.84366687883326
2000.0 77.33809631415815
2060.0 77.4500105808086
2120.0 77.82541853208507
2180.0 77.6395849701597
2240.0 77.82177250065959
2300.0 78.33319086059197
2360.0 78.32282044695744
2400.0 78.77909112746066
2500.0 79.37341404330951
2580.0 79.92931734502106
2650.0 79.9662126168481
2720.0 80.18075134194858
2800.0 80.27229002719181
2900.0 80.11607463892766
3000.0 79.56561825753879
3070.0 79.13948877941411
3150.0 78.73989928802935
3250.0 78.28681459007534
3350.0 77.47283016453875
3450.0 77.19487439920539
3550.0 76.81364691560341
3650.0 76.46236448651968
3750.0 75.95206012203575
3870.0 75.57089512847945
4000.0 75.38912925619312
4120.0 75.35863027956395
4250.0 75.38503887952021
4370.0 75.73836666164925
4500.0 75.53560310353328
4620.0 75.56614950152809
4750.0 75.77882393845569
4870.0 75.83174335791449
5000.0 75.40827113457404
5150.0 74.92879095288052
5300.0 74.57630624244942
5450.0 74.28280755438252
5600.0 73.8491414440781
5800.0 73.54752100314231
6000.0 72.9871515760415
6150.0 73.22467152097916
6300.0 73.63416712072562
6500.0 73.54234380724172
6700.0 73.40120434519653
6900.0 73.2836095372987
7100.0 72.62702911425987
7300.0 72.14871541172697
7500.0 72.03183818360532
7750.0 72.0430879391767
8000.0 72.12927043245162
8250.0 71.92247355054786
8500.0 71.77695843334621
8750.0 71.9183246342429
9000.0 72.73164534656858
9250.0 72.41703365374823
9500.0 71.80319826233546
9750.0 70.56718394556539
10000.0 69.02030772306455
10300.0 67.07669878522992
10600.0 66.7833419192064
10900.0 68.64326505112076
11200.0 70.2874820588919
11500.0 70.42108144600029
11800.0 70.68909102847573
12200.0 72.58707858555796
12500.0 74.55960613299251
12800.0 74.9606104599045
13200.0 75.34926197325794
13600.0 76.3451968606433
14000.0 76.90878565347873
14500.0 77.82586084499701
15000.0 78.90584410695182
15500.0 79.1217140281338
16000.0 78.55655291877021
16500.0 78.78553559691358
17000.0 80.15708950430206
17500.0 80.65825485630647
18000.0 80.07579858161633
18500.0 79.49436318237794
19000.0 78.04196209889915
19500.0 76.73949762465439
