Freq "Estimated In-Room Response"
20.5078 40.62029777415664
21.9727 42.466860069248085
23.4375 43.63523200321747
24.9023 45.41695886738076
26.3672 46.97138444740118
27.832 48.45771802447659
29.2969 50.111003859803915
30.7617 51.5808163934329
32.2266 53.19414807840819
33.6914 54.71463691604315
35.1563 56.235576218622796
36.6211 57.73097698021162
38.0859 59.08332013597216
39.5508 60.65318831409765
41.0156 62.237968930811306
42.4805 63.34826610304883
43.9453 64.52100370250895
45.4102 65.858898600935
46.875 67.09916636315607
48.3398 68.26325312085399
51.2695 70.4519681202999
52.7344 71.53007361536771
54.1992 72.50327075924879
55.6641 73.4403678472979
58.5938 75.21881818616636
60.0586 76.13728733066206
62.9883 77.8368970462579
64.4531 78.48974057540711
67.3828 79.42701430205393
68.8477 79.78287636937877
71.7773 80.7125157164244
74.707 81.07609307518412
77.6367 81.03725533621748
79.1016 81.20931491665736
82.0313 81.53967865100404
84.9609 81.3697354296674
87.8906 81.41237379027955
90.8203 81.4302540221778
95.2148 81.36863571141875
98.1445 81.28213240484571
101.074 81.46019739701683
105.469 81.31723791474256
108.398 81.3382231669966
112.793 81.74760561538886
117.188 81.58289917368177
120.117 82.02663660943833
124.512 81.94876193591902
128.906 81.86407185334009
133.301 81.96870936451324
139.16 82.04371914916675
143.555 82.1377940199354
147.949 82.0824970435498
153.809 82.2818989746151
159.668 82.51214760517679
165.527 82.58192962005334
171.387 82.55770600907701
177.246 82.4939295337344
183.105 82.42576569300894
188.965 82.45744146924523
196.289 82.58403136751497
203.613 82.4292216169519
210.938 82.401087397458
218.262 82.3699657903903
225.586 82.31347376481908
232.91 82.23956376607987
241.699 82.16655206392132
250.488 82.03559615697684
259.277 82.23339190629828
268.066 81.72731460173819
276.855 81.65679628278964
287.109 81.83448884832383
297.363 81.73327063378413
307.617 81.66944753103115
319.336 81.23254238332639
329.59 81.0807833046493
341.309 80.69839991838911
353.027 80.46837476194894
366.211 80.75023501590628
379.395 81.6079881130473
392.578 81.4287891399356
405.762 80.91403608169237
420.41 81.26532612324716
435.059 80.98925199455294
451.172 80.96116956298728
465.82 80.83592858808365
483.398 80.56107017448501
499.512 80.58361722263854
517.09 80.64585662995346
536.133 79.99595338493214
555.176 80.320528807569
574.219 80.37218601130282
594.727 79.89010625012872
615.234 79.5252357614436
637.207 79.79073662810323
659.18 80.10990881397288
682.617 80.17283182584968
707.52 80.55987351778775
732.422 80.65422584582925
757.324 80.88117173582141
785.156 81.22237930153447
811.523 80.90609412419023
840.82 80.97620888840635
870.117 80.80702282562284
900.879 81.14954604949385
933.105 81.0501559084708
965.332 81.12734810350517
1000.49 80.90191641637163
1035.64 80.56664115884995
1072.27 80.23416193293953
1108.89 80.03716696371296
1148.44 79.92779549476508
1189.45 80.23294990127987
1230.47 80.33795085847056
1274.41 80.29633298028536
1319.82 80.1066653337694
1366.7 79.99254314118393
1413.57 79.66863466915225
1463.38 79.52719842524948
1516.11 79.94624505598765
1568.85 80.33436507183428
1624.51 80.24339405127152
1681.64 79.93080205297316
1741.7 80.04733035194106
1803.22 79.90124229368347
1866.21 79.73706591740408
1932.13 79.39239189212321
1999.51 79.41314282403421
2069.82 79.97979488887431
2143.07 79.41638952190286
2219.24 78.8504747708647
2296.88 79.04199769178311
2378.91 79.56231536493
2462.4 79.09144297325615
2548.83 78.7565642810874
2639.65 79.18400501512926
2731.93 79.3852910826072
2828.61 79.68607840808303
2928.22 79.89858513446583
3030.76 79.84431502638321
3137.7 80.22339015624381
3249.02 80.03118741773652
3363.28 80.04104907608682
3481.93 79.88225286102958
3604.98 79.69389815632555
3732.42 79.33016878520773
3864.26 79.18672864092557
4000.49 79.04269883137502
4141.11 79.2384678699095
4287.6 78.87941656537429
4438.48 78.91001385893276
4595.21 78.97462235463136
4756.35 78.77723995932234
4924.8 78.77915969026976
5097.66 78.7515552671044
5277.83 78.49726986553526
5463.87 78.1440759178661
5657.23 78.54969832539422
5856.45 78.53605391204049
6062.99 78.2521514168124
6276.86 78.19167499211382
6498.05 78.08225998459078
6726.56 78.06596534609734
6963.87 77.62073069137189
7209.96 77.25839305934194
7464.84 76.74568207202343
7727.05 76.6108031642221
7999.51 76.82982904445302
8282.23 77.23372511687482
8573.73 77.49292070089102
8876.95 77.32370739222036
9188.96 77.12844597688489
9514.16 77.02318719007697
9849.61 77.0737317802447
10196.8 77.2169427316384
10555.7 77.22686539772435
10927.7 77.03060678969702
11313.0 76.80122049917894
11712.9 76.43511702048319
12126.0 76.1711863037277
12553.7 76.0442363559057
12996.1 75.79727653155228
13454.6 75.45109968311401
13929.2 75.16439849093153
14419.9 74.9556798988925
14928.2 74.9449289087802
15455.6 75.25778230354076
16000.5 75.14638641945062
16564.5 74.35451019310123
17148.9 72.7521189320904
17752.4 74.40388634013044
18379.4 73.71266370805513
19026.9 72.09334299780946
19697.8 70.9970204929199
19999.5 70.43437422674297
