Freq "Estimated In-Room Response"
20.5078 67.42718089774485
21.9727 69.70857547619083
23.4375 71.57391120940507
24.9023 74.35323785968919
26.3672 77.1861335838013
27.832 79.77045259938924
29.2969 82.13137792633191
30.7617 83.84161369986006
32.2266 84.86214512396288
33.6914 85.22762004976063
35.1562 85.3230041113867
36.6211 85.2416720227935
38.0859 85.13924218735187
39.5508 85.16574988352855
41.0156 85.15084936282405
42.4805 84.97187151254522
43.9453 85.08643283709321
45.4102 85.21494592511823
46.875 85.4169023775967
48.3398 85.5959729388905
51.2695 85.97435475255847
52.7344 86.19618964111734
54.1992 86.39814131276077
55.6641 86.40498565447963
58.5938 87.09638159820248
60.0586 87.41714348604928
62.9883 87.76055223325606
64.4531 87.92687784631255
67.3828 88.26395262228648
68.8477 88.50454137041854
71.7773 88.77943238763032
74.707 89.02146805439848
77.6367 89.1766394643094
79.1016 89.23681413590926
82.0312 89.36489573801829
84.9609 89.51391644523864
87.8906 89.47914025894356
90.8203 89.57077695838723
95.2148 89.55984458929514
98.1445 89.46934357514641
101.074 89.2888812815559
105.469 89.72426990477305
108.398 89.84249884851131
112.793 89.67422256158149
117.188 89.63250923381294
120.117 89.59442852801743
124.512 89.71835496029404
128.906 89.70717370407
133.301 89.67346797147374
139.16 89.45406669266501
143.555 89.24447897688593
147.949 89.20998395281259
153.809 89.20849017296646
159.668 89.19352182459187
165.527 88.99077544336475
171.387 89.11783151361686
177.246 88.86387279101213
183.105 88.65457219660787
188.965 88.83810541199969
196.289 89.11531540103074
203.613 89.03926563782098
210.938 88.84281842129558
218.262 88.51825199953736
225.586 89.14277899759638
232.91 88.6855684280985
241.699 88.72632802865736
250.488 88.56454157505686
259.277 89.2900726532456
268.066 88.6725039655229
276.855 87.9741800653692
287.109 88.0290698284407
297.363 88.10807238819365
307.617 88.1818650663815
319.336 87.32526877018164
329.59 87.40845477495752
341.309 87.40086765090251
353.027 87.3722504065083
366.211 87.39222907301702
379.395 87.13969023401683
392.578 86.86287517638071
405.762 87.58146810675922
420.41 87.96791551475323
435.059 88.25758217691562
451.172 87.80138537826468
465.82 88.3557601755064
483.398 88.09888956814117
499.512 87.55352624025406
517.09 87.88656510696065
536.133 87.98602747197434
555.176 87.56918238875909
574.219 88.0910263977042
594.727 87.3051681249568
615.234 87.06772127602063
637.207 87.44963335057892
659.18 86.93316034636257
682.617 87.13861799718086
707.52 87.39336963641311
732.422 86.81587309912055
757.324 87.24402888754425
785.156 87.47843942801926
811.523 87.29374748680887
840.82 86.86505795382946
870.117 87.06539218137259
900.879 86.62728899023583
933.105 87.44130382738952
965.332 86.9184336256634
1000.49 86.44023434122188
1035.64 85.82473134068428
1072.27 85.4925720310442
1108.89 85.4585618430693
1148.44 85.14726541343946
1189.45 85.55593469637192
1230.47 85.84186814686797
1274.41 86.28761062499711
1319.82 86.97119193924193
1366.7 87.38024070623977
1413.57 87.50602992281009
1463.38 87.51532957173868
1516.11 87.30820756145809
1568.85 87.053280156879
1624.51 87.13718840793778
1681.64 86.93916885956472
1741.7 86.91257683282338
1803.22 86.65222482843232
1866.21 86.19208176033646
1932.13 86.13857944059441
1999.51 86.69780187535312
2069.82 86.75018203136297
2143.07 86.99387556625916
2219.24 86.46120971285256
2296.88 86.54815880108835
2378.91 86.23749365300716
2462.4 86.85465207595954
2548.83 86.43516507251925
2639.65 86.02986187059156
2731.93 85.92172784861098
2828.61 86.20494081981111
2928.22 86.72385307305694
3030.76 86.58363323419186
3137.7 86.37002265916009
3249.02 86.43754519676096
3363.28 86.59105193533074
3481.93 86.94246131844505
3604.98 86.9927780231923
3732.42 87.26712639380713
3864.26 86.61637466886731
4000.49 86.33385764868713
4141.11 86.6333886454617
4287.6 86.55812581893801
4438.48 86.27779533565061
4595.21 86.07251367273989
4756.35 86.2936473503679
4924.8 86.02480445609228
5097.66 85.65574902563093
5277.83 86.13071245682319
5463.87 86.08355431464338
5657.23 86.15945172055066
5856.45 86.08813398934302
6062.99 86.20319257859316
6276.86 85.98050347308049
6498.05 85.98379178399306
6726.56 85.66707831048679
6963.87 85.3729033806727
7209.96 85.1337041805667
7464.84 84.67007762166165
7727.05 84.46556232931043
7999.51 84.10492832751409
8282.23 84.23206034949072
8573.73 84.15899916928043
8876.95 84.11801761885953
9188.96 84.09803251546292
9514.16 84.27467909833084
9849.61 84.15013879278263
10196.8 83.95908071670911
10555.7 83.71123153166647
10927.7 83.53131658850455
11313.0 83.55486930949996
11712.9 83.70243606488252
12126.0 83.5955066912885
12553.7 83.00179000518551
12996.1 82.0820404776006
13454.6 82.14443654503177
13929.2 82.80555467364931
14419.9 82.94614959585778
14928.2 82.63753062736545
15455.6 82.32256925755358
16000.5 82.33191833270118
16564.5 82.65608685916567
17148.9 82.27189072930564
17752.4 81.611449221703
18379.4 81.07861917187674
19026.9 80.58508735423374
19697.8 79.94457761640197
19999.5 79.71345089543483
