Freq "Ceiling Bounce"
22.4 42.93095564326599
23.0 43.827120203953925
23.6 44.65918122469124
24.0 45.359181224691255
25.0 46.12481812736705
25.8 46.99174584596436
26.5 47.89097248407191
27.2 49.02481812736703
28.0 49.89174584596434
29.0 50.69174584596436
30.0 51.491745845964346
30.7 52.15918122469124
31.5 52.82637057880916
32.5 53.59406551548618
33.5 54.42637057880917
34.5 55.39406551548619
35.5 56.09406551548618
36.5 56.79406551548617
37.5 57.35918122469123
38.7 57.959181224691235
40.0 58.79174584596434
41.2 59.49174584596436
42.5 60.091745845964354
43.7 60.657640459791395
45.0 61.157640459791395
46.2 61.82405063291141
47.5 62.4240506329114
48.7 62.857640459791384
50.0 63.4240506329114
51.5 63.82405063291141
53.0 64.32405063291141
54.5 64.7909724840719
56.0 65.1909724840719
58.0 65.6576404597914
60.0 65.99097248407192
61.5 66.35840204159645
63.0 66.72481812736703
65.0 67.02481812736703
67.0 67.29250147096575
69.0 67.55840204159644
71.0 67.79250147096575
73.0 67.95840204159643
75.0 68.09250147096574
77.5 68.22481812736703
80.0 68.32481812736704
82.5 68.42481812736703
85.0 68.52481812736703
87.5 68.52481812736703
90.0 68.55764045979139
92.5 68.6240506329114
95.0 68.65764045979138
97.5 68.65764045979138
100.0 68.65764045979138
103.0 68.75764045979138
106.0 68.82481812736704
109.0 68.92481812736703
112.0 69.05918122469124
115.0 69.15918122469124
118.0 69.29250147096573
122.0 69.42712020395393
125.0 69.55918122469124
128.0 69.62712020395392
132.0 69.75918122469123
136.0 69.82712020395392
140.0 69.92712020395393
145.0 69.92712020395393
150.0 69.92712020395393
155.0 69.89250147096574
160.0 69.82712020395392
165.0 69.66226193179884
170.0 69.4955586407808
175.0 69.39555864078078
180.0 69.26449231236633
185.0 69.20014238740362
190.0 69.10014238740362
195.0 69.0363224160676
200.0 69.00014238740361
206.0 69.00014238740361
212.0 69.03095564326601
218.0 69.03095564326601
224.0 69.03095564326601
230.0 68.96449231236633
236.0 68.90014238740362
240.0 68.80014238740362
250.0 68.76981782729611
258.0 68.80625030623446
265.0 68.87303578170692
272.0 68.90625030623445
280.0 68.91387919964613
290.0 68.98501577528324
300.0 69.05163782574733
307.0 69.12302508422066
315.0 69.22302508422067
325.0 69.22302508422067
335.0 69.22302508422067
345.0 69.28501577528324
355.0 69.41387919964613
365.0 69.54321768793895
375.0 69.70625030623445
387.0 69.76981782729611
400.0 69.76981782729611
412.0 69.63391691963471
425.0 69.50014238740361
437.0 69.40014238740363
450.0 69.16688093763115
462.0 68.80333795898572
475.0 68.44033003374783
487.0 68.11593208695695
500.0 67.85454814692743
515.0 67.59371141748183
530.0 67.33618675268
545.0 67.20812744590084
560.0 67.0267051363148
580.0 66.90046693023294
600.0 66.87467191301505
615.0 66.87467191301505
630.0 66.83347311717161
650.0 67.00787397458737
670.0 67.27467191301506
690.0 67.40787397458736
710.0 67.60787397458735
730.0 67.72666219186506
750.0 67.47421986361363
775.0 67.45331740170563
800.0 67.55331740170563
825.0 67.58173191113093
850.0 67.73997755517847
875.0 67.86981782729613
900.0 68.20014238740362
925.0 68.64321768793893
950.0 69.11876992410346
975.0 69.36157840591169
1000.0 69.52878593409714
1030.0 69.70067861545046
1060.0 69.61293610446144
1090.0 69.42670513631481
1120.0 69.06796788152779
1150.0 68.65874836652041
1180.0 68.25280673419455
1220.0 67.87320267289972
1250.0 67.45048361033649
1280.0 66.8504836103365
1320.0 66.27257078749946
1360.0 65.91794659174815
1400.0 65.49674208613736
1450.0 65.20163013751853
1500.0 64.98405025036132
1550.0 64.92128745731067
1600.0 65.28053057952748
1650.0 65.7419785305599
1700.0 66.06663336954155
1750.0 66.38631982948864
1800.0 66.66164032180636
1850.0 66.68743838542503
1900.0 66.54585115975114
1950.0 66.33326204011544
2000.0 66.00748524320694
2060.0 65.6504836103365
2120.0 65.39650312498786
2180.0 65.19026052680358
2240.0 65.0116498697536
2300.0 64.95048361033649
2360.0 65.04043833604149
2400.0 65.2733995346086
2500.0 65.28364448903075
2580.0 65.23256384042074
2650.0 65.03212914346838
2720.0 64.66528116327981
2800.0 64.26871016907036
2900.0 63.974436731194004
3000.0 63.608105248660806
3070.0 63.25536804846895
3150.0 62.885793318833876
3250.0 62.621286577226854
3350.0 62.40472916916228
3450.0 62.43551001391462
3550.0 62.42128657722684
3650.0 62.40810524866082
3750.0 62.461075214361614
3870.0 62.708981181554535
4000.0 62.851616974368326
4120.0 62.98787268615807
4250.0 63.21489012406046
4370.0 63.58069884391158
4500.0 63.886732541100386
4620.0 64.09505675302623
4750.0 64.22735447120068
4870.0 64.3273544712007
5000.0 64.68270787309011
5150.0 65.19511807565058
5300.0 65.62729675343844
5450.0 65.74237740205024
5600.0 65.54766473004418
5800.0 65.40282178077025
6000.0 65.36326191614091
6150.0 65.2127317035038
6300.0 64.92209043046945
6500.0 64.38483188452834
6700.0 63.78885886794389
6900.0 63.29878203427934
7100.0 63.14027558339109
7300.0 63.01543603674264
7500.0 63.1084128881275
7750.0 63.228557345114126
8000.0 63.59688656648187
8250.0 63.88069884391159
8500.0 64.25007515647832
8750.0 64.55217163781089
9000.0 64.8334901695637
9250.0 65.16276574332059
9500.0 65.34708123549514
9750.0 65.64309762649805
10000.0 65.61311577310708
10300.0 65.40226734499126
10600.0 65.18225084629266
10900.0 64.96768612136637
11200.0 64.64973108606073
11500.0 64.14185065901678
11800.0 63.469634464424786
12200.0 62.668551980232394
12500.0 61.72580210610455
12800.0 60.96682838366881
13200.0 60.12287377221001
13600.0 59.30227143082659
14000.0 58.414119483159496
14500.0 57.49194221769197
15000.0 56.77236757670191
15500.0 56.304264348221764
16000.0 56.118459929799215
16500.0 56.06911073457792
17000.0 55.97491461435445
17500.0 56.14347106279345
18000.0 56.27983029967781
18500.0 56.31188966248476
19000.0 55.99501388400155
19500.0 55.308030129937265
