Freq "Floor Bounce"
22.4 42.64898514879552
23.0 43.612271783156174
23.6 44.579777457905706
24.0 45.279777457905695
25.0 46.209064300159824
25.8 47.10986628672329
26.5 48.10986628672329
27.2 49.31227178315619
28.0 50.21227178315618
29.0 51.07928732607432
30.0 51.9162794008364
30.7 52.57928732607432
31.5 53.24898514879551
32.5 53.982199673323024
33.5 54.81592692226705
34.5 55.71592692226706
35.5 56.42104166298749
36.5 57.08493492460849
37.5 57.62022310324252
38.7 58.22104166298749
40.0 58.95768127821954
41.2 59.62349685065979
42.5 60.22758719283593
43.7 60.7566725593005
45.0 61.194719291192044
46.2 61.924024870260226
47.5 62.45380974359446
48.7 62.92188682922213
50.0 63.452378007380815
51.5 63.94608461666675
53.0 64.47783080594571
54.5 64.94136150423587
56.0 65.40306957104252
58.0 65.96845083805432
60.0 66.33435140868504
61.5 66.70076749445562
63.0 67.06769521305294
65.0 67.43513059177982
67.0 67.70076749445562
69.0 67.96845083805432
71.0 68.20228461396019
73.0 68.33435140868504
75.0 68.53435140868503
77.5 68.60076749445561
80.0 68.70076749445562
82.5 68.83358982687997
85.0 68.90076749445562
87.5 68.93358982687998
90.0 68.96692185116049
92.5 69.03358982687996
95.0 69.03358982687996
97.5 69.06692185116049
100.0 69.1
103.0 69.16692185116051
106.0 69.2
109.0 69.33358982687997
112.0 69.43358982687998
115.0 69.5669218511605
118.0 69.6669218511605
122.0 69.83435140868504
125.0 69.93435140868503
128.0 70.03435140868501
132.0 70.13435140868502
136.0 70.13435140868502
140.0 70.20076749445562
145.0 70.20076749445562
150.0 70.16845083805433
155.0 70.16845083805433
160.0 70.10306957104252
165.0 70.00306957104253
170.0 69.93821129888742
175.0 69.87150800786938
180.0 69.80690501035458
185.0 69.7069050103546
190.0 69.67150800786938
195.0 69.6069050103546
200.0 69.5404416794549
206.0 69.50690501035459
212.0 69.43821129888744
218.0 69.40690501035459
224.0 69.34044167945491
230.0 69.3069050103546
236.0 69.20690501035459
240.0 69.1098662867233
250.0 69.07609175449221
258.0 69.0457671943847
265.0 69.11592692226708
272.0 69.15260953202218
280.0 69.21916705502754
290.0 69.25260953202218
300.0 69.28982856673473
307.0 69.36096514237182
315.0 69.43257218046558
325.0 69.53257218046556
335.0 69.56096514237181
345.0 69.6948570588317
355.0 69.83257218046558
365.0 69.9234968506598
375.0 70.02349685065981
387.0 70.15260953202218
400.0 70.18219967332304
412.0 70.18219967332304
425.0 70.11916705502753
437.0 70.05667255930051
450.0 70.02758719283592
462.0 70.02758719283592
475.0 70.09897445130925
487.0 70.18219812790056
500.0 70.25521969308379
515.0 70.42869245367795
530.0 70.52869245367795
545.0 70.52869245367795
560.0 70.40261155895364
580.0 70.46283617001536
600.0 70.56283617001536
615.0 70.67717895989803
630.0 70.73257218046557
650.0 70.75768127821952
670.0 70.77977745790568
690.0 70.97449351030438
710.0 71.17071732495408
730.0 71.36845083805433
750.0 71.33513059177983
775.0 71.23513059177984
800.0 71.13513059177983
825.0 71.00306957104253
850.0 71.00531806766472
875.0 70.93663575667186
900.0 70.93663575667186
925.0 71.00076749445562
950.0 71.03513059177983
975.0 71.00076749445562
1000.0 71.13663575667186
1030.0 71.23964531976003
1060.0 71.2797774579057
1090.0 71.07977745790569
1120.0 70.77977745790568
1150.0 70.5098662867233
1180.0 70.14415774934851
1220.0 69.84415774934851
1250.0 69.37449351030439
1280.0 68.97150800786937
1320.0 68.63358982687997
1360.0 68.4669218511605
1400.0 68.13435140868503
1450.0 67.93435140868502
1500.0 67.86845083805433
1550.0 67.83821129888742
1600.0 67.84283030471974
1650.0 67.81483523633479
1700.0 67.7840783937255
1750.0 67.79913536951437
1800.0 67.88910480561006
1850.0 67.87244660678603
1900.0 67.7593392998131
1950.0 67.53221804579375
2000.0 67.44716357473719
2060.0 67.26562459081087
2120.0 67.1648012258366
2180.0 67.07076275725437
2240.0 67.00449239072294
2300.0 67.08107327382879
2360.0 67.22081894554056
2400.0 67.51323574403133
2500.0 67.59037884047719
2580.0 67.65519220018267
2650.0 67.72129830443605
2720.0 67.62235821714528
2800.0 67.54095559035176
2900.0 67.31115554505779
3000.0 67.14704584057051
3070.0 66.92042427558204
3150.0 66.72566228536351
3250.0 66.57914160383162
3350.0 66.48098748185238
3450.0 66.40869986544024
3550.0 66.40498017525763
3650.0 66.50378614698744
3750.0 66.56893802673272
3870.0 66.68382992528653
4000.0 66.78343461029553
4120.0 66.92618710391504
4250.0 67.08107444645536
4370.0 67.22286360876537
4500.0 67.3221503103902
4620.0 67.4210308381189
4750.0 67.36994067853264
4870.0 67.27064617133647
5000.0 67.2791204846379
5150.0 67.35865853259173
5300.0 67.33392832814566
5450.0 67.16996121118248
5600.0 67.05984568729274
5800.0 67.05445848526064
6000.0 67.15198202953547
6150.0 67.21024948601227
6300.0 67.17183354972273
6500.0 66.97461960007611
6700.0 66.74195058596992
6900.0 66.70191445428934
7100.0 66.71875091164311
7300.0 66.93730171293787
7500.0 67.16073506160971
7750.0 67.41605583399611
8000.0 67.65198202953547
8250.0 67.97054430894828
8500.0 68.13268995610308
8750.0 68.11711090628746
9000.0 68.09409265572766
9250.0 67.9752382379475
9500.0 67.85664821100016
9750.0 67.8357704295686
10000.0 67.6180442046013
10300.0 67.23452415393479
10600.0 67.06588846059687
10900.0 66.88219967332304
11200.0 66.63821129888743
11500.0 66.43663575667186
11800.0 66.0493576647827
12200.0 65.59238414975147
12500.0 65.09701892675756
12800.0 64.76615422006834
13200.0 64.55003912656686
13600.0 64.34556025894032
14000.0 64.10318974480757
14500.0 63.91944560259758
15000.0 63.812600203662626
15500.0 63.85412858285815
16000.0 63.70468816500127
16500.0 63.54058682684139
17000.0 63.40466902024481
17500.0 63.35462399985593
18000.0 63.40660364007772
18500.0 63.044699715205525
19000.0 62.370843310324105
19500.0 61.389296465556455
