Freq "Side Wall Bounce"
22.4 42.900853833087595
23.0 43.85762429565288
23.6 44.7157910691288
24.0 45.41255654049128
25.0 46.25025578688523
25.8 47.110245912424105
26.5 48.049820074568686
27.2 49.22966101776929
28.0 50.11122462503725
29.0 50.969906977027264
30.0 51.75402714042316
30.7 52.43193967696082
31.5 53.09224573587976
32.5 53.87361838419554
33.5 54.712117029286716
34.5 55.63100946642291
35.5 56.33100946642291
36.5 57.05163058608527
37.5 57.59180267080727
38.7 58.21261034728461
40.0 58.99081957102459
41.2 59.65074626522484
42.5 60.26990697702726
43.7 60.810245912424094
45.0 61.248402507436325
46.2 61.929585745053515
47.5 62.468019083395845
48.7 62.94747581675445
50.0 63.44562135036638
51.5 63.886185438712076
53.0 64.38618543871208
54.5 64.80608441709974
56.0 65.20608441709975
58.0 65.66570662928298
60.0 66.00608441709973
61.5 66.38663941032091
63.0 66.72544274915903
65.0 67.04562135036637
67.0 67.32590311452383
69.0 67.56665093111933
71.0 67.80744020485439
73.0 67.9688998944644
75.0 68.09157041767972
77.5 68.2527853793503
80.0 68.3527853793503
82.5 68.43524484390117
85.0 68.53524484390117
87.5 68.55278537935028
90.0 68.61192841089307
92.5 68.61192841089307
95.0 68.65059912371241
97.5 68.64928730561853
100.0 68.67078740532611
103.0 68.6894268773097
106.0 68.77078740532609
109.0 68.85163058608529
112.0 68.95163058608529
115.0 69.05163058608528
118.0 69.23325674471549
122.0 69.3332567447155
125.0 69.4332567447155
128.0 69.53325674471549
132.0 69.6332567447155
136.0 69.67439119967479
140.0 69.7332567447155
145.0 69.7332567447155
150.0 69.6332567447155
155.0 69.59626435396001
160.0 69.45846748308273
165.0 69.3008538330876
170.0 69.14475251412382
175.0 69.00910415161674
180.0 68.9155226851543
185.0 68.83719017290373
190.0 68.73719017290374
195.0 68.70268054117362
200.0 68.63719017290374
206.0 68.63719017290374
212.0 68.65731439196757
218.0 68.69745409435576
224.0 68.69218494775176
230.0 68.67558694646213
236.0 68.61396889144511
240.0 68.57558694646214
250.0 68.52076360985264
258.0 68.52076360985264
265.0 68.56651116521383
272.0 68.61041132940132
280.0 68.61041132940132
290.0 68.58145080810407
300.0 68.56592423295388
307.0 68.59607615736513
315.0 68.62163601424196
325.0 68.6293359702306
335.0 68.72933597023057
345.0 68.88334070528454
355.0 69.08916552902522
365.0 69.34952022898885
375.0 69.5700538501208
387.0 69.83114340585675
400.0 69.9894660661446
412.0 70.10355225629058
425.0 70.14441535157444
437.0 70.20814636739227
450.0 70.14877486252257
462.0 70.01692892967917
475.0 69.82997309424096
487.0 69.6685290431731
500.0 69.50750409072025
515.0 69.37091629316146
530.0 69.1325086990951
545.0 68.82270261112018
560.0 68.46524450153935
580.0 68.13442463714037
600.0 67.86455565853821
615.0 67.63737318088793
630.0 67.39050138995626
650.0 67.22413273122363
670.0 66.96784581427966
690.0 66.8612732489873
710.0 66.8943118427861
730.0 66.74848050217035
750.0 66.57948641153925
775.0 66.40036002763249
800.0 66.34502183271515
825.0 66.41497015127918
850.0 66.53428900424726
875.0 66.50541129046955
900.0 66.22545550711367
925.0 66.05138097651833
950.0 66.02038167773112
975.0 66.0800841149372
1000.0 66.0490394088777
1030.0 65.98302881055001
1060.0 65.86274196622053
1090.0 65.89903776762655
1120.0 65.98977679926911
1150.0 66.0748806745991
1180.0 66.0427513057988
1220.0 65.89208788002449
1250.0 65.85496492122519
1280.0 65.74416332027111
1320.0 65.62768398991336
1360.0 65.44273963453205
1400.0 65.25059042943252
1450.0 65.19302263114058
1500.0 65.29622267235933
1550.0 65.31708004654737
1600.0 65.38569941308255
1650.0 65.50805835238971
1700.0 65.70468524626409
1750.0 65.92264337728786
1800.0 66.07493690843316
1850.0 66.05077106322045
1900.0 65.88842604432759
1950.0 65.71637842532833
2000.0 65.60762956666265
2060.0 65.37557588879184
2120.0 65.22513806160075
2180.0 65.02276642649475
2240.0 64.83510858066202
2300.0 64.80204260335786
2360.0 64.80210451635197
2400.0 64.90427337678456
2500.0 64.89362910829983
2580.0 64.77363955283144
2650.0 64.61619461284384
2720.0 64.51599985496958
2800.0 64.3399271842765
2900.0 64.0302889667082
3000.0 63.7269037069029
3070.0 63.335132625599485
3150.0 62.93870282117278
3250.0 62.57649804179955
3350.0 62.25500082175974
3450.0 62.01327185699472
3550.0 61.818247722696626
3650.0 61.72971624517811
3750.0 61.67353295852348
3870.0 61.70842214925314
4000.0 61.7185360192138
4120.0 61.67389032028309
4250.0 61.672129988900394
4370.0 61.67383214300639
4500.0 61.72508812916159
4620.0 61.78203474217665
4750.0 61.766432028336666
4870.0 61.774186230381574
5000.0 61.99603110324044
5150.0 62.40995131166241
5300.0 62.65464819249176
5450.0 62.66349443333239
5600.0 62.799782727401265
5800.0 62.93448197976804
6000.0 63.057455460670354
6150.0 63.068860575086475
6300.0 62.94895576921182
6500.0 62.575484763509664
6700.0 62.25843381884586
6900.0 62.16163937895749
7100.0 62.029049945192654
7300.0 62.06100362597407
7500.0 62.210055595211045
7750.0 62.430287790552484
8000.0 62.78884141626854
8250.0 63.19497083677503
8500.0 63.51553257254808
8750.0 63.703786346470665
9000.0 63.66659853339013
9250.0 63.5751143159587
9500.0 63.49865980506084
9750.0 63.62492291172744
10000.0 63.51087676165578
10300.0 63.18742255175273
10600.0 63.00807719069941
10900.0 62.79540849931446
11200.0 62.55791186442353
11500.0 62.270241938564
11800.0 61.80738366644687
12200.0 61.137815927808134
12500.0 60.39903693035561
12800.0 59.712756113888304
13200.0 58.92541671842939
13600.0 58.34970805611833
14000.0 57.90493751260267
14500.0 57.69734928328211
15000.0 57.57023919848851
15500.0 57.31276296168777
16000.0 56.83939531244813
16500.0 56.50119988025284
17000.0 56.179319499532696
17500.0 55.94727913274447
18000.0 55.32128085407412
18500.0 54.39328389136655
19000.0 53.314727099046976
19500.0 52.017316886826606
