Freq "Estimated In-Room Response"
22.4 31.960479581364794
23.0 32.7512980219051
23.6 33.44148708511871
24.0 33.78920468948827
25.0 34.068381200577804
25.8 34.33950821757345
26.5 34.60552565952095
27.2 34.86838120057779
28.0 36.94856135513287
29.0 39.05229866656909
30.0 40.55119698149808
30.7 41.61772016338587
31.5 43.235053828814145
32.5 46.76648466523345
33.5 48.89024319895093
34.5 50.32088832380178
35.5 51.92316689309048
36.5 55.37533997957901
37.5 57.534081552285684
38.7 58.98594843737429
40.0 59.76778899300173
41.2 59.82401886864585
42.5 59.849718631026846
43.7 60.4653508337549
45.0 63.48012958120526
46.2 65.51982338628859
47.5 67.23826650267765
48.7 69.81694692224862
50.0 71.65362182936502
51.5 73.36617973826914
53.0 75.397945913772
54.5 76.86838527963893
56.0 79.11065555777382
58.0 81.05096457074315
60.0 82.25149281675952
61.5 82.88257965380316
63.0 83.39908326895228
65.0 83.82663210704332
67.0 84.23101255570373
69.0 84.80251398176176
71.0 85.28294363145261
73.0 84.90147565475924
75.0 84.39497381529942
77.5 84.49427484585567
80.0 84.33266423628649
82.5 83.19165978024128
85.0 82.95714132748203
87.5 83.47107624469903
90.0 83.40879730418742
92.5 83.27970162539562
95.0 83.03810774630455
97.5 81.84163170023344
100.0 80.9260187635734
103.0 80.52055662448878
106.0 79.8236964228796
109.0 80.165221438811
112.0 80.22913137581111
115.0 79.8511018875143
118.0 79.63748043427572
122.0 80.07343883376853
125.0 79.75598092546858
128.0 79.89481539705498
132.0 79.1814343324755
136.0 79.54045956671897
140.0 80.59293497514636
145.0 81.52591935761306
150.0 82.00811624435674
155.0 79.97888735408203
160.0 78.70259213844217
165.0 78.2724314978327
170.0 78.21936242164978
175.0 80.0233642143165
180.0 80.75663012617062
185.0 79.94443725805066
190.0 80.26161343329785
195.0 81.43683440386256
200.0 80.38082445944865
206.0 77.55232585549199
212.0 79.24745722536427
218.0 81.41829071839808
224.0 80.16008037716317
230.0 81.0082451655311
236.0 81.05273714380733
240.0 80.01578185985282
250.0 78.43189872337858
258.0 79.7184756803723
265.0 81.45650350556949
272.0 79.65706013696496
280.0 80.41888341319112
290.0 81.34634376583091
300.0 80.13834465671728
307.0 79.49757830436313
315.0 79.75009430573688
325.0 80.01485368795262
335.0 80.22033309329889
345.0 80.36068208195722
355.0 80.44073797560573
365.0 80.4689196810098
375.0 80.50447542635509
387.0 80.5263637432265
400.0 80.51408029613889
412.0 80.35471602557479
425.0 80.05785558479366
437.0 79.60046703987989
450.0 79.15320952966324
462.0 78.74526042646728
475.0 78.47006227419098
487.0 78.27572692909987
500.0 78.114048108317
515.0 77.98597544577864
530.0 77.95116583968878
545.0 78.00464737914288
560.0 78.0542572748287
580.0 77.93046753408032
600.0 77.62654450778577
615.0 77.25786896663776
630.0 77.01252997265007
650.0 76.86916225768054
670.0 76.93671957260274
690.0 77.3222583970677
710.0 77.94615931732406
730.0 78.51031050618722
750.0 78.78368902580127
775.0 78.7785555473789
800.0 78.49405439321053
825.0 77.82303670321174
850.0 76.91924058035579
875.0 76.28371369061028
900.0 76.3425043126797
925.0 77.02188980582353
950.0 78.02089696209735
975.0 78.78150271869535
1000.0 79.12122055448526
1030.0 79.24684563207518
1060.0 78.92282540999878
1090.0 78.42491952650742
1120.0 78.37091620779837
1150.0 78.91572184215757
1180.0 79.82838560247203
1220.0 80.15698821268174
1250.0 79.2865123718468
1280.0 77.37704881416175
1320.0 76.90404965901622
1360.0 78.4237158255644
1400.0 79.23031931351942
1450.0 78.49401217222696
1500.0 77.13208967197586
1550.0 76.90137415753132
1600.0 77.30104786663657
1650.0 76.98876884532108
1700.0 76.46648083951737
1750.0 76.99986433964
1800.0 77.60750361766887
1850.0 76.95856722246154
1900.0 75.06920807972207
1950.0 74.24820439762554
2000.0 74.84060587333119
2060.0 74.6849762977797
2120.0 74.04648785649931
2180.0 74.35859857527552
2240.0 75.02021528680443
2300.0 75.22069289952084
2360.0 74.81886947183524
2400.0 74.22386763275257
2500.0 74.06049178201904
2580.0 73.81881241875419
2650.0 73.5347844856588
2720.0 73.73565433080468
2800.0 74.23587564384853
2900.0 74.9882820323273
3000.0 75.48215990862128
3070.0 75.8401602168019
3150.0 76.14908654093546
3250.0 76.31314219621531
3350.0 76.08536560294209
3450.0 75.64578668239922
3550.0 75.13435334694337
3650.0 74.30124697023358
3750.0 73.97711844041592
3870.0 74.2321815343154
4000.0 74.37957382509094
4120.0 75.08849888915567
4250.0 75.1106415765495
4370.0 75.44154631393793
4500.0 75.76105415645888
4620.0 76.05581183341572
4750.0 76.66662059317771
4870.0 76.7245812095914
5000.0 76.31705528276902
5150.0 76.3420639341229
5300.0 76.6062579432718
5450.0 76.06444045243208
5600.0 75.79418802729585
5800.0 76.40675166459228
6000.0 76.78884202530469
6150.0 76.23489755744853
6300.0 75.47579970178275
6500.0 74.88987380709311
6700.0 74.47357817038149
6900.0 74.85913895532376
7100.0 75.37229201246494
7300.0 75.78518805661993
7500.0 75.78491593598925
7750.0 75.39924525936533
8000.0 75.09120484815011
8250.0 75.36476480993073
8500.0 76.04092202051689
8750.0 76.27463453247928
9000.0 76.38346725574421
9250.0 76.19195356616198
9500.0 76.40273996521101
9750.0 76.74455431376244
10000.0 77.12962625823637
10300.0 77.42438100364947
10600.0 77.31207902124297
10900.0 77.06772444586166
11200.0 77.41976793543223
11500.0 78.53083333285149
11800.0 77.84672525823957
12200.0 76.7434029217211
12500.0 75.3237963863981
12800.0 73.37729024288397
13200.0 70.31167085387571
13600.0 74.75923639307068
14000.0 72.16429424251629
14500.0 74.69075415478349
15000.0 74.99738710104042
15500.0 75.20624988171637
16000.0 74.49343660711668
16500.0 73.11214715654256
17000.0 68.76444219885177
17500.0 65.75955190262147
18000.0 68.38825812717033
18500.0 67.9221550784434
19000.0 64.68961310167231
19500.0 58.40532182882204
