Freq,On Axis,Listening Window,Sound Power,Early Reflections,Early Reflections DI,Sound Power DI,DI offset
22.4,-26.2632911392405,-26.2632911392405,-26.33736570517761,-26.296132853739955,10.032841714499455,10.07407456593711,10
23.0,-24.46329113924049,-24.46329113924049,-24.591020389876867,-24.524887368302423,10.061596229061934,10.127729250636378,10
23.6,-22.663291139240506,-22.70745156238275,-22.82854558511128,-22.78229504520585,10.074843482823098,10.121094022728528,10
24.0,-20.96329113924049,-20.98531522142671,-21.1058673546244,-21.06366844249039,10.07835322106368,10.120552133197691,10
25.0,-19.2632911392405,-19.2632911392405,-19.394654150153578,-19.33371037087037,10.07041923162987,10.131363010913077,10
25.8,-17.563291139240512,-17.563291139240512,-17.687062922732373,-17.631643779678917,10.068352640438405,10.123771783491861,10
26.5,-15.863291139240495,-15.863291139240495,-15.994654150153572,-15.933710370870365,10.07041923162987,10.131363010913077,10
27.2,-14.163291139240535,-14.20745156238275,-14.317361431402738,-14.278300135531886,10.070848573149135,10.109909869019987,10
28.0,-12.563291139240512,-12.563291139240512,-12.641934200202577,-12.598205169584169,10.034914030343657,10.078643060962065,10
29.0,-10.863291139240495,-10.863291139240495,-10.98442536548027,-10.92108246060804,10.057791321367546,10.121134226239775,10
30.0,-9.2632911392405,-9.2632911392405,-9.347857973592888,-9.300255906362743,10.036964767122242,10.084566834352387,10
30.7,-7.563291139240512,-7.607451562382728,-7.714004413444492,-7.6763515501008115,10.068899987718083,10.106552851061764,10
31.5,-5.963291139240489,-5.963291139240489,-6.083729234513534,-6.029716011281273,10.066424872040784,10.120438095273045,10
32.5,-4.3632911392404665,-4.3632911392404665,-4.462243997563753,-4.4062994306558,10.043008291415333,10.098952858323287,10
33.5,-2.7632911392405006,-2.7632911392405006,-2.858852119916328,-2.8043382448082994,10.041047105567799,10.095560980675828,10
34.5,-1.1632911392405063,-1.1632911392405063,-1.2662282889200256,-1.2149962473472513,10.051705108106745,10.10293714967952,10
35.5,0.436708860759488,0.436708860759488,0.30597362018996677,0.35275632190944606,10.083952538850042,10.130735240569521,10
36.5,2.0367088607595107,1.9925484376172662,1.8894281153308086,1.9256415190553398,10.066906918561926,10.103120322286458,10
37.5,3.5367088607595107,3.5367088607595107,3.4488520552809447,3.499651772501771,10.03705708825774,10.087856805478566,10
38.7,5.136708860759505,5.136708860759505,4.9981815961705465,5.050682292379001,10.086026568380504,10.138527264588959,10
40.0,6.636708860759505,6.636708860759505,6.533771711079986,6.58500375265276,10.051705108106745,10.10293714967952,10
41.2,8.136708860759505,8.136708860759505,8.07274576455449,8.109735343694062,10.026973517065443,10.063963096205015,10
42.5,9.7367088607595,9.714684778573279,9.59310312772373,9.638179953363583,10.076504825209696,10.12158165084955,10
43.7,11.2367088607595,11.192548437617255,11.089428115330797,11.125641519055385,10.06690691856187,10.103120322286458,10
45.0,12.7367088607595,12.714684778573279,12.596609836683903,12.640212625049138,10.074472153524141,10.118074941889375,10
46.2,14.136708860759505,14.136708860759505,14.07274576455449,14.109735343694062,10.026973517065443,10.063963096205015,10
47.5,15.53670886075951,15.53670886075951,15.481137795931254,15.513826431129125,10.022882429630386,10.055571064828257,10
48.7,16.936708860759488,16.936708860759488,16.815591426872395,16.872208786959497,10.06450007379999,10.121117433887093,10
50.0,18.136708860759505,18.136708860759505,18.083054898008804,18.116892219609376,10.019816641150129,10.053653962750701,10
51.5,19.436708860759488,19.414684778573267,19.3044046787032,19.342291659338336,10.072393119234931,10.110280099870067,10
53.0,20.636708860759505,20.636708860759505,20.543934221719233,20.589071386710934,10.047637474048571,10.092774639040272,10
54.5,21.936708860759488,21.936708860759488,21.830031136276794,21.884956902164554,10.051751958594934,10.106677724482694,10
56.0,23.2367088607595,23.2367088607595,23.1830548980088,23.21689221960937,10.019816641150129,10.053653962750701,10
58.0,24.7367088607595,24.7367088607595,24.675221607784117,24.712918017546393,10.023790843213106,10.061487252975382,10
60.0,26.2367088607595,26.2367088607595,26.19873990773484,26.22107166500148,10.015637195758018,10.03796895302466,10
61.5,27.936708860759488,27.936708860759488,27.843934221719216,27.889071386710917,10.047637474048571,10.092774639040272,10
63.0,29.53670886075951,29.53670886075951,29.458305503704644,29.495235813920594,10.041473046838917,10.078403357054867,10
65.0,31.03670886075951,31.03670886075951,30.990934882640595,31.01898244506807,10.017726415691442,10.045773978118916,10
67.0,32.53670886075951,32.53670886075951,32.4752216077841,32.512918017546404,10.023790843213106,10.061487252975411,10
69.0,33.836708860759494,33.836708860759494,33.813596719385906,33.82524709215894,10.011461768600554,10.023112141373588,10
71.0,35.136708860759505,35.136708860759505,35.098739907734846,35.12107166500149,10.015637195758018,10.03796895302466,10
73.0,36.2367088607595,36.2367088607595,36.1909348826406,36.21898244506807,10.017726415691428,10.045773978118902,10
75.0,37.136708860759505,37.136708860759505,37.136708860759505,37.136708860759505,10.0,10.0,10
77.5,38.03670886075951,38.03670886075951,37.98305489800881,38.01689221960938,10.019816641150129,10.053653962750701,10
80.0,38.836708860759494,38.836708860759494,38.836708860759494,38.836708860759494,10.0,10.0,10
82.5,39.636708860759505,39.636708860759505,39.636708860759505,39.636708860759505,10.0,10.0,10
85.0,40.53670886075951,40.53670886075951,40.53677023284312,40.53777357423815,9.998935286521359,9.999938627916393,10
87.5,41.53670886075951,41.53670886075951,41.53670886075951,41.53670886075951,10.0,10.0,10
90.0,42.336708860759494,42.336708860759494,42.4135967193859,42.3756490327327,9.96105982802679,9.923112141373593,10
92.5,43.2367088607595,43.2367088607595,43.28305489800881,43.25477358601437,9.981935274745126,9.953653962750693,10
95.0,44.136708860759505,44.136708860759505,44.21359671938591,44.1756490327327,9.961059828026805,9.923112141373593,10
97.5,45.136708860759505,45.136708860759505,45.136708860759505,45.136708860759505,10.0,10.0,10
100.0,46.03670886075951,46.03670886075951,46.06756411031605,46.05052981757442,9.98617904318509,9.969144750443462,10
103.0,46.936708860759516,46.936708860759516,46.967564110316054,46.95052981757441,9.986179043185103,9.969144750443462,10
106.0,47.836708860759494,47.836708860759494,47.90440467870318,47.86633426599071,9.970374594768785,9.932304182056313,10
109.0,48.7367088607595,48.7367088607595,48.84461602452189,48.78966536289189,9.947043497867611,9.892092836237609,10
112.0,49.53670886075951,49.53670886075951,49.62246975557424,49.57282285443576,9.963886006323747,9.914239105185274,10
115.0,50.2367088607595,50.2367088607595,50.352376631659574,50.292918541492746,9.943790319266753,9.884332229099925,10
118.0,50.93670886075949,50.93670886075949,51.09756620240352,51.03379424785748,9.90291461290201,9.839142658355968,10
122.0,51.636708860759505,51.636708860759505,51.77719021287263,51.70386153375373,9.932847327005774,9.859518647886873,10
125.0,52.336708860759494,52.336708860759494,52.455987622304896,52.38886913289084,9.947839727868654,9.880721238454598,10
128.0,52.9367088607595,52.9591309199647,53.149331976914986,53.06655150597698,9.892579413987718,9.809798943049714,10
132.0,53.636708860759505,53.636708860759505,53.811835315492225,53.726581861163574,9.910126999595931,9.82487354526728,10
136.0,54.2367088607595,54.2367088607595,54.44453902085589,54.354378779121724,9.882330081637775,9.792169839903607,10
140.0,54.9367088607595,55.02571078080614,55.224385629633765,55.11989555899368,9.90581522181246,9.801325151172378,10
145.0,55.7367088607595,55.7367088607595,55.93354496721175,55.82833325754509,9.90837560321441,9.803163893547747,10
150.0,56.2367088607595,56.2367088607595,56.51651486629603,56.38529094078856,9.851417919970942,9.720193994463472,10
155.0,56.7367088607595,56.75913091996468,57.05915372728702,56.91932040904303,9.839810510921652,9.699977192677665,10
160.0,57.2367088607595,57.2367088607595,57.51251774583496,57.36893245211859,9.867776408640907,9.724191114924537,10
165.0,57.53670886075951,57.53670886075951,57.88842135984337,57.72410752836861,9.812601332390898,9.64828750091614,10
170.0,57.836708860759494,57.85913091996468,58.20923795462887,58.0442815627544,9.814849357210278,9.649892965335809,10
175.0,58.136708860759505,58.136708860759505,58.52178864375572,58.33928490376059,9.797423956998912,9.614920217003785,10
180.0,58.336708860759494,58.336708860759494,58.728980607979814,58.54161804869374,9.795090812065752,9.60772825277968,10
185.0,58.336708860759494,58.35913091996468,58.77697785946031,58.572827304660386,9.786303615304291,9.582153060504368,10
190.0,58.43670886075949,58.43670886075949,58.83714487514123,58.625047760674995,9.811661100084493,9.59956398561826,10
195.0,58.636708860759505,58.636708860759505,59.097978771185005,58.87438847013015,9.762320390629355,9.5387300895745,10
200.0,58.9367088607595,58.981437811336725,59.4766535810999,59.23512352220987,9.746314289126857,9.504784230236822,10
206.0,59.136708860759505,59.136708860759505,59.6627869064286,59.401297805312005,9.7354110554475,9.473921954330905,10
212.0,59.03670886075951,59.03670886075951,59.570652930516324,59.30768786837796,9.72902099238155,9.466055930243186,10
218.0,58.9367088607595,58.981437811336725,59.55603663199198,59.27908560169852,9.702352209638207,9.425401179344746,10
224.0,59.136708860759505,59.136708860759505,59.716923330355904,59.42912119005056,9.707587670708946,9.419785530403601,10
230.0,59.336708860759494,59.336708860759494,59.911593873213825,59.61269747592679,9.724011384832707,9.425114987545669,10
236.0,59.2367088607595,59.28143781133672,59.94033440274924,59.61880533024509,9.662632481091634,9.341103408587486,10
240.0,59.2367088607595,59.2367088607595,59.88448497575987,59.55953547873883,9.67717338202067,9.352223884999631,10
250.0,59.136708860759505,59.136708860759505,59.83390417882631,59.4907372067943,9.645971653965205,9.302804681933196,10
258.0,58.9367088607595,58.981437811336725,59.705705675911936,59.3500017100373,9.631436101299428,9.27573213542479,10
265.0,58.9367088607595,58.959130919964686,59.72003141086386,59.34681989326395,9.612311026700738,9.239099509100825,10
272.0,59.136708860759505,59.136708860759505,59.88894430709676,59.51020550412478,9.626503356634728,9.247764553662748,10
280.0,59.03670886075951,59.05913091996471,59.836714931572736,59.44165793556552,9.617472984399186,9.222415988391973,10
290.0,58.9367088607595,58.9367088607595,59.71939134299097,59.32860520979521,9.608103650964296,9.217317517768535,10
300.0,58.9367088607595,58.9367088607595,59.71795440523227,59.31584150455826,9.620867356201245,9.218754455527232,10
307.0,58.9367088607595,58.9367088607595,59.74373714443352,59.32693787992158,9.609770980837922,9.192971716325985,10
315.0,58.9367088607595,58.9367088607595,59.69412175239017,59.29272305680866,9.64398580395084,9.242587108369335,10
325.0,58.7367088607595,58.7367088607595,59.50712942757203,59.098862351090354,9.637846509669146,9.229579433187467,10
335.0,58.53670886075951,58.53670886075951,59.338756696737,58.915261092214216,9.621447768545295,9.19795216402251,10
345.0,58.7367088607595,58.7367088607595,59.481229367636665,59.08441303617918,9.652295824580321,9.255479493122834,10
355.0,58.9367088607595,58.9367088607595,59.66351920098105,59.25893835413273,9.677770506626771,9.273189659778453,10
365.0,59.03670886075951,58.992548437617266,59.63726310813558,59.24895323668198,9.743595200935289,9.355285329481688,10
375.0,58.9367088607595,58.89254843761724,59.49908979855308,59.13535631170628,9.757192125910962,9.393458639064164,10
387.0,58.9367088607595,58.91468477857328,59.476530305692584,59.12192855110877,9.792756227464508,9.438154472880697,10
400.0,59.2367088607595,59.170806423681604,59.64285390148381,59.31799827427533,9.852808149406272,9.527952522197793,10
412.0,59.336708860759494,59.29305357923183,59.68095868309198,59.397186797025206,9.895866782206625,9.612094896139851,10
425.0,59.2367088607595,59.170806423681604,59.471994137727044,59.214594836783526,9.956211586898078,9.69881228595456,10
437.0,59.136708860759505,59.07080642368161,59.25973829658806,59.05234503840659,10.018461385275018,9.811068127093549,10
450.0,59.336708860759494,59.24945363874988,59.32125665618333,59.15914768296367,10.090305955786206,9.928196982566547,10
462.0,59.436708860759516,59.34945363874987,59.33192959892022,59.21801241986466,10.131441218885215,10.017524039829652,10
475.0,59.2367088607595,59.14945363874988,59.001378026970364,58.93757708353352,10.211876555216364,10.148075611779518,10
487.0,59.136708860759505,59.04945363874989,58.76440562927957,58.76801670976885,10.281436928981037,10.285048009470316,10
500.0,59.336708860759494,59.16090665376863,58.762251181445116,58.82776477370526,10.333141880063366,10.398655472323512,10
515.0,59.2367088607595,59.106419048727126,58.531615763112335,58.667322244565035,10.43909680416209,10.574803285614792,10
530.0,59.136708860759505,58.93999335478504,58.228341862157656,58.44074993726036,10.499243417524681,10.711651492627382,10
545.0,59.336708860759494,59.11798596499194,58.26032620729254,58.5604841324492,10.55750183254274,10.857659757699395,10
560.0,59.336708860759494,59.11798596499194,58.10507846828825,58.47095741733323,10.647028547658707,11.01290749670369,10
580.0,59.436708860759516,59.28572428899425,58.10530147546921,58.555276545981506,10.730447743012746,11.180422813525041,10
600.0,59.9367088607595,59.78572428899424,58.46835201265156,59.00238556518766,10.78333872380658,11.317372276342681,10
615.0,59.9367088607595,59.78572428899424,58.32446857040468,58.94299924592331,10.842725043070928,11.461255718589555,10
630.0,59.836708860759494,59.685724288994244,58.103735949109584,58.79763040041134,10.888093888582901,11.58198833988466,10
650.0,60.03670886075951,59.79734638095777,58.09233056473783,58.86554979320477,10.931796587752999,11.705015816219941,10
670.0,59.9367088607595,59.697346380957775,57.88882845198386,58.730034339986496,10.96731204097128,11.808517928973913,10
690.0,59.836708860759494,59.685724288994244,57.77327545113,58.68989336863947,10.995830920354777,11.912448837864247,10
710.0,59.636708860759505,59.417985964991935,57.400651057677614,58.39945575291629,11.018530212075646,12.017334907314321,10
730.0,59.7367088607595,59.517985964991944,57.411824782421256,58.4805231990667,11.037462765925241,12.106161182570688,10
750.0,59.636708860759505,59.439993354785024,57.251268670688795,58.37627426200995,11.063719092775074,12.188724684096229,10
775.0,59.136708860759505,59.00641904872712,56.762157756056105,57.931555184122324,11.074863864604794,12.244261292671013,10
800.0,59.336708860759494,59.228484981855125,56.95907213263343,58.177773683256355,11.05071129859877,12.269412849221695,10
825.0,59.9367088607595,59.80641904872714,57.51090621378706,58.75890965811109,11.047509390616057,12.295512834940084,10
850.0,59.7367088607595,59.64945363874988,57.348686041300475,58.63136623048111,11.01808740826877,12.300767597449408,10
875.0,59.436708860759516,59.260906653768636,56.96150325979068,58.256026152242576,11.00488050152606,12.299403393977954,10
900.0,59.2367088607595,59.14945363874988,56.87492529040539,58.182555993808414,10.966897644941469,12.27452834834449,10
925.0,59.336708860759494,59.1822033399583,56.920118279949214,58.230408116494594,10.951795223463705,12.262085060009085,10
950.0,58.9367088607595,58.87080642368161,56.63432489571745,57.94999866802582,10.920807755655787,12.236481527964159,10
975.0,58.53670886075951,58.49305357923185,56.337510813852724,57.63099933366558,10.86205424556627,12.155542765379124,10
1000.0,58.7367088607595,58.62596727607012,56.52049141876329,57.81670271370327,10.809264562366849,12.105475857306828,10
1030.0,58.53670886075951,58.49254843761725,56.436336028128316,57.706955712302566,10.785592725314686,12.056212409488936,10
1060.0,58.43670886075949,58.41468477857327,56.475006177586216,57.7168807777013,10.697804000871969,11.939678600987051,10
1090.0,58.136708860759505,58.07080642368161,56.160872784570934,57.370561692310524,10.700244731371086,11.909933639110676,10
1120.0,57.7367088607595,57.71468477857328,55.859765587497655,57.054034042957404,10.660650735615874,11.854919191075624,10
1150.0,58.2367088607595,58.21468477857328,56.45614660002142,57.62895606940071,10.585728709172571,11.75853817855186,10
1180.0,57.9367088607595,57.91468477857328,56.18693499364664,57.322270910432074,10.592413868141207,11.727749784926644,10
1220.0,57.636708860759505,57.592548437617275,55.891754271805986,57.01071289013263,10.581835547484644,11.700794165811288,10
1250.0,57.2367088607595,57.17080642368162,55.45873630510095,56.556437644696125,10.614368778985494,11.71207011858067,10
1280.0,56.53670886075951,56.4708064236816,54.7282598627125,55.81322513446202,10.657581289219578,11.742546560969103,10
1320.0,56.4367088607595,56.260906653768636,54.455654631664935,55.547122754227196,10.71378389954144,11.805252022103701,10
1360.0,57.2367088607595,57.06090665376865,55.15907417050857,56.27137482580947,10.78953182795918,11.90183248326008,10
1400.0,58.636708860759505,58.417985964991935,56.404809942630685,57.537595097069406,10.880390867922529,12.01317602236125,10
1450.0,58.9367088607595,58.69734638095776,56.5315497099483,57.69381834469953,11.003528036258231,12.16579667100946,10
1500.0,58.53670886075951,58.29734638095777,56.056581225395256,57.25055341654686,11.046792964410912,12.240765155562514,10
1550.0,58.2367088607595,57.977081400779845,55.64735938419829,56.85510218635073,11.121979214429118,12.329722016581556,10
1600.0,58.636708860759505,58.397346380957764,56.05415480647823,57.2623679371842,11.134978443773562,12.343191574479533,10
1650.0,58.336708860759494,58.165404878134005,55.773031529411604,56.985514596072655,11.17989028206135,12.392373348722401,10
1700.0,58.136708860759505,57.877081400779836,55.52703327757845,56.72988028670893,11.14720111407091,12.35004812320139,10
1750.0,57.9367088607595,57.71945834202972,55.491887266569215,56.63885337036691,11.080604971662808,12.227571075460503,10
1800.0,58.336708860759494,58.18572428899423,55.964440200321214,57.08247380268053,11.103250486313698,12.221284088673016,10
1850.0,58.636708860759505,58.43999335478504,56.330147141663566,57.415155372566865,11.024837982218173,12.109846213121472,10
1900.0,58.43670886075949,58.21945834202972,56.055002777564404,57.146814131232524,11.072644210797193,12.164455564465314,10
1950.0,57.9367088607595,57.765404878134,55.64318994823315,56.68280574495875,11.08259913317525,12.12221492990085,10
2000.0,58.136708860759505,57.835265709256866,55.558342439765845,56.63426210506319,11.201003604193673,12.276923269491022,10
2060.0,57.7367088607595,57.41563560840786,55.03643587058418,56.15322991442233,11.262405693985528,12.379199737823683,10
2120.0,56.836708860759494,56.34928404767768,53.96492107124889,54.991405773156934,11.357878274520743,12.38436297642879,10
2180.0,55.336708860759494,54.64793279759899,52.1631655228035,53.06911429037985,11.57881850721914,12.484767274795487,10
2240.0,54.436708860759516,53.59257959748705,50.37387751913513,51.405500244641864,12.187079352845188,13.218702078351924,10
2300.0,54.336708860759494,53.341221709675786,49.159353256122564,50.55645697756807,12.784764732107718,14.181868453553221,10
2360.0,55.2367088607595,54.32738580978391,48.96350325258445,51.06516482579874,13.262220983985173,15.36388255719946,10
2400.0,55.836708860759494,54.91314806912657,49.054620627080745,51.448594062572134,13.464554006554437,15.858527442045826,10
2500.0,56.7367088607595,55.82738580978391,49.46986092781555,52.20809335423731,13.6192924555466,16.35752488196836,10
2580.0,56.836708860759494,55.927385809783935,49.29045453361734,52.1966924667773,13.730693343006635,16.636931276166592,10
2650.0,57.336708860759494,56.501125446410434,49.52447142191442,52.6795283427389,13.821597103671536,16.976654024496014,10
2720.0,57.336708860759494,56.51382213409922,49.21141023355151,52.60024368791034,13.913578446188879,17.30241190054771,10
