Freq,On Axis,Listening Window,Sound Power,Early Reflections,Early Reflections DI,Sound Power DI,DI offset
22.4,-7.700000000000003,-4.49422768171037,-1.906448542038234,-2.5986207341942276,28.104393052483857,27.412220860327864,30
23.0,-5.59999999999998,-1.380369986611342,0.4571186919474002,0.010605649428427455,28.60902436396023,28.162511321441258,30
23.6,-3.200000000000003,4.150517163457877,5.139935902753663,5.216771869080375,28.933745294377502,29.010581260704214,30
24.0,0.7999999999999972,9.058276396525784,10.14397704039014,10.252171130902454,28.80610526562333,28.914299356135643,30
25.0,4.200000000000003,11.076427276485433,12.649080690867763,12.520915431796467,28.555511844688965,28.42734658561767,30
25.8,6.90000000000002,12.400839784735481,14.593976122645998,14.131373284075366,28.269466500660116,27.806863662089484,30
26.5,9.299999999999997,13.484814897071843,17.41859160639335,15.935044519919856,27.549770377151987,26.066223290678494,30
27.2,10.700000000000031,13.968018927542417,19.130107064656684,17.25032139650112,26.717697531041296,24.837911862885733,30
28.0,11.199999999999974,14.501574807540393,18.793892812593114,17.323306591342984,27.17826821619741,25.70768199494728,30
29.0,10.90000000000002,15.04230220771312,18.916995037327652,17.664940086582035,27.377362121131085,26.12530717038547,30
30.0,9.999999999999986,14.381433559573239,17.966417119280507,16.90638427707607,27.475049282497167,26.41501644029273,30
30.7,12.200000000000003,13.922849306378154,17.28398794659823,16.56441802556982,27.358431280808333,26.638861359779924,30
31.5,12.999999999999986,13.902999494579475,17.224343549398313,16.688843830977177,27.2141556636023,26.678655945181163,30
32.5,14.90000000000002,15.073939641867454,17.808475885190077,17.391794547604192,27.682145094263262,27.265463756677377,30
33.5,21.89999999999999,21.563614616536782,22.459562663772388,22.28618610751751,29.277428509019273,29.104051952764394,30
34.5,25.89999999999999,25.538997971821672,25.751096710352,25.768661758628966,29.770336213192707,29.78790126146967,30
35.5,29.799999999999997,29.35198587715915,29.24739556350373,29.372954146578408,29.979031730580743,30.10459031365542,30
36.5,36.499999999999986,35.99321590590772,35.84810087126,36.0238863860569,29.969329519850817,30.145115034647716,30
37.5,40.60000000000001,40.00708462069802,39.85351157949508,40.02492369697653,29.982160923721494,30.153573041202947,30
38.7,44.3,43.69635342090167,43.48413413446498,43.66762687689736,30.028726544004314,30.212219286436692,30
40.0,48.39999999999999,48.04285420937866,47.74687266083258,47.93514544253732,30.10770876684134,30.29598154854608,30
41.2,51.2,51.04960319680366,50.64846751977116,50.836979274165245,30.212623922638414,30.4011356770325,30
42.5,54.39999999999999,54.29156646309319,53.67320550695577,53.93538813041643,30.356178332676762,30.618360956137423,30
43.7,57.3,57.09203842311864,56.25155955116661,56.59617212944174,30.495866293676897,30.84047887195203,30
45.0,59.60000000000001,59.424458144201154,58.51292340814476,58.867609434108005,30.55684871009315,30.911534736056396,30
46.2,62.000000000000014,61.75815956841234,60.87817859672809,61.20798620864501,30.550173359767328,30.879980971684247,30
47.5,63.8,63.546801779105124,62.74218421879259,63.03705835074007,30.509743428365056,30.804617560312536,30
48.7,65.2,64.9941489027354,64.31924095505266,64.59831221357636,30.39583668915904,30.67490794768274,30
50.0,66.4,66.162307427058,65.60332668181462,65.88520458250181,30.277102844556183,30.558980745243375,30
51.5,67.6,67.40784168540117,66.34033354813907,66.88253854823532,30.52530313716585,31.067508137262095,30
53.0,68.7,68.52750536682392,66.80363094891244,67.66264249063586,30.864862876188056,31.723874417911475,30
54.5,69.7,69.48615414027434,67.01541716620525,68.32641519081643,31.159738949457903,32.470736974069084,30
56.0,70.60000000000001,70.31497616883327,66.79007671661068,68.8214475359562,31.493528632877073,33.524899452222584,30
58.0,71.6,71.29978056816454,67.63715300513931,69.8351321224611,31.464648445703432,33.662627563025225,30
60.0,72.39999999999999,72.25994467849958,68.98129892390982,70.97696345518915,31.28298122331043,33.27864575458976,30
61.5,73.2,73.21328466703153,70.3771704787447,72.07802430046586,31.135260366565674,32.83611418828683,30
63.0,74.0,73.97900455186677,71.40223788198897,72.91342686349196,31.065577688374802,32.5767666698778,30
65.0,74.8,74.68951489542683,72.26318992304437,73.67179228265253,31.017722612774293,32.42632497238246,30
67.0,75.4,75.35660314969003,73.0078970917807,74.35374932182295,31.002853827867085,32.348706057909325,30
69.0,76.1,76.05660314969002,73.75699477747334,75.06152211971546,30.995081029974557,32.29960837221668,30
71.0,76.8,76.7454944791988,74.47409982555796,75.72925856696955,31.01623591222925,32.27139465364084,30
73.0,77.39999999999999,77.36768347817136,75.20844349457818,76.39903104166665,30.968652436504712,32.15923998359318,30
75.0,78.0,77.95634471847235,75.91097637645086,77.03163800788731,30.924706710585042,32.04536834202149,30
77.5,78.6,78.5340975629221,76.6014972060916,77.63646852446459,30.89762903845751,31.932600356830505,30
80.0,79.0,78.97797591781378,77.23135163153908,78.17665690248695,30.801319015326825,31.746624286274695,30
82.5,79.50000000000001,79.42293110248063,77.79041507595636,78.65803119300878,30.76489990947185,31.63251602652427,30
85.0,79.89999999999999,79.82293110248064,78.31949426760802,79.11255212410661,30.710378978374024,31.503436834872616,30
87.5,80.2,80.18925841531062,78.79502566738309,79.51741652921413,30.671841886096487,31.394232747927532,30
90.0,80.5,80.48925841531062,79.21735118229239,79.86586756622376,30.62339084908686,31.271907233018226,30
92.5,80.8,80.70051167804047,79.54398151862326,80.11214108279076,30.588370595249714,31.156530159417215,30
95.0,80.90000000000002,80.82293110248064,79.78978340833747,80.28413096540736,30.53880013707328,31.033147694143167,30
97.5,80.90000000000002,80.88925841531064,80.01943207245412,80.42394974119611,30.465308674114524,30.869826342856513,30
100.0,80.90000000000002,80.88925841531064,80.17636225147457,80.49162597677771,30.397632438532924,30.712896163836064,30
103.0,80.8,80.77823306508388,80.28808637769532,80.49254316104144,30.285689904042442,30.49014668738856,30
106.0,80.60000000000001,80.61122549985842,80.37631999311104,80.45506107804498,30.156164421813443,30.23490550674738,30
109.0,80.5,80.50025584655587,80.47190716453133,80.4519063805239,30.04834946603198,30.028348682024543,30
112.0,80.4,80.41122549985843,80.58699622257643,80.4549840468225,29.95624145303593,29.824229277282,30
115.0,80.3,80.31122549985841,80.67035682153146,80.43628515065696,29.874940349201452,29.640868678326953,30
118.0,80.3,80.20051167804048,80.51668091499916,80.25486726859918,29.9456444094413,29.68383076304133,30
122.0,80.2,80.09104775809432,80.14119420007937,79.96968721031486,30.12136054777946,29.94985355801495,30
125.0,80.3,80.06090170960877,79.58759397868789,79.6234758144579,30.437425895150866,30.47330773092088,30
128.0,80.5,80.20761365943238,79.11800968737471,79.45929246510876,30.748321194323623,31.089603972057674,30
132.0,80.7,80.40761365943239,78.71440797238914,79.3898750832849,31.01773857614748,31.693205687043246,30
136.0,80.90000000000002,80.62948833002334,78.37955228803777,79.40612441158574,31.2233639184376,32.24993604198556,30
140.0,80.99999999999999,80.83815288443361,78.22003149817462,79.50507698544398,31.333075898989634,32.61812138625899,30
145.0,81.1,80.9699738260637,78.08898769617551,79.6082871167358,31.3616867093279,32.880986129888186,30
150.0,81.1,81.10076749445562,78.22216764375555,79.8344793626155,31.266288131840128,32.87859985070007,30
155.0,80.99999999999999,81.21224034685126,78.94218303585988,80.27564504002656,30.9365953068247,32.270057310991376,30
160.0,80.90000000000002,81.29436967279192,79.92890094213678,80.75619685249089,30.53817282030103,31.365468730655138,30
165.0,80.8,81.26272788875099,80.63554620584254,81.04472945233846,30.21799843641253,30.627181682908443,30
170.0,80.8,81.14906806933031,81.02854931165008,81.13867582349067,30.01039224583964,30.12051875768023,30
175.0,80.8,80.92293110248065,80.98464543662647,80.92180921819796,30.001121884282682,29.93828566585418,30
180.0,80.60000000000001,80.41529034765105,80.28778989320139,80.15903320931352,30.25625713833753,30.12750045444966,30
185.0,80.4,79.82346796617618,78.89995204575432,78.96445821782592,30.85900974835026,30.923515920421863,30
190.0,79.89999999999999,79.16183436815179,77.18631089088343,77.67034186017477,31.491492507977014,31.975523477268354,30
195.0,79.3,78.5544437518953,75.6468690573665,76.62061899416922,31.933824757726086,32.907574694528805,30
200.0,79.0,78.22465474872199,74.76711162172238,76.08781924152352,32.13683550719847,33.45754312699961,30
206.0,79.2,78.6727674735159,74.416061712873,76.40900634431298,32.26376112920292,34.2567057606429,30
212.0,79.89999999999999,79.75837672536983,75.47507946524716,77.87827833400394,31.88009839136589,34.283297260122666,30
218.0,80.4,80.51173585711585,76.99708179764913,79.05766671099941,31.45406914611644,33.51465405946672,30
224.0,80.5,80.76895464854633,78.00364848913787,79.6669204075461,31.102034241000226,32.76530615940845,30
230.0,80.1,80.42803171641552,78.1972811481971,79.55997626096008,30.868055455455433,32.23075056821841,30
236.0,79.4,79.59102441106673,77.57939575590878,78.73790815179905,30.85311625926768,32.01162865515795,30
240.0,78.9,78.8130058166541,76.83009457353822,77.82680172688562,30.986204089768478,31.98291124311588,30
250.0,79.1,78.52773569154539,76.00282629659334,77.0052206824753,31.52251500907009,32.52490939495205,30
258.0,79.50000000000001,78.85903404627722,75.07216026597239,76.6029925951441,32.256041451133115,33.78687378030483,30
265.0,79.8,79.30082358656911,74.67902757848665,76.8110315565532,32.489792030015906,34.621796008082455,30
272.0,79.8,79.47548435621877,74.78595045489948,77.12013154929839,32.35535280692038,34.689533901319294,30
280.0,79.7,79.56945253554453,75.15197667821765,77.4572476626169,32.112204872927634,34.41747585732688,30
290.0,79.7,79.69002197288079,75.7435085100008,77.88048012379484,31.809541849085946,33.94651346287999,30
300.0,79.8,79.82344022102434,76.34194741404588,78.23591406925293,31.587526151771414,33.481492806978466,30
307.0,79.8,79.84574189677525,76.64780276415816,78.41672214810636,31.429019748668892,33.197939132617094,30
315.0,79.7,79.7784843442585,76.81701482891951,78.47958708514197,31.29889725911653,32.96146951533899,30
325.0,79.59999999999998,79.39281329520847,76.57669769268124,78.12194885402883,31.27086444117964,32.81611560252723,30
335.0,79.50000000000001,79.10279053944193,75.86519549706212,77.52866870819733,31.574121831244597,33.23759504237981,30
345.0,79.7,79.28362699442415,75.76890353942204,77.51945391859425,31.764173075829902,33.51472345500211,30
355.0,80.2,79.80054309227357,75.95161121295632,77.81663980672883,31.98390328554474,33.84893187931725,30
365.0,80.60000000000001,80.18848397296759,75.86205038603957,77.91432092702586,32.274163045941734,34.32643358692802,30
375.0,80.5,80.14074366935327,75.41457075929011,77.68748312406642,32.45326054528685,34.726172910063156,30
387.0,80.4,80.13610486644205,75.3136170090474,77.6460844783457,32.490020388096355,34.82248785739465,30
400.0,80.7,80.44490375958067,75.56559002926402,77.87839444934073,32.56650931023994,34.87931373031665,30
412.0,81.3,80.89649794376076,75.72392963917265,78.20218191348128,32.69431603027948,35.17256830458811,30
425.0,81.8,81.40881484048309,76.17929491387272,78.68639234824575,32.72242249223734,35.229519926610365,30
437.0,82.00000000000001,81.42485424341983,76.24488700636282,78.69130047824773,32.733553765172104,35.179967237057014,30
450.0,82.09999999999998,81.48294773760638,76.25529052023168,78.71528329690922,32.76766444069716,35.2276572173747,30
462.0,82.09999999999998,81.54614771866657,76.40386064057351,78.84603216463299,32.70011555403359,35.14228707809306,30
475.0,82.00000000000001,81.59593914575504,76.39881356711034,78.85939913293373,32.73654001282131,35.1971255786447,30
487.0,82.2,81.69039834390773,76.25591588310728,78.78407952968242,32.906318814225315,35.43448246080045,30
500.0,82.2,81.7270811394491,76.0684243451351,78.72137429400695,33.00570684544215,35.658656794314,30
515.0,82.39999999999999,81.88823148104746,75.83872154355731,78.70571911372615,33.18251236732131,36.04950993749014,30
530.0,82.6,82.05771545894429,75.85224493753388,78.77407594637796,33.283639512566324,36.205470521410405,30
545.0,82.2,81.63986507966999,75.56165206198425,78.50804254037426,33.131822539295726,36.07821301768574,30
560.0,81.8,81.20843998758399,75.16301811506227,78.14635511421486,33.06208487336913,36.045421872521715,30
580.0,81.6,81.12419768807293,75.00535512534032,78.06512463004465,33.059073058028275,36.11884256273261,30
600.0,81.9,81.51404837466445,75.69606004858441,78.68205329543615,32.83199507922831,35.81798832608004,30
615.0,81.5,81.05093065981593,75.60767536791268,78.55666305838572,32.49426760143021,35.443255291903256,30
630.0,80.4,79.99101557658388,74.6862822101636,77.70927672126165,32.28173885532223,35.30473336642028,30
650.0,79.2,78.87492023181417,73.75300154874684,76.7983614863927,32.07655874542148,35.121918683067335,30
670.0,79.0,78.7741567061053,73.78723226252528,76.85998326446641,31.914173441638894,34.98692444358002,30
690.0,79.4,79.1183135303048,74.1661286900586,77.3549474787776,31.7633660515272,34.952184840246204,30
710.0,79.8,79.45301662750653,74.4081177536393,77.74592865067281,31.70708797683372,35.044898873867226,30
730.0,79.8,79.28788121162684,74.15407275807503,77.61424749878672,31.673633712840115,35.13380845355181,30
750.0,79.3,78.82698182507795,73.50387219736858,77.15789825431551,31.66908357076244,35.32310962770937,30
775.0,79.3,78.83744790287606,73.06912554942038,76.9200274713291,31.917420431546958,35.76832235345569,30
800.0,79.1,78.56459774427522,72.43928971436887,76.39541656474053,32.16918117953469,36.12530802990635,30
825.0,79.4,78.89265133494249,72.75344630243313,76.63690004048514,32.25575129445734,36.13920503250935,30
850.0,79.59999999999998,79.10200612677005,72.7372973478791,76.55844026916928,32.54356585760077,36.36470877889094,30
875.0,79.50000000000001,78.93283241320971,72.29907192427832,76.10608023596977,32.82675217723994,36.63376048893139,30
900.0,79.50000000000001,78.8294764941004,72.06895186010222,75.77871947473486,33.05075701936555,36.76052463399819,30
925.0,78.9,78.25182323591291,71.43168823370603,75.14466532174792,33.107157914164986,36.82013500220688,30
950.0,78.3,77.63638774134651,70.70364896571753,74.52999549362566,33.10639224772085,36.93273877562898,30
975.0,77.9,77.15246416563984,70.27098266129495,74.01581242826097,33.13665173737887,36.88148150434489,30
1000.0,77.8,77.01116047129658,70.5327408503398,74.21356286775399,32.797597603542584,36.47841962095677,30
1030.0,77.8,76.92014485191127,70.45461892926457,74.27592764845782,32.64421720345345,36.465525922646705,30
1060.0,77.9,77.37210395870933,70.91042658299826,74.80265758486769,32.56944637384164,36.461677375711076,30
1090.0,78.0,77.58004963859868,71.34462903241833,75.108364429885,32.47168520871368,36.235420606180355,30
1120.0,78.0,77.28141137839205,70.85847981835217,74.75033189950365,32.5310794788884,36.422931560039885,30
1150.0,78.40000000000002,77.42770136212643,70.86205547901358,74.93641844889376,32.491282913232666,36.56564588311285,30
1180.0,78.10000000000001,77.29103420969759,70.89342980518157,74.9275602667939,32.36347394290368,36.39760440451602,30
1220.0,76.7,76.22193035863087,70.36111360789421,74.25116163217764,31.97076872645323,35.86081675073666,30
1250.0,74.89999999999999,74.85768154485764,69.27022988427446,73.10369105633929,31.753990488518355,35.587451660583184,30
1280.0,75.0,75.36711323922988,69.45847480723599,73.35232238861502,32.01479085061486,35.90863843199389,30
1320.0,76.2,76.11847094958411,69.75718001750816,73.7868046353806,32.3316663142035,36.361290932075946,30
1360.0,76.7,76.22789615741242,69.02928494861635,73.0454047088511,33.18249144856132,37.198611208796066,30
1400.0,77.7,76.84431546980694,68.73602643491078,72.76223221427277,34.08208325553417,38.10828903489616,30
1450.0,77.8,76.95954616702757,68.42046325510896,72.44963556582685,34.509910601200716,38.53908291191861,30
1500.0,77.7,76.71350501758599,68.28334281388517,72.1247805390919,34.588724478494086,38.43016220370082,30
1550.0,77.5,76.37588162449342,67.81269348735533,71.69562809394823,34.68025353054519,38.563188137138084,30
1600.0,77.7,76.82235260889105,67.96228252668759,72.0728057506676,34.749546858223454,38.860070082203464,30
1650.0,78.6,77.49390361037872,68.48868581618478,72.81378120964969,34.68012240072903,39.00521779419394,30
1700.0,79.4,78.01151477231387,68.84941615518353,73.37165189315736,34.63986287915651,39.16209861713034,30
1750.0,79.89999999999999,78.52506664542533,69.20194316972885,73.87383483924722,34.6512318061781,39.32312347569648,30
1800.0,80.1,78.86454056082883,69.4912182752838,74.2029799638686,34.66156059696023,39.37332228554503,30
1850.0,80.3,78.9521877002475,69.34642195841124,74.19375456273863,34.758433137508874,39.605765741836265,30
1900.0,80.4,79.00638263237376,69.41973373119362,74.4493710831486,34.55701154922515,39.58664890118014,30
1950.0,80.8,79.30323095384712,69.85923304359702,74.8775180215235,34.42571293232362,39.443997910250104,30
2000.0,81.3,79.73492286276006,70.10015752379888,75.08090597630147,34.65401688645859,39.634765338961174,30
2060.0,81.5,79.85426113934147,70.37431180898739,75.31430302410722,34.539958115234256,39.47994933035409,30
2120.0,81.3,79.73011648284871,70.42045777847892,75.22575360419494,34.50436287865378,39.309658704369795,30
2180.0,81.4,79.88069442829129,70.93647636571455,75.52562548619277,34.35506894209853,38.94421806257674,30
2240.0,81.7,80.2000304345996,71.29094797644308,75.86482444250727,34.33520599209233,38.90908245815652,30
2300.0,82.00000000000001,80.58203934378959,71.99380197521872,76.48316342913354,34.09887591465605,38.58823736857087,30
2360.0,82.39999999999999,80.7164919212402,72.16299311575548,76.50564080763729,34.210851113602914,38.55349880548472,30
2400.0,82.09999999999998,80.52501332493127,71.95168929034887,76.19130823326262,34.33370509166865,38.5733240345824,30
2500.0,81.6,80.04903330705456,71.89481980349375,76.09245181084766,33.956581496206894,38.15421350356081,30
2580.0,81.1,79.50808838698539,71.27128229204216,75.56805360698199,33.9400347800034,38.23680609494323,30
2650.0,80.7,79.36315310460616,71.42234830569383,75.49948505146732,33.86366805313884,37.940804798912325,30
2720.0,80.8,79.60915267573307,71.45545716876984,75.6265289783767,33.982623697356374,38.15369550696323,30
2800.0,81.1,79.837611683881,71.60902831534382,75.90337273019487,33.93423895368612,38.22858336853717,30
2900.0,81.2,79.61861541595994,71.16575578822619,75.44483668337026,34.17377873258968,38.452859627733744,30
3000.0,81.1,79.86558838558393,71.37542425609153,75.63013598551055,34.235452400073385,38.4901641294924,30
3070.0,81.2,79.89976265128419,71.20270578587261,75.51182884752302,34.38793380376117,38.69705686541158,30
3150.0,81.4,80.02356877808172,71.20841675970192,75.47900669390712,34.5445620841746,38.815152018379806,30
3250.0,81.5,79.8920032650336,71.13242056593394,75.2944812363124,34.5975220287212,38.75958269909965,30
3350.0,81.7,80.22022483205309,71.45753779934495,75.50860859462958,34.71161623742351,38.76268703270814,30
3450.0,81.7,79.79649419196002,70.70522710213508,74.7134305034141,35.08306368854592,39.09126708982494,30
3550.0,81.5,79.76446548497658,70.58184381621483,74.56838769642206,35.19607778855452,39.182621668761755,30
3650.0,81.7,80.033298410862,71.65767502142646,75.16271081304485,34.87058759781715,38.375623389435546,30
3750.0,81.3,80.43209645272799,71.11838576601373,75.11181091800692,35.320285534721066,39.31371068671426,30
3870.0,80.7,79.62942031968994,70.98026944410655,74.7036160675942,34.925804252095745,38.64915087558339,30
4000.0,80.8,80.99121056973254,72.13867677804666,75.95094137644517,35.04026919328737,38.852533791685886,30
4120.0,80.60000000000001,80.33583766374981,71.04469381329791,75.13667635776457,35.19916130598524,39.2911438504519,30
