Freq "Sound Power"
22.4 -1.4710055040635837
23.0 0.8925617299220505
23.6 5.575378940728314
24.0 10.579420078364791
25.0 13.084523728842413
25.8 15.029419160620648
26.5 17.854034644368
27.2 19.565550102631335
28.0 19.229335850567765
29.0 19.352438075302302
30.0 18.401860157255157
30.7 17.71943098457288
31.5 17.659786587372963
32.5 18.243918923164728
33.5 22.89500570174704
34.5 26.186539748326652
35.5 29.68283860147838
36.5 36.28354390923465
37.5 40.28895461746973
38.7 43.91957717243963
40.0 48.18231569880723
41.2 51.08391055774581
42.5 54.10864854493042
43.7 56.68700258914126
45.0 58.94836644611941
46.2 61.31362163470274
47.5 63.17762725676724
48.7 64.75468399302731
50.0 66.03876971978927
51.5 66.77577658611372
53.0 67.23907398688709
54.5 67.4508602041799
56.0 67.22551975458533
58.0 68.07259604311396
60.0 69.41674196188447
61.5 70.81261351671935
63.0 71.83768091996362
65.0 72.69863296101902
67.0 73.44334012975536
69.0 74.19243781544799
71.0 74.90954286353261
73.0 75.64388653255283
75.0 76.34641941442551
77.5 77.03694024406624
80.0 77.66679466951373
82.5 78.22585811393101
85.0 78.75493730558267
87.5 79.23046870535774
90.0 79.65279422026704
92.5 79.9794245565979
95.0 80.22522644631212
97.5 80.45487511042877
100.0 80.61180528944922
103.0 80.72352941566997
106.0 80.81176303108569
109.0 80.90735020250598
112.0 81.02243926055108
115.0 81.1057998595061
118.0 80.9521239529738
122.0 80.57663723805402
125.0 80.02303701666254
128.0 79.55345272534936
132.0 79.14985101036379
136.0 78.81499532601242
140.0 78.65547453614927
145.0 78.52443073415016
150.0 78.6576106817302
155.0 79.37762607383453
160.0 80.36434398011143
165.0 81.0709892438172
170.0 81.46399234962473
175.0 81.42008847460112
180.0 80.72323293117604
185.0 79.33539508372897
190.0 77.62175392885808
195.0 76.08231209534115
200.0 75.20255465969703
206.0 74.85150475084765
212.0 75.91052250322181
218.0 77.43252483562378
224.0 78.43909152711252
230.0 78.63272418617176
236.0 78.01483879388343
240.0 77.26553761151287
250.0 76.43826933456799
258.0 75.50760330394704
265.0 75.1144706164613
272.0 75.22139349287413
280.0 75.5874197161923
290.0 76.17895154797544
300.0 76.77739045202053
307.0 77.08324580213281
315.0 77.25245786689416
325.0 77.01214073065589
335.0 76.30063853503677
345.0 76.20434657739669
355.0 76.38705425093097
365.0 76.29749342401422
375.0 75.85001379726477
387.0 75.74906004702206
400.0 76.00103306723867
412.0 76.1593726771473
425.0 76.61473795184737
437.0 76.68033004433747
450.0 76.69073355820633
462.0 76.83930367854816
475.0 76.83425660508499
487.0 76.69135892108193
500.0 76.50386738310975
515.0 76.27416458153196
530.0 76.28768797550853
545.0 75.9970950999589
560.0 75.59846115303692
580.0 75.44079816331497
600.0 76.13150308655906
615.0 76.04311840588733
630.0 75.12172524813825
650.0 74.18844458672149
670.0 74.22267530049993
690.0 74.60157172803325
710.0 74.84356079161395
730.0 74.58951579604968
750.0 73.93931523534323
775.0 73.50456858739503
800.0 72.87473275234352
825.0 73.18888934040778
850.0 73.17274038585376
875.0 72.73451496225297
900.0 72.50439489807687
925.0 71.86713127168068
950.0 71.13909200369218
975.0 70.7064256992696
1000.0 70.96818388831446
1030.0 70.89006196723922
1060.0 71.3458696209729
1090.0 71.78007207039298
1120.0 71.29392285632682
1150.0 71.29749851698823
1180.0 71.32887284315622
1220.0 70.79655664586886
1250.0 69.70567292224911
1280.0 69.89391784521064
1320.0 70.19262305548281
1360.0 69.464727986591
1400.0 69.17146947288543
1450.0 68.8559062930836
1500.0 68.71878585185982
1550.0 68.24813652532998
1600.0 68.39772556466224
1650.0 68.92412885415943
1700.0 69.28485919315818
1750.0 69.6373862077035
1800.0 69.92666131325845
1850.0 69.78186499638589
1900.0 69.85517676916827
1950.0 70.29467608157167
2000.0 70.53560056177353
2060.0 70.80975484696204
2120.0 70.85590081645357
2180.0 71.3719194036892
2240.0 71.72639101441773
2300.0 72.42924501319337
2360.0 72.59843615373013
2400.0 72.38713232832352
2500.0 72.3302628414684
2580.0 71.70672533001681
2650.0 71.85779134366848
2720.0 71.89090020674449
2800.0 72.04447135331847
2900.0 71.60119882620084
3000.0 71.81086729406618
3070.0 71.63814882384726
3150.0 71.64385979767657
3250.0 71.56786360390859
3350.0 71.8929808373196
3450.0 71.14067014010973
3550.0 71.01728685418948
3650.0 72.0931180594011
3750.0 71.55382880398838
3870.0 71.4157124820812
4000.0 72.57411981602131
4120.0 71.48013685127256
4250.0 72.49861913925157
4370.0 72.60772265531945
4500.0 72.86068309770944
4620.0 73.04446919614736
4750.0 72.91302747317245
4870.0 72.69543450215129
5000.0 72.68001329692356
5150.0 72.48086074430297
5300.0 72.30864640415334
5450.0 70.95448566991769
5600.0 70.71771672654901
5800.0 71.13073510649895
6000.0 71.57939029086833
6150.0 71.65372057521844
6300.0 72.02510414208054
6500.0 72.62241739545912
6700.0 72.87214231015872
6900.0 73.22491642174273
7100.0 72.89623263455972
7300.0 72.59479325439861
7500.0 72.40395912783207
7750.0 72.81788823553194
8000.0 73.23826100042446
8250.0 73.45199121002493
8500.0 73.15237905177136
8750.0 72.55102051105688
9000.0 72.53415299972765
9250.0 72.97806757483235
9500.0 73.48036634557585
9750.0 73.30677783867307
10000.0 73.73843519914266
10300.0 74.4283337290131
10600.0 74.32826126470019
10900.0 73.75880838272363
11200.0 74.12463461596145
11500.0 74.91982324808355
11800.0 76.91520079448048
12200.0 75.53651091345775
12500.0 74.19349106191541
12800.0 75.38771205191858
13200.0 76.19418920447491
13600.0 76.58391934148136
14000.0 74.48517044563377
14500.0 73.91479809150732
15000.0 75.40166074161205
15500.0 74.46399630300454
16000.0 74.2906140079661
16500.0 70.2704820912223
17000.0 72.50350125942161
17500.0 73.7527439314688
18000.0 67.89418267275421
18500.0 63.709625866040696
19000.0 62.749632341095904
19500.0 60.21800133355919
