Freq,On Axis,Listening Window,Sound Power,Early Reflections,Early Reflections DI,Sound Power DI,DI offset
20.5078,56.891922614201675,56.56785232535465,56.534471748375566,56.373937021434514,40.193915303920136,40.033380576979084,40
23.4375,59.94832261420167,59.70871279354343,61.85916108833614,60.74264324070235,38.96606955284108,37.84955170520729,40
26.3672,63.74062261420168,63.620302925695924,66.2092495245967,64.97675391640779,38.64354900928814,37.411053401099224,40
29.2969,67.91652261420168,67.91192620444653,70.49006356177138,69.32195406709366,38.58997213735287,37.42186264267515,40
32.2266,71.42252261420168,71.45468019294125,73.55185117824063,72.59905614748884,38.855624045452416,37.90282901470063,40
35.1563,74.06942261420168,74.11085870991634,75.77719214149352,75.01820124246807,39.09265746744828,38.33366656842283,40
38.0859,75.93282261420168,75.97440469074083,77.31904273754789,76.70858826669033,39.2658164240505,38.65536195319294,40
41.0156,77.33002261420168,77.36808932612246,78.44383861739657,77.95812694945177,39.40996237667069,38.92425070872589,40
43.9453,78.40082261420169,78.43622280076083,79.34515083115288,78.94009626668876,39.496126534072076,39.09107196960795,40
46.875,79.40302261420169,79.43569322466469,80.20615073358907,79.86845083209876,39.56724239256593,39.22954249107562,40
49.8047,80.33602261420168,80.36683159091051,81.04764062582576,80.75499799015428,39.61183360075623,39.31919096508474,40
52.7344,81.32802261420169,81.35462016829472,81.90663755545496,81.67704438622873,39.677575782065986,39.44798261283975,40
55.6641,82.17902261420168,82.20250186956716,82.66467995764846,82.47985352859244,39.722648340974715,39.5378219119187,40
58.5938,82.97102261420169,82.99209253150718,83.38579661336786,83.23477377799041,39.75731875351677,39.606295918139324,40
61.5234,83.6496226142017,83.66852518974792,84.0050849558556,83.882430539984,39.786094649763925,39.66344023389233,40
64.4531,84.18062261420168,84.19802576036203,84.4947930534326,84.39241198592177,39.80561377444026,39.70323270692943,40
67.3828,84.57552261420169,84.59133185787128,84.85096538042085,84.7673119285066,39.82401992936468,39.740366477450436,40
70.3125,85.04552261420169,85.05866328890289,85.26394564724468,85.20800429653787,39.85065899236503,39.79471764165821,40
73.2422,85.44632261420169,85.45627659448157,85.59631429746301,85.5727538790842,39.88352271539736,39.859962297018555,40
76.1719,85.7315226142017,85.74001333076302,85.84855067019694,85.8412079299013,39.89880540086172,39.89146266056608,40
79.1016,86.01202261420168,86.01805042268784,86.07692413897884,86.09434925024645,39.92370117244138,39.941126283708996,40
82.0313,86.16712261420169,86.17156258791125,86.20576976126142,86.23548348029247,39.93607910761878,39.96579282664983,40
84.9609,86.13232261420167,86.13596664731992,86.16472390470308,86.19719524989203,39.938771397427885,39.97124274261684,40
87.8906,86.17352261420167,86.17474949927212,86.16301074546035,86.21596617149332,39.958783327778804,40.01173875381177,40
90.8203,86.24002261420169,86.23911484588761,86.18828958916329,86.26091719604445,39.97819764984317,40.05082525672432,40
93.75,86.25242261420169,86.25061368212847,86.19428036392314,86.27020091946937,39.9804127626591,40.05633331820533,40
96.6797,86.34352261420169,86.33916378895283,86.2474905819699,86.34122968469836,39.99793410425447,40.09167320698293,40
102.539,86.39842261420169,86.38978864445299,86.2349182074344,86.36242026958315,40.02736837486984,40.15487043701859,40
105.469,86.35542261420169,86.34487947869479,86.16970486538091,86.30780824638911,40.03707123230568,40.175174613313885,40
108.398,86.27612261420168,86.26325468648034,86.05858370361109,86.21042173701578,40.05283294946456,40.204670982869246,40
111.328,86.28962261420169,86.27555430483,86.05390546836553,86.21317322251264,40.06238108231736,40.22164883646447,40
117.188,86.3839226142017,86.36704939565566,86.1165114758518,86.28943338658684,40.07761600906882,40.25053791980386,40
120.117,86.41282261420169,86.39448511061686,86.13260477568697,86.31104674334948,40.08343836726738,40.261880334929884,40
125.977,86.20742261420169,86.18530195037391,85.89342358439937,86.08466054524838,40.10064140512553,40.29187836597454,40
128.906,86.18932261420169,86.16499041919899,85.84525410518192,86.05024482354125,40.11474559565774,40.319736314017064,40
134.766,86.28762261420168,86.26012380910457,85.90595046485915,86.1269853077613,40.13313850134327,40.354173344245424,40
137.695,86.24062261420168,86.2110005167308,85.83696698634087,86.06753083870048,40.14346967803033,40.37403353038994,40
143.555,86.06342261420168,86.02853124389796,85.5950111807194,85.85521579810523,40.173315445792724,40.43352006317856,40
149.414,86.09082261420168,86.05009458933164,85.53378345284483,85.8362891938482,40.21380539548343,40.516311136486806,40
155.273,86.14242261420169,86.09746819244258,85.50274270683376,85.84800945874875,40.24945873369383,40.59472548560882,40
158.203,86.1296226142017,86.08380394637612,85.49649016518977,85.83623830815696,40.24756563821916,40.58731378118635,40
164.063,86.22182261420168,86.17120137870222,85.53353965079197,85.89663539484226,40.27456598385996,40.637661727910256,40
169.922,86.15332261420168,86.098857853516,85.42975726448581,85.80837994030101,40.290477913214986,40.66910058903018,40
175.781,86.03962261420169,85.97667649534124,85.21686178484715,85.64096621544464,40.3357102798966,40.759814710494084,40
181.641,86.05832261420169,85.98644147239148,85.04902984668216,85.56985133908499,40.416590133306485,40.937411625709316,40
190.43,86.30692261420167,86.23113824341853,85.03902886426586,85.71214222690557,40.51899601651296,41.19210937915267,40
196.289,86.32162261420169,86.24683723711584,85.03841937931033,85.72327082365959,40.52356641345625,41.208417857805514,40
202.148,86.29802261420168,86.22281192130285,84.98835294595291,85.6865216409156,40.53629028038725,41.23445897534994,40
210.938,86.28512261420168,86.21336750376805,84.98759439114853,85.6825096778557,40.53085782591235,41.22577311261952,40
216.797,86.11772261420168,86.0489480041028,84.95360933195566,85.5766036060754,40.4723443980274,41.095338672147136,40
225.586,86.08132261420168,85.99777670818588,84.7769582119776,85.4578061628231,40.53997054536278,41.22081849620828,40
234.375,86.3813226142017,86.29583299869073,84.92690833723829,85.68837841932667,40.60745457936406,41.36892466145244,40
240.234,86.09252261420168,86.0065629219351,84.7328119063863,85.43555243848849,40.571010483446614,41.2737510155488,40
249.023,86.1514226142017,86.05564253227638,84.61544225149743,85.40564156267594,40.65000096960044,41.44020028077895,40
257.813,86.16462261420169,86.06632158583047,84.5938100843652,85.40171031626026,40.6646112695702,41.47251150146526,40
266.602,86.10872261420168,86.00589675489019,84.45571569487272,85.29649112659341,40.70940562829678,41.550181060017465,40
278.32,86.05762261420169,85.9480961579855,84.34702942607608,85.24292209886285,40.705174059122655,41.60106673190943,40
287.109,86.16022261420169,86.04203940341995,84.22990119076108,85.22672802373232,40.81531137968763,41.812138212658866,40
295.898,86.31792261420169,86.1994850692261,84.18281719935148,85.2790557814798,40.9204292877463,42.016667869874624,40
307.617,86.51652261420169,86.4149508156012,84.44392605991708,85.55711212929039,40.857838686310814,41.97102475568413,40
319.336,86.38352261420168,86.27259303462309,84.25576023800656,85.36384439663324,40.908748637989845,42.01683279661653,40
331.055,86.46812261420168,86.3608979911858,84.18172206005973,85.3986639337097,40.962234057476095,42.17917593112607,40
342.773,85.92302261420168,85.80918788868296,83.87339612827077,84.94014280873579,40.86904507994717,41.93579176041219,40
354.492,86.38412261420169,86.25736005968587,83.78601700015756,85.17801203178144,41.07934802790443,42.47134305952831,40
366.211,86.35612261420168,86.23716045617684,83.72518331834384,85.16026619221411,41.07689426396273,42.511977137833,40
377.93,86.88612261420168,86.74477922898276,84.0337124853465,85.55952957819092,41.185249650791846,42.711066743636266,40
392.578,86.71682261420169,86.58367682990082,83.90084785399117,85.37894786780326,41.20472896209756,42.68282897590966,40
407.227,86.31912261420169,86.20207368668474,83.60768278281871,85.062584751855,41.13948893482974,42.59439090386603,40
421.875,86.51472261420169,86.43005704271086,83.69190405090833,85.29042183996309,41.13963520274777,42.73815299180252,40
436.523,85.8711226142017,85.7930297669521,83.39692905221891,84.77451743726662,41.01851232968548,42.396100714733194,40
451.172,86.04372261420168,85.98312322796481,83.42665900447592,84.92543274878027,41.057690479184544,42.55646422348889,40
465.82,85.60772261420169,85.52405658986072,83.08355089556822,84.492141565581,41.031915024279726,42.4405056942925,40
483.398,85.35632261420169,85.26167930483625,82.82385973925544,84.22764639892233,41.03403290591392,42.43781956558081,40
500.977,87.12212261420169,86.80748768742205,83.07570894995507,85.34766587479848,41.459821812623574,43.73177873746698,40
518.555,88.81102261420169,88.58974820959324,84.79629960816841,87.02214336448405,41.56760484510919,43.79344860142483,40
536.133,86.78122261420168,86.6935056790363,83.71450722679485,85.20617429154863,41.48733138748767,42.978998452241456,40
553.711,86.28562261420169,86.26652450381478,83.41358218909019,84.9420266357699,41.32449786804487,42.85294231472459,40
574.219,85.75982261420167,85.80556894305784,83.42686099981869,84.64643852611385,41.15913041694398,42.37870794323915,40
594.727,84.19362261420169,84.29694875443414,82.99305785568124,83.67256664135786,40.62438211307628,41.3038908987529,40
615.234,83.28822261420169,83.25184971999188,82.44675952883247,82.73626636358514,40.51558335640674,40.80509019115941,40
638.672,84.93922261420168,84.54494911247083,81.93697798546451,83.15554479421135,41.38940431825948,42.60797112700632,40
659.18,85.39602261420168,85.03866158154719,81.91910757688889,83.53956664412048,41.499094937426705,43.1195540046583,40
682.617,85.7880226142017,85.31639549050279,81.63918215381268,83.45950577168448,41.85688971881831,43.6772133366901,40
706.055,86.30862261420168,85.84733965396236,81.71378646907624,83.77006798957937,42.07727166438299,44.133553184886125,40
732.422,86.69792261420169,86.29239159055834,82.19577566723503,84.2875593713625,42.00483221919583,44.09661592332331,40
758.789,86.7764226142017,86.33998339443968,81.9341061800815,84.20144710054994,42.13853629388974,44.405877214358185,40
785.156,86.98762261420168,86.63927377198469,82.07168320827063,84.45826244278867,42.181011329196025,44.56759056371406,40
811.523,87.30722261420169,86.88779461124673,82.15188036366264,84.49221906858655,42.39557554266018,44.73591424758409,40
840.82,86.9284226142017,86.57028484031214,81.743855455486,84.1112582187031,42.45902662160904,44.82642938482614,40
870.117,87.3655226142017,87.04896373946849,82.30224148327669,84.77700856782113,42.27195517164736,44.7467222561918,40
902.344,87.14872261420169,86.83954874763572,82.00664603707789,84.53190912397814,42.30763962365758,44.83290271055783,40
931.641,87.35352261420171,87.05007214850085,82.37086277865976,84.88516218950404,42.1649099589968,44.67920936984109,40
966.797,86.8107226142017,86.5493719726924,81.8241405375518,84.49337027530562,42.056001697386776,44.7252314351406,40
999.023,86.95462261420168,86.65798496634714,81.9231961826228,84.681880666901,41.97610429944615,44.73478878372434,40
1034.18,86.15822261420169,85.92565840968159,81.36190105833532,84.12571914120619,41.7999392684754,44.56375735134627,40
1072.27,85.91802261420169,85.60705097473722,81.10256761197913,83.90794185267625,41.699109122060975,44.504483362758094,40
1110.35,85.78982261420167,85.3834968478589,80.77439251380055,83.62824606019417,41.75525078766472,44.609104334058344,40
1148.44,85.78902261420168,85.33077930394674,80.64836718078453,83.58705768214705,41.74372162179969,44.68241212316221,40
1189.45,85.90432261420169,85.47291115835556,80.41620420538413,83.36516200510636,42.1077491532492,45.056706952971425,40
1230.47,86.1496226142017,85.61555034704348,80.38906906133539,83.30038306775938,42.3151672792841,45.22648128570809,40
1274.41,86.74382261420169,86.10400835609323,80.51319534799381,83.5295784750252,42.57442988106803,45.59081300809942,40
1318.36,86.69422261420168,86.17505585498051,80.35007386228763,83.50607108492481,42.6689847700557,45.824981992692884,40
1365.23,86.4688226142017,85.93537167623393,80.08853942573089,83.39635408464856,42.53901759158536,45.84683225050304,40
1415.04,86.08582261420169,85.53699558772955,79.75397820364701,82.9953827959127,42.541612791816846,45.78301738408254,40
1464.84,86.26742261420169,85.75361429609,79.68044591821318,82.82046880032871,42.933145495761295,46.073168377876826,40
1514.65,86.65722261420169,86.17115045116577,79.64453795225941,82.78854184944285,43.38260860172292,46.52661249890636,40
1570.31,86.77582261420169,86.1735932753195,79.64153015276743,82.82446921873169,43.34912405658781,46.532063122552074,40
1623.05,86.5467226142017,85.90242411134368,79.35448219540524,82.65511573548069,43.247308375862985,46.54794191593844,40
1681.64,86.15562261420168,85.4743142009377,78.91384083730294,82.20486528988367,43.26944891105403,46.560473363634756,40
1740.23,86.26902261420169,85.52433331255126,78.62201892268642,81.98888867761296,43.5354446349383,46.90231438986484,40
1801.76,86.78382261420168,85.87480965003036,78.6999375099641,82.16654294880291,43.708266701227444,47.174872140066256,40
1866.21,86.02422261420169,85.15501324998228,78.0684758519782,81.54695664273495,43.60805660724732,47.08653739800407,40
1930.66,85.2291226142017,84.3231686310652,77.16028948633017,80.58749257618123,43.73567605488397,47.16287914473503,40
2000.98,85.68682261420169,84.55412158215296,77.15015612119046,80.70804169018062,43.84607989197234,47.403965460962496,40
2071.29,86.38492261420168,85.17214028442818,77.45208027742673,81.02197635768567,44.15016392674251,47.72006000700145,40
2144.53,85.3191226142017,84.34747880727107,76.84050830703482,80.30528001448705,44.04219879278402,47.50697050023625,40
2217.77,84.44092261420168,83.30357344710086,75.98426009971065,79.52720905201808,43.77636439508278,47.31931334739021,40
2296.88,84.71272261420168,83.56142668698224,75.86197608936997,79.64878731216753,43.91263937481472,47.69945059761227,40
2378.91,85.22202261420169,84.02300739200005,75.76343856319635,79.80606810445359,44.21693928754647,48.25956882880371,40
2460.94,84.67362261420169,83.4455648722823,75.1933791430084,79.47018758543442,43.97537728684789,48.252185729273904,40
2548.83,85.05992261420168,83.69620736307097,75.51001393189402,79.80066799897605,43.895539364094915,48.186193431176946,40
2639.65,85.84072261420168,84.58952122977841,76.34343941837889,80.28078896033752,44.308732269440895,48.24608181139952,40
2733.4,86.01432261420169,84.90533305012382,76.9156656440922,80.5657441084867,44.33958894163712,47.989667406031614,40
2827.15,86.31912261420169,85.2032141133924,77.62294291513122,81.01122683160139,44.191987281791015,47.58027119826119,40
2926.76,86.6917226142017,85.57597084472701,78.20325075280935,81.48282299937938,44.09314784534763,47.37272009191766,40
3032.23,86.49932261420169,85.52199562798589,78.49331668792148,81.75997642070116,43.76201920728472,47.02867894006441,40
3137.7,86.48972261420168,85.69107153865485,78.96206548980707,82.25821715785436,43.43285438080049,46.72900604884778,40
3249.02,86.47562261420168,85.71654130143341,79.25160286879397,82.48406683226773,43.23247446916568,46.46493843263944,40
3363.28,86.31082261420168,85.8361254899853,79.36319814343499,82.6265055898892,43.2096199000961,46.47292734655032,40
3483.4,85.90302261420169,85.7937575409457,79.35164413181963,82.7822712361775,43.01148630476821,46.44211340912608,40
3606.45,85.64062261420169,85.83123164304935,79.3054627760044,82.85781060559606,42.97342103745329,46.525768867044945,40
3732.42,85.48802261420168,85.69022673556992,79.11247838048294,82.75575532173188,42.93447141383804,46.57774835508698,40
3864.26,85.35702261420168,85.67442362053184,78.96035063103284,82.54858977411838,43.12583384641346,46.714072989499,40
3999.02,85.00132261420168,85.60587816853925,78.93467011186243,82.49800119917899,43.10787696936026,46.67120805667682,40
4139.65,84.31002261420169,85.2635297398373,78.91407736597924,82.25804499986957,43.00548473996773,46.34945237385806,40
4286.13,84.43152261420168,85.50810169205023,78.9655823422008,82.43889224685118,43.06920944519905,46.54251934984943,40
4438.48,84.69662261420169,85.62681067928081,79.01786594507927,82.50668484039535,43.12012583888546,46.60894473420154,40
4593.75,84.7326226142017,85.59276258758094,78.88574296268096,82.44216029895436,43.15060228862657,46.70701962489997,40
4757.81,84.75452261420169,85.34867583754693,78.58303588971634,82.40307737056888,42.945598466978055,46.76563994783059,40
4924.8,85.21672261420169,85.4639345035342,78.39816798821961,82.44657784500103,43.017356658533174,47.06576651531459,40
5097.66,85.06022261420169,85.17241269124636,78.16255440651837,82.1320728355508,43.040339855695564,47.009858284728,40
5279.3,84.93122261420169,85.00558327344358,78.04497979961492,82.11639833797548,42.889184935468094,46.960603473828655,40
5463.87,85.36802261420169,84.94111983771698,77.71616052627166,81.85543539638378,43.0856844413332,47.22495931144532,40
5657.23,85.17142261420169,84.68717697101454,77.3370613159661,81.43704543635762,43.250131534656916,47.35011565504844,40
5856.45,84.98032261420168,84.85533227153412,77.35960306704348,81.43036113400063,43.42497113753349,47.495729204490644,40
6061.52,85.31692261420169,85.14025783675214,77.37846351542304,81.41669646411341,43.72356137263873,47.761794321329106,40
6275.39,85.69842261420169,85.37210980730286,77.78863990670537,81.68379147046726,43.68831833683561,47.58346990059749,40
6498.05,85.67062261420169,85.65645797787379,78.1776217513302,82.04485382190232,43.61160415597146,47.47883622654359,40
6726.56,86.06732261420169,85.96737676824958,78.35552123596634,82.25217545485987,43.71520131338971,47.61185553228324,40
6963.87,86.50412261420169,85.9277392786946,78.29633709619392,82.3641910156556,43.563548263038996,47.63140218250068,40
7209.96,86.12942261420169,85.6852528973313,78.19559311707812,82.35461781479988,43.330635082531415,47.48965978025318,40
7464.84,86.2463226142017,85.5190983545245,78.09605943854493,82.2651506208949,43.2539477336296,47.423038915979575,40
7728.52,86.55222261420168,85.63884127896559,78.12826370303824,82.35344111237212,43.28540016659346,47.51057757592734,40
8000.98,86.61772261420168,85.95802929788523,78.30723785153258,82.56803881983852,43.38999047804671,47.650791446352656,40
8282.23,87.50982261420168,86.48517560238052,78.64326425617925,82.91496973269285,43.57020586968767,47.84191134620127,40
8575.2,87.45622261420168,86.5424618942187,78.68028258345007,83.00804745017899,43.53441444403971,47.86217931076864,40
8876.95,87.22162261420168,86.26303546172934,78.41480166930732,82.76624925416961,43.49678620755974,47.84823379242202,40
9190.43,86.70972261420168,85.78261695857135,77.99386616394303,82.29333368969453,43.48928326887682,47.78875079462833,40
9512.7,86.31652261420169,85.53971220120673,77.82603851687547,82.0554786149056,43.48423358630113,47.713673684331255,40
9849.61,86.4926226142017,85.62086058538127,77.80613494759722,82.08682890889357,43.5340316764877,47.81472563778405,40
10195.3,86.74792261420167,85.80283908535048,77.8740531812448,82.05781687788102,43.74502220746946,47.92878590410568,40
10555.7,86.90262261420169,86.07462442501675,78.02004211093316,82.3068401378107,43.767784287206055,48.05458231408359,40
10927.7,86.32352261420168,85.76174261829584,77.70955666736369,81.97108220970534,43.7906604085905,48.052185950932156,40
11314.5,85.94552261420169,85.43136820679068,77.34711902167136,81.58316109201702,43.84820711477366,48.08424918511932,40
11712.9,85.66532261420168,85.19848299751233,77.13643757249297,81.42651560555372,43.77196739195861,48.06204542501936,40
12126.0,85.57892261420169,85.01213845786158,76.86918430135441,81.18723902962275,43.82489942823884,48.14295415650717,40
12553.7,85.7255226142017,84.97945436982751,76.62235413952091,80.91282194347501,44.0666324263525,48.3571002303066,40
