Freq "Early Reflections"
20.5078 56.25691440723283
23.4375 60.62562062650066
26.3672 64.8597313022061
29.2969 69.20493145289197
32.2266 72.48203353328712
35.1563 74.90117862826638
38.0859 76.59156565248864
41.0156 77.84110433525008
43.9453 78.82307365248707
46.875 79.75142821789707
49.8047 80.63797537595259
52.7344 81.56002177202704
55.6641 82.36283091439076
58.5938 83.11775116378872
61.5234 83.76540792578231
64.4531 84.2753893717201
67.3828 84.65028931430491
70.3125 85.09098168233618
73.2422 85.45573126488254
76.1719 85.72418531569961
79.1016 85.97732663604475
82.0313 86.11846086609079
84.9609 86.08017263569035
87.8906 86.09894355729163
90.8203 86.14389458184276
93.75 86.15317830526769
96.6797 86.22420707049667
102.539 86.24539765538147
105.469 86.19078563218743
108.398 86.09339912281409
111.328 86.09615060831095
117.188 86.17241077238515
120.117 86.19402412914779
125.977 85.9676379310467
128.906 85.93322220933956
134.766 86.00996269355961
137.695 85.95050822449879
143.555 85.73819318390355
149.414 85.7192665796465
155.273 85.73098684454706
158.203 85.71921569395528
164.063 85.77961278064058
169.922 85.69135732609932
175.781 85.52394360124295
181.641 85.4528287248833
190.43 85.59511961270388
196.289 85.6062482094579
202.148 85.56949902671391
210.938 85.565487063654
216.797 85.45958099187371
225.586 85.34078354862142
234.375 85.57135580512498
240.234 85.3185298242868
249.023 85.28861894847425
257.813 85.28468770205858
266.602 85.17946851239172
278.32 85.12589948466116
287.109 85.10970540953063
295.898 85.16203316727811
307.617 85.4400895150887
319.336 85.24682178243155
331.055 85.281641319508
342.773 84.8231201945341
354.492 85.06098941757975
366.211 85.04324357801242
377.93 85.44250696398923
392.578 85.26192525360158
407.227 84.94556213765331
421.875 85.1733992257614
436.523 84.65749482306494
451.172 84.8084101345786
465.82 84.37511895137932
483.398 84.11062378472064
500.977 85.23064326059679
518.555 86.90512075028236
536.133 85.08915167734695
553.711 84.82500402156822
574.219 84.52941591191217
594.727 83.55554402715617
615.234 82.61924374938346
638.672 83.03852218000966
659.18 83.4225440299188
682.617 83.34248315748279
706.055 83.65304537537769
732.422 84.17053675716082
758.789 84.08442448634825
785.156 84.34123982858698
811.523 84.37519645438486
840.82 83.99423560450141
870.117 84.65998595361944
902.344 84.41488650977645
931.641 84.76813957530233
966.797 84.37634766110394
999.023 84.56485805269931
1034.18 84.0086965270045
1072.27 83.79091923847456
1110.35 83.51122344599248
1148.44 83.47003506794536
1189.45 83.24813939090467
1230.47 83.1833604535577
1274.41 83.41255586082352
1318.36 83.38904847072313
1365.23 83.27933147044688
1415.04 82.87836018171102
1464.84 82.70344618612701
1514.65 82.67151923524116
1570.31 82.70744660453
1623.05 82.538093121279
1681.64 82.08784267568198
1740.23 81.87186606341128
1801.76 82.04952033460123
1866.21 81.42993402853327
1930.66 80.47046996197955
2000.98 80.59101907597893
2071.29 80.90495374348399
2144.53 80.18825740028537
2217.77 79.41018643781639
2296.88 79.53176469796584
2378.91 79.6890454902519
2460.94 79.35316497123274
2548.83 79.68364538477437
2639.65 80.16376634613583
2733.4 80.44872149428501
2827.15 80.89420421739969
2926.76 81.36580038517769
3032.23 81.64295380649948
3137.7 82.14119454365267
3249.02 82.36704421806604
3363.28 82.50948297568752
3483.4 82.6652486219758
3606.45 82.74078799139437
3732.42 82.6387327075302
3864.26 82.4315671599167
3999.02 82.3809785849773
4139.65 82.14102238566788
4286.13 82.3218696326495
4438.48 82.38966222619366
4593.75 82.32513768475268
4757.81 82.2860547563672
4924.8 82.32955523079934
5097.66 82.01505022134911
5279.3 81.9993757237738
5463.87 81.7384127821821
5657.23 81.32002282215593
5856.45 81.31333851979895
6061.52 81.29967384991173
6275.39 81.56676885626557
6498.05 81.92783120770063
6726.56 82.13515284065818
6963.87 82.24716840145392
7209.96 82.2375952005982
7464.84 82.14812800669321
7728.52 82.23641849817044
8000.98 82.45101620563683
8282.23 82.79794711849117
8575.2 82.8910248359773
8876.95 82.64922663996792
9190.43 82.17631107549285
9512.7 81.93845600070391
9849.61 81.96980629469188
10195.3 81.94079426367934
10555.7 82.18981752360901
10927.7 81.85405959550366
11314.5 81.46613847781533
11712.9 81.30949299135206
12126.0 81.07021641542106
12553.7 80.79579932927332
12996.1 80.64073807626626
13453.1 80.47355679714526
13927.7 80.16279755446605
14419.9 79.83826470858979
14929.7 79.71782923619413
15454.1 79.76538558811778
15999.0 79.85141789264416
16564.5 79.92704559756714
17147.5 79.98428566676951
17753.9 79.94165127739817
18377.9 79.62511953361228
19028.3 79.28474625601511
19699.2 79.18640945026928
19998.0 79.08237384862223
