Freq,Floor Bounce,Ceiling Bounce,Front Wall Bounce,Side Wall Bounce,Rear Wall Bounce,Total Early Reflection
20.5078,67.44972078826531,60.54853520240643,65.48153472118516,62.8383483927512,71.07879417201657,66.98422442711002
21.9727,67.76106542923505,70.92176203174411,67.69077291846857,69.71811979725011,77.94751301332654,72.82946338943962
23.4375,75.28351597319629,75.9728598284449,75.02388009024698,75.86194670248734,81.60756414607822,77.61141126048601
24.9023,77.7087731553814,77.4682129565549,77.21561972659568,77.5122974319731,83.32041772340018,79.43192300024772
26.3672,80.4091585057442,80.98796362385637,80.10810788836183,80.97750400163174,86.51906205222589,82.60946028270662
27.832,83.19861322976767,83.68586006281701,82.88901096547595,83.7677713074019,88.81922658931933,85.15096855742165
29.2969,86.11509851848477,86.96353675774209,85.9878679995641,86.86193086345286,91.41469494795132,88.0254930233441
30.7617,89.34774476241648,90.0925059670432,89.29110454080059,90.08546757152165,94.12817018583537,91.0301438030029
32.2266,92.71139502944527,93.31949436060701,92.61575372878563,93.3853487418611,97.03055670276395,94.17256628571153
33.6914,95.33020922182386,95.84689965613953,95.2318214798994,95.96238600389603,99.37219764591245,96.66363097615336
35.1562,98.0750827980166,98.50549601017548,97.9636571940248,98.66804049416199,101.73749198521078,99.24724692827088
36.6211,100.36523143217748,100.80790900477415,100.27404245708529,100.96218680783393,103.83612545677451,101.47627288123272
38.0859,102.64165926008587,102.9995535597483,102.53544289425345,103.18540098875158,105.79639814761045,103.61960991022501
39.5508,104.52829704155847,104.86250172698794,104.4308723377111,105.03901625996889,107.36697848294224,105.39553042674565
41.0156,106.10700048299653,106.37018977296655,105.99814002755853,106.57267605923714,108.69205650898134,106.87293647057413
42.4805,107.2897204132525,107.49405019051827,107.16883361128905,107.71798258958627,109.67056163020435,107.97492589341897
43.9453,108.0850619457645,108.23999398473124,107.95881924963543,108.48134419468607,110.2760676820238,108.69910549521147
45.4102,108.65512586658139,108.76206080748425,108.51595464604657,109.02147351750796,110.68082024694819,109.20562278103476
46.875,109.02176789116761,109.10146305646236,108.88236583070278,109.36384258205106,110.88045947599639,109.51630234707626
48.3398,109.17015874874124,109.24703411326335,109.03011242398638,109.51263811011945,110.9350647512243,109.63866582096607
51.2695,109.41614011084131,109.32442482630408,109.24257481457047,109.6331805782209,110.73422229641903,109.70653685808634
52.7344,109.38112375033285,109.28469770238586,109.20984374290968,109.58630964982119,110.60344924559428,109.64465934911144
54.1992,109.28907559034732,109.21300765566893,109.12871205084646,109.50263666542533,110.45969740008029,109.54717757961865
55.6641,109.2107498812441,109.10390670527691,109.04554467932338,109.40215008235035,110.27925294523334,109.43286415856781
58.5938,109.04447283974022,108.84776179892225,108.85452085141925,109.17571735196104,109.89294322036729,109.18073103095492
60.0586,108.99277305732596,108.76869397942653,108.80163730999318,109.0977915556759,109.70752458947511,109.087305273351
62.9883,108.77438396370334,108.49262202890188,108.57575694392762,108.8286822388676,109.28209861206106,108.7995613510874
64.4531,108.67507394525035,108.37494566359676,108.47089294408595,108.71957425947237,109.13552186032388,108.6832709189514
67.3828,108.56112959688853,108.2015940823473,108.33845218385069,108.56606706573275,108.89127783073909,108.51808516158688
68.8477,108.51980426661584,108.12825790833028,108.28845280452263,108.50389526105167,108.78723050623574,108.45131496400292
71.7773,108.4620727603441,108.03227065130012,108.22920695001706,108.40902801928803,108.57817488159739,108.34634322448495
74.707,108.48497279328795,108.03463514758887,108.25571691298295,108.38948548773259,108.42929960774593,108.32177482383587
77.6367,108.42934377125995,107.94365548852421,108.18767770681079,108.31127184483334,108.30281125938468,108.23803778513059
79.1016,108.46833585512788,107.94436551930114,108.2178039756529,108.31919152936119,108.24200173996215,108.24168547715033
82.0312,108.54461690915399,107.9298626250386,108.27836927226946,108.31647765200697,108.0183938346059,108.22314304504195
84.9609,108.08297992634263,107.60697421412073,107.84284217489149,107.96434838486644,107.92640592584435,107.88759447914408
87.8906,108.113850265248,107.63225836897098,107.82795867500425,108.05087784688409,108.31483640166807,107.99435252480949
90.8203,108.03724684762454,107.48764912425752,107.7595640512979,107.92027154492743,108.08743227352899,107.86379416420621
95.2148,108.31297830270985,107.6024854288751,108.06381636570892,108.05704451020348,107.7304580827573,107.96082938396994
98.1445,108.62785955523903,107.81087794567433,108.36346623968386,108.17726894575195,107.49011975037851,108.11241411353124
101.074,108.70692903307942,107.88071489988222,108.38450530109753,108.28742729991879,107.58420552689923,108.18648573060804
105.469,108.63741048608372,107.81206396015385,108.32555816008066,108.18255084165895,107.71651513250457,108.14799278992571
108.398,108.87851449655615,108.03406655652537,108.59307722105738,108.35718615157727,107.69164541448221,108.33068123434525
112.793,108.92749716622073,108.03549348833205,108.64532463985155,108.38134145689862,107.55830524793906,108.33549393548275
117.188,109.36034631318057,108.48440921058427,109.05349498941246,108.8705685645548,108.09876899328455,108.79566625395607
120.117,109.65216117166564,108.72424631304708,109.30160968719085,109.10673694434455,108.36301973758842,109.05256276843869
124.512,109.72539963984666,108.76848576052735,109.38514300656612,109.16985584330796,108.38145336276807,109.11126043803873
128.906,109.4628849228417,108.45080372989555,109.14755303757399,108.89218522688962,107.93342726410545,108.80999670653266
133.301,109.00888761659223,108.04498402617182,108.66722256917902,108.57060741716417,107.92230962917628,108.46156280478228
139.16,108.87844547738037,107.70774497118758,108.47521413212878,108.22521110739457,107.6941829233803,108.22012534912658
143.555,109.18330809639001,107.95073032063247,108.77327555236711,108.35746008650567,107.47646638980449,108.3894054228936
147.949,109.15298745611831,107.87264922562859,108.73339287935728,108.3238988281473,107.41164957872216,108.34216574493445
153.809,109.12601668529071,107.66087169514847,108.67400897621138,108.22903348408632,107.06623389383311,108.21143686012887
159.668,109.27927260044339,107.51546815785862,108.74321909454555,108.28391965608377,107.25280636024237,108.28011125965328
165.527,108.74495594366122,106.98480553019023,108.24294522157395,107.8324082829144,107.03349557700766,107.8216581974069
171.387,108.75400244828114,107.10854390099063,108.17509713306407,107.84387968848235,107.38433172425742,107.89244020037441
177.246,108.75831134606021,107.22441737022054,108.5045435993684,107.69884606416156,107.12607025154954,107.91328530951942
183.105,107.71253723876825,106.91533650650275,107.70095257860474,106.99098379878781,105.9563726575917,107.10169185392012
188.965,108.24894343488407,107.10576685339807,107.99791097993024,107.00017356968621,106.51014883892033,107.42145793455393
196.289,109.38161532492153,107.80739846982198,109.03851279185379,107.85712491737965,106.63678610714713,108.25268854772244
203.613,109.15055878270691,107.75996501404843,108.92133167001268,107.76130888532397,106.41759625642024,108.10897767902514
210.938,109.396153108079,107.6588158799154,108.99285186479054,107.78190340741968,105.77184275470742,108.09463667395023
218.262,109.47698448430316,107.44640320382032,108.95687741071542,107.85651071879671,105.80216068430802,108.087906830564
225.586,109.58108887361179,107.40947874851675,109.13079249552463,107.96123654330256,105.84336150100413,108.17797855218643
232.91,109.47797797926931,107.46899782294449,109.108521867484,107.87434667606568,105.6401714077145,108.11431162702416
241.699,109.3633386550698,107.27731796713897,108.88406940689356,107.7515109504149,105.39354021555721,107.94261066820165
250.488,109.4957335203382,107.0020262034522,108.9832444574876,107.6788213649191,105.00310754053329,107.9035550365516
259.277,109.48545349761342,107.38770038184852,109.08376396905389,107.91971560054897,105.37956139119184,108.07611365558768
268.066,109.0515261450402,106.73260664666951,108.63153424563087,107.33666376113851,104.97325783215426,107.57495496865359
276.855,109.18809283677503,106.83991597603529,108.82487430680895,107.50780619030057,104.6373069826078,107.67855367287662
287.109,109.05891756354607,106.91461885312312,108.7563400912137,107.47105089731012,104.66434817939204,107.63264912745824
297.363,109.20780345854688,107.15232403784754,109.0478574809513,107.55376929654247,104.42510605751245,107.78416627327276
307.617,109.29056321881329,107.37995676270756,109.0981080283489,107.66171521448736,104.41657553885726,107.88016874525009
319.336,109.05492029679348,106.8128392586443,108.69965012199704,107.39502768604467,104.17180420426998,107.53731845709167
329.59,108.85464462083922,106.96536920493378,108.59439263603629,107.48602211283007,103.79381508451203,107.4647332158367
341.309,108.61570982876604,106.41239774906651,108.24326904881102,106.73745457042273,104.05559983818797,107.089891724311
353.027,108.79886877080484,106.38536982217443,108.64858507810622,107.11611105781556,103.15318061040612,107.23861117063541
366.211,109.07054146009187,106.47046273974905,108.7948925227348,107.15034735319615,102.44172772149422,107.3287233722079
379.395,108.99613488419043,107.27354308007192,108.78580632470928,107.81365325944739,102.68946533066664,107.59472735540835
392.578,108.45081038264662,106.29051572835529,108.06270316262797,107.02278671837217,102.66157222703491,106.90930539964252
405.762,108.54176457244971,105.78145619887304,108.31178239734622,106.3225200703387,102.66944004252012,106.78514036331663
420.41,109.50087754387147,106.43814243785671,109.28466139326254,107.32496804030067,102.6225819735054,107.6387428562608
435.059,109.11375002366388,106.52121683461188,109.2973018792783,107.51526435051223,103.29060373595077,107.62309978673063
451.172,109.70303145982983,106.5002248253002,109.84904640998566,108.01048718941801,102.91220800924157,108.02700893103246
465.82,108.92960248760564,106.32424248280459,109.20356565811433,107.55119279676201,102.8989724168977,107.49259735572524
483.398,108.7316763912852,106.5011424241715,109.15302864182412,107.5179774523096,102.56606355851977,107.42187929092184
499.512,108.92579255829592,105.94464451963367,109.28675098275163,107.29760135294936,102.33857301725499,107.37281103224373
517.09,108.46248030423992,106.30472422561948,108.98327330349379,107.34218114227232,102.96378348578799,107.2596339349804
536.133,108.3406708053947,104.93317492334727,109.19562008875577,106.41126418972652,102.19654949119054,106.86322501544272
555.176,108.16839977370618,105.45164343142768,109.14283946710067,106.64441468139846,101.1540311154735,106.84827539341838
574.219,107.63730713069928,104.5949030720223,108.215661251904,105.597488371079,100.75176801425737,106.04942016849243
594.727,107.52295311071212,104.49593378268722,107.88977287435317,104.84467436126889,100.69746565774328,105.76244441396607
615.234,108.37108530705002,105.07087247106408,108.53671678546117,105.61752458467976,100.44704258933949,106.43060694678188
637.207,109.55689905883361,105.51739680104359,109.88710746052325,106.94039107152669,102.76616394875178,107.65967167389886
659.18,107.8798071620463,106.13889271892089,109.03916924047452,106.70714295038094,100.29113375834534,106.81556503240344
682.617,107.79025673201446,106.11640710004605,108.76370672508669,106.0858703661172,100.88581991728188,106.61070069797462
707.52,109.19169172103656,105.48609071192102,109.24680133376116,105.67477741257255,100.08122016191469,106.98257186711564
732.422,107.34577857760496,105.32051555522084,109.32326788080664,105.72238203817268,99.01685122836234,106.41886012132196
757.324,107.38610620143282,107.18788901510784,109.52371595740814,105.82117503095047,100.18277180782745,106.90835300160474
785.156,107.82768605184175,107.11420694352229,109.20611712408471,105.60267949167942,99.53971767758422,106.82530836473002
811.523,107.79747476050528,106.58749381698505,109.29853487409687,105.36069445572555,99.93641747099362,106.72281444758497
840.82,107.89929115362405,107.02141875160363,109.62175558591504,105.58519385127617,99.56887039853832,106.97079751038166
870.117,108.08076350819947,106.22905226439006,109.62288739635132,105.77145234322643,98.93317761959965,106.8756755824031
900.879,108.78904534238202,107.02031816251944,110.043532188024,105.91083605925746,98.4745145888223,107.37300093195698
933.105,108.71580770188926,106.02215144394036,109.96429623138019,105.76033021543846,97.91636472363024,107.11738693527927
965.332,109.07874752436003,106.50441599745737,109.94098748019437,105.53365789017342,97.36122648814123,107.25019909095806
1000.49,109.74557491098328,105.87798058836212,109.89289125106428,105.48941696019683,97.23099773437502,107.34419354073852
1035.64,109.61901573271903,105.47321537827638,109.79755279458138,105.36354703757247,96.52209307521117,107.17975592669144
1072.27,109.67603160710127,104.31912522731189,109.32394295340724,104.66250561884505,95.28560015892911,106.77727174838098
1108.89,109.27169266252234,103.98539872964658,109.72243540412072,104.99633606163566,95.23212181630048,106.78219978286468
1148.44,109.48678162228462,103.721147738385,109.81187582546734,104.90189860162351,97.38216737744274,106.89417331514314
1189.45,108.39687541811513,102.49933151693935,109.65153859485768,103.95713712035365,98.00366301038139,106.24055708151631
1230.47,108.03343668661343,100.07380698060383,109.17467437905412,104.47135014234799,97.88004678423728,105.81115841989045
1274.41,107.5627225095812,99.11355190185884,108.43540398863475,103.6742810128657,95.95765879938214,105.11085122001145
1319.82,106.5390919027724,97.0969980660429,108.35438579370292,103.21886543923729,94.57178550805416,104.54865744015116
1366.7,106.08595167011057,96.99078238533806,108.30124603615627,103.42132105519639,94.68502640790096,104.41417803596835
1413.57,105.18364648984111,98.91641144456806,108.01650338418683,102.72167773966018,93.73708115371183,103.98616476897243
1463.38,104.20817684797994,98.76048467960749,109.12093755754937,103.84435317942965,94.85556986294142,104.55875567813989
1516.11,104.605178673565,99.54906449174786,109.8139782473724,104.69053292710242,95.46426140879262,105.2286791206043
1568.85,104.95105161124869,101.43662371717366,110.66907612539677,105.8887546930115,95.97630344881088,106.11953806503142
1624.51,105.35457748152773,103.34462188380944,110.70402240011474,105.5750805963707,96.17888458094173,106.30957483335713
1681.64,106.0999534423408,99.50827131445917,110.56541975214789,104.66017241383508,95.96450521568683,105.94973937432042
1741.7,104.98738680903179,103.41455198439529,109.85548877981356,104.68188933446167,96.10376173181207,105.65082368972266
1803.22,104.81904244759818,103.98838433435714,109.98302003159183,104.46957143619211,95.36304865971456,105.71519756719991
1866.21,105.8497814228627,103.87035862333757,110.56726705063375,105.01300705457126,95.4078288731121,106.27328702422416
1932.13,105.2177479007323,102.49977677851184,110.86647775147556,105.00130110026221,95.39437223432941,106.19524559492126
1999.51,104.87744301523199,104.83861152882696,110.48148429082843,105.81357849912915,96.31844450687991,106.34192047251365
2069.82,104.39975673813848,105.97411080485888,109.84712925592056,105.24873382710012,94.98701596662818,106.02701656755379
2143.07,105.53124867099503,106.1371034432717,109.27165901085793,104.89028390065333,95.40473785577497,105.92599395864738
2219.24,106.67462483584464,106.77350868887669,109.638228581365,105.53989086591663,95.37372175791164,106.5385976254621
2296.88,106.98019720025526,105.00299851620835,110.11689239582081,105.38355898535724,94.24503336492207,106.46332706708891
2378.91,107.54310378871477,105.7805336170981,109.05498107330344,105.0452616834603,94.7625834830233,106.23325560414177
2462.4,106.93345328535393,104.60635612003881,108.71171229765727,104.16336261939261,93.32637321052857,105.58235837432967
2548.83,106.16446335819403,104.5827605264027,110.34722198233031,105.19141204703529,93.54127503367978,106.30843574946849
2639.65,105.67419907404113,103.55145338251779,110.8083268185308,105.39193788419591,93.96995923312608,106.37787032784303
2731.93,105.7603903292206,103.14841581401747,109.85288598217768,104.49231109908887,93.36338287793761,105.68888327066598
2828.61,105.65780662172982,102.82205856215816,108.94590308415836,103.78354786840389,92.5407752040469,105.05389180506656
2928.22,105.41072506076048,102.76705520196434,109.31133842082366,104.21106791466798,92.94547793889305,105.24646634191417
3030.76,105.03330140587471,103.57418373735788,109.81818019034212,105.01652454581769,93.51601378133272,105.67095285178173
3137.7,105.51172606000556,103.34287627838104,109.88834093364409,105.31567794836242,93.78075254584788,105.8212228863462
3249.02,106.18339547705314,102.89850416769005,109.82652269243543,105.47594988276047,93.84040127195944,105.90642364271856
3363.28,106.92541673583939,102.56201846338705,110.01926053575883,105.34332922308282,93.2739511101084,106.10868196988667
3481.93,107.36620688137677,102.70456448519141,110.1329055257286,105.634983082482,92.95536430306784,106.33170356925802
3604.98,107.45357512783137,102.94154103438981,110.38901596724142,106.19581940735513,94.34776192518413,106.60981212002707
3732.42,106.70577153491053,103.28388918031938,110.34243934646592,106.47537507487714,94.70119809607944,106.50711804570982
3864.26,107.10853534404265,102.88548070659384,109.04121916160483,105.65789140649056,94.04035026853127,105.80562514670495
4000.49,107.59518143464975,103.14799411324175,109.91044853125864,105.75747171332307,93.8221306971146,106.35771385153602
4141.11,107.38806574965841,102.70156348013133,110.08849388342743,106.03446571968989,93.32550790611322,106.39023812607455
4287.6,107.88724017212517,102.2516007706008,109.60905530140656,105.36668880234726,93.63886519906943,106.1570704716528
4438.48,108.08380001274084,102.16040665426227,109.82882573798639,105.55655791072967,92.43048953567295,106.32663749810303
4595.21,108.10489948774304,102.23220822307094,110.10766103497522,106.01560437817128,93.18991285018238,106.54958036025018
4756.35,107.52915857441197,101.5607493760237,110.0311276565023,105.81284109626056,92.39350237815194,106.26388306332801
4924.8,107.1743419935904,101.58255215092022,109.10867435953945,105.32486984279946,92.11605461577332,105.65187473701342
5097.66,106.72652217186155,102.198507106265,110.11631962449503,105.95379985888376,91.77869101956401,106.17546233635566
5277.83,106.25187268875428,101.91835466598108,109.25343333332731,105.56284734934819,92.6375698343693,105.55775469221085
5463.87,106.49239480201207,101.80433645270637,109.61579612050836,105.49708284457476,91.15441347769774,105.75271805268044
5657.23,105.76245833758979,102.02621253419615,109.73351829704715,106.01698787560001,91.80075361182067,105.77872271604981
5856.45,105.73026717477377,101.73538138694454,110.1070605017608,106.07429603267404,91.40994310396053,105.94839678054383
6062.99,106.30605937754501,101.17812218590446,110.04159032390206,106.22160487303343,91.80580684093486,106.02508194373306
6276.86,105.46771334698079,100.8622849769413,110.20402195424616,106.23684671427338,91.18869143744945,105.92358163700979
6498.05,104.95110898369808,100.8008484538464,109.96377811466282,105.70306044430183,90.61045609576459,105.58213611698683
6726.56,104.86912037244124,100.29711530439637,110.27865669192637,106.09658478892212,90.46851516937011,105.79414580978863
6963.87,104.92758011104046,100.21282803326098,109.75177048032238,105.26806256339337,89.94867853905718,105.33189914361698
7209.96,105.0525660354911,100.27946239504614,110.01740143590264,105.71208849887114,89.47722062713181,105.5923050558202
7464.84,105.19323325198427,99.89442139515667,109.49629842403658,105.0154827008903,88.61251052454219,105.16754221351718
