Freq "Ceiling Bounce"
20.5078 61.30261095998219
21.9727 71.67583778931987
23.4375 76.72693558602066
24.9023 78.22228871413066
26.3672 81.74203938143214
27.832 84.43993582039278
29.2969 87.71761251531785
30.7617 90.84658172461896
32.2266 94.07357011818277
33.6914 96.60097541371529
35.1562 99.25957176775124
36.6211 101.56198476234991
38.0859 103.75362931732407
39.5508 105.6165774845637
41.0156 107.12426553054232
42.4805 108.24812594809403
43.9453 108.994069742307
45.4102 109.51613656506001
46.875 109.85553881403813
48.3398 110.00110987083912
51.2695 110.07850058387984
52.7344 110.03877345996162
54.1992 109.9670834132447
55.6641 109.85798246285268
58.5938 109.60183755649801
60.0586 109.52276973700229
62.9883 109.24669778647764
64.4531 109.12902142117252
67.3828 108.95566983992306
68.8477 108.88233366590605
71.7773 108.78634640887589
74.707 108.78871090516463
77.6367 108.69773124609998
79.1016 108.6984412768769
82.0312 108.68393838261436
84.9609 108.36104997169649
87.8906 108.38633412654674
90.8203 108.24172488183328
95.2148 108.35656118645086
98.1445 108.5649537032501
101.074 108.63479065745798
105.469 108.56613971772961
108.398 108.78814231410114
112.793 108.78956924590781
117.188 109.23848496816004
120.117 109.47832207062284
124.512 109.52256151810312
128.906 109.20487948747132
133.301 108.79905978374758
139.16 108.46182072876334
143.555 108.70480607820824
147.949 108.62672498320435
153.809 108.41494745272423
159.668 108.26954391543438
165.527 107.73888128776599
171.387 107.86261965856639
177.246 107.9784931277963
183.105 107.66941226407852
188.965 107.85984261097383
196.289 108.56147422739774
203.613 108.5140407716242
210.938 108.41289163749116
218.262 108.20047896139609
225.586 108.16355450609251
232.91 108.22307358052025
241.699 108.03139372471473
250.488 107.75610196102797
259.277 108.14177613942428
268.066 107.48668240424527
276.855 107.59399173361105
287.109 107.66869461069888
297.363 107.9063997954233
307.617 108.13403252028333
319.336 107.56691501622007
329.59 107.71944496250954
341.309 107.16647350664228
353.027 107.13944557975019
366.211 107.22453849732482
379.395 108.02761883764768
392.578 107.04459148593105
405.762 106.5355319564488
420.41 107.19221819543247
435.059 107.27529259218764
451.172 107.25430058287596
465.82 107.07831824038036
483.398 107.25521818174727
499.512 106.69872027720943
517.09 107.05879998319524
536.133 105.68725068092303
555.176 106.20571918900345
574.219 105.34897882959807
594.727 105.25000954026298
615.234 105.82494822863984
637.207 106.27147255861935
659.18 106.89296847649665
682.617 106.87048285762181
707.52 106.24016646949678
732.422 106.0745913127966
757.324 107.9419647726836
785.156 107.86828270109805
811.523 107.34156957456081
840.82 107.7754945091794
870.117 106.98312802196583
900.879 107.7743939200952
933.105 106.77622720151612
965.332 107.25849175503313
1000.49 106.63205634593788
1035.64 106.22729113585214
1072.27 105.07320098488765
1108.89 104.73947448722234
1148.44 104.47522349596076
1189.45 103.25340727451511
1230.47 100.8278827381796
1274.41 99.8676276594346
1319.82 97.85107382361866
1366.7 97.74485814291383
1413.57 99.67048720214382
1463.38 99.51456043718325
1516.11 100.30314024932362
1568.85 102.19069947474942
1624.51 104.0986976413852
1681.64 100.26234707203493
1741.7 104.16862774197105
1803.22 104.7424600919329
1866.21 104.62443438091333
1932.13 103.2538525360876
1999.51 105.59268728640272
2069.82 106.72818656243464
2143.07 106.89117920084746
2219.24 107.52758444645245
2296.88 105.75707427378411
2378.91 106.53460937467386
2462.4 105.36043187761457
2548.83 105.33683628397846
2639.65 104.30552914009355
2731.93 103.90249157159323
2828.61 103.57613431973392
2928.22 103.5211309595401
3030.76 104.32825949493365
3137.7 104.0969520359568
3249.02 103.65257992526581
3363.28 103.31609422096281
3481.93 103.45864024276717
3604.98 103.69561679196558
3732.42 104.03796493789514
3864.26 103.6395564641696
4000.49 103.90206987081751
4141.11 103.45563923770709
4287.6 103.00567652817656
4438.48 102.91448241183804
4595.21 102.9862839806467
4756.35 102.31482513359946
4924.8 102.33662790849598
5097.66 102.95258286384076
5277.83 102.67243042355685
5463.87 102.55841221028213
5657.23 102.78028829177191
5856.45 102.4894571445203
6062.99 101.93219794348022
6276.86 101.61636073451706
6498.05 101.55492421142216
6726.56 101.05119106197213
6963.87 100.96690379083674
7209.96 101.0335381526219
7464.84 100.64849715273243
7727.05 100.64357595369805
7999.51 100.76068049251491
8282.23 100.90483494837865
8573.73 100.91155738854674
8876.95 101.09807760854311
9188.96 101.15756810369753
9514.16 101.79823321801149
9849.61 102.24013323343621
10196.8 102.626202968195
10555.7 102.80179933825117
10927.7 102.9651988311148
11313.0 103.37899521581193
11712.9 103.76603900780461
12126.0 104.25445245240266
12553.7 104.72203065724985
12996.1 104.88831736075952
13454.6 104.86955481344135
13929.2 104.85688282500625
14419.9 104.78567643779935
14928.2 104.19701816293434
15455.6 103.25100671532233
16000.5 101.97954897010524
16564.5 100.37620157300127
17148.9 98.65640702510497
17752.4 97.01208262341987
18379.4 95.37531617366352
19026.9 93.81937202310888
19697.8 91.30152718500128
19999.5 90.81118705627675
