Freq "Floor Bounce"
20.5078 68.20379654584106
21.9727 68.51514118681082
23.4375 76.03759173077204
24.9023 78.46284891295714
26.3672 81.16323426331998
27.832 83.95268898734345
29.2969 86.86917427606052
30.7617 90.10182051999224
32.2266 93.46547078702103
33.6914 96.08428497939964
35.1562 98.82915855559237
36.6211 101.11930718975323
38.0859 103.39573501766164
39.5508 105.28237279913425
41.0156 106.86107624057227
42.4805 108.04379617082827
43.9453 108.83913770334028
45.4102 109.40920162415715
46.875 109.77584364874336
48.3398 109.92423450631702
51.2695 110.17021586841706
52.7344 110.13519950790862
54.1992 110.04315134792307
55.6641 109.96482563881985
58.5938 109.798548597316
60.0586 109.74684881490174
62.9883 109.52845972127909
64.4531 109.42914970282612
67.3828 109.31520535446428
68.8477 109.2738800241916
71.7773 109.21614851791986
74.707 109.2390485508637
77.6367 109.1834195288357
79.1016 109.22241161270362
82.0312 109.29869266672974
84.9609 108.8370556839184
87.8906 108.86792602282375
90.8203 108.79132260520029
95.2148 109.06705406028563
98.1445 109.38193531281478
101.074 109.46100479065518
105.469 109.39148624365949
108.398 109.63259025413191
112.793 109.68157292379648
117.188 110.11442207075632
120.117 110.40623692924142
124.512 110.4794753974224
128.906 110.21696068041747
133.301 109.76296337416798
139.16 109.63252123495613
143.555 109.93738385396576
147.949 109.90706321369406
153.809 109.88009244286648
159.668 110.03334835801914
165.527 109.49903170123697
171.387 109.50807820585692
177.246 109.51238710363597
183.105 108.46661299634401
188.965 109.00301919245982
196.289 110.13569108249727
203.613 109.90463454028266
210.938 110.15022886565475
218.262 110.23106024187892
225.586 110.33516463118757
232.91 110.23205373684509
241.699 110.11741441264554
250.488 110.24980927791397
259.277 110.23952925518918
268.066 109.80560190261598
276.855 109.94216859435078
287.109 109.81299332112184
297.363 109.96187921612265
307.617 110.04463897638905
319.336 109.80899605436923
329.59 109.60872037841499
341.309 109.3697855863418
353.027 109.55294452838059
366.211 109.82461721766765
379.395 109.7502106417662
392.578 109.20488614022237
405.762 109.29584033002546
420.41 110.25495330144723
435.059 109.86782578123963
451.172 110.4571072174056
465.82 109.68367824518138
483.398 109.48575214886097
499.512 109.67986831587167
517.09 109.2165560618157
536.133 109.09474656297047
555.176 108.92247553128196
574.219 108.39138288827503
594.727 108.27702886828787
615.234 109.12516106462577
637.207 110.31097481640937
659.18 108.63388291962208
682.617 108.54433248959023
707.52 109.94576747861231
732.422 108.09985433518072
757.324 108.14018195900859
785.156 108.58176180941753
811.523 108.55155051808103
840.82 108.6533669111998
870.117 108.83483926577524
900.879 109.54312109995779
933.105 109.46988345946501
965.332 109.8328232819358
1000.49 110.49965066855903
1035.64 110.37309149029481
1072.27 110.43010736467704
1108.89 110.02576842009809
1148.44 110.2408573798604
1189.45 109.15095117569088
1230.47 108.7875124441892
1274.41 108.31679826715697
1319.82 107.29316766034815
1366.7 106.84002742768632
1413.57 105.93772224741689
1463.38 104.96225260555569
1516.11 105.35925443114077
1568.85 105.70512736882445
1624.51 106.10865323910348
1681.64 106.85402919991658
1741.7 105.74146256660754
1803.22 105.57311820517396
1866.21 106.60385718043845
1932.13 105.97182365830805
1999.51 105.63151877280775
2069.82 105.15383249571425
2143.07 106.28532442857079
2219.24 107.4287005934204
2296.88 107.73427295783104
2378.91 108.29717954629054
2462.4 107.68752904292971
2548.83 106.9185391157698
2639.65 106.42827483161689
2731.93 106.51446608679636
2828.61 106.41188237930557
2928.22 106.16480081833625
3030.76 105.78737716345047
3137.7 106.26580181758135
3249.02 106.9374712346289
3363.28 107.67949249341514
3481.93 108.12028263895255
3604.98 108.20765088540715
3732.42 107.4598472924863
3864.26 107.86261110161843
4000.49 108.34925719222551
4141.11 108.14214150723417
4287.6 108.64131592970095
4438.48 108.8378757703166
4595.21 108.8589752453188
4756.35 108.28323433198773
4924.8 107.92841775116615
5097.66 107.48059792943734
5277.83 107.00594844633004
5463.87 107.24647055958783
5657.23 106.51653409516555
5856.45 106.48434293234953
6062.99 107.06013513512076
6276.86 106.22178910455656
6498.05 105.70518474127387
6726.56 105.62319613001702
6963.87 105.68165586861623
7209.96 105.80664179306686
7464.84 105.94730900956004
7727.05 106.36541722354826
7999.51 105.61633580328198
8282.23 105.61384474065099
8573.73 105.77607881464216
8876.95 105.43644462986745
9188.96 105.89233573880499
9514.16 106.22018775305717
9849.61 105.76183520078887
10196.8 106.42759839441082
10555.7 106.66309729252048
10927.7 107.48145079262657
11313.0 107.75845828794328
11712.9 108.38732448397892
12126.0 108.0984913275462
12553.7 108.87904192166764
12996.1 109.3213634555495
13454.6 110.18079432182404
13929.2 110.6989322280075
14419.9 111.35803866717046
14928.2 111.52356301915091
15455.6 110.94575930398321
16000.5 109.982099470361
16564.5 108.72510146858329
17148.9 106.96031082272724
17752.4 104.91065238207196
18379.4 102.7104557395418
19026.9 101.48810517473206
19697.8 101.04330503946643
19999.5 100.72634291574597
