Freq "Rear Wall Bounce"
20.5078 71.07879417201657
21.9727 77.94751301332654
23.4375 81.60756414607822
24.9023 83.32041772340018
26.3672 86.51906205222589
27.832 88.81922658931933
29.2969 91.41469494795132
30.7617 94.12817018583537
32.2266 97.03055670276395
33.6914 99.37219764591245
35.1562 101.73749198521078
36.6211 103.83612545677451
38.0859 105.79639814761045
39.5508 107.36697848294224
41.0156 108.69205650898134
42.4805 109.67056163020435
43.9453 110.2760676820238
45.4102 110.68082024694819
46.875 110.88045947599639
48.3398 110.9350647512243
51.2695 110.73422229641903
52.7344 110.60344924559428
54.1992 110.45969740008029
55.6641 110.27925294523334
58.5938 109.89294322036729
60.0586 109.70752458947511
62.9883 109.28209861206106
64.4531 109.13552186032388
67.3828 108.89127783073909
68.8477 108.78723050623574
71.7773 108.57817488159739
74.707 108.42929960774593
77.6367 108.30281125938468
79.1016 108.24200173996215
82.0312 108.0183938346059
84.9609 107.92640592584435
87.8906 108.31483640166807
90.8203 108.08743227352899
95.2148 107.7304580827573
98.1445 107.49011975037851
101.074 107.58420552689923
105.469 107.71651513250457
108.398 107.69164541448221
112.793 107.55830524793906
117.188 108.09876899328455
120.117 108.36301973758842
124.512 108.38145336276807
128.906 107.93342726410545
133.301 107.92230962917628
139.16 107.6941829233803
143.555 107.47646638980449
147.949 107.41164957872216
153.809 107.06623389383311
159.668 107.25280636024237
165.527 107.03349557700766
171.387 107.38433172425742
177.246 107.12607025154954
183.105 105.9563726575917
188.965 106.51014883892033
196.289 106.63678610714713
203.613 106.41759625642024
210.938 105.77184275470742
218.262 105.80216068430802
225.586 105.84336150100413
232.91 105.6401714077145
241.699 105.39354021555721
250.488 105.00310754053329
259.277 105.37956139119184
268.066 104.97325783215426
276.855 104.6373069826078
287.109 104.66434817939204
297.363 104.42510605751245
307.617 104.41657553885726
319.336 104.17180420426998
329.59 103.79381508451203
341.309 104.05559983818797
353.027 103.15318061040612
366.211 102.44172772149422
379.395 102.68946533066664
392.578 102.66157222703491
405.762 102.66944004252012
420.41 102.6225819735054
435.059 103.29060373595077
451.172 102.91220800924157
465.82 102.8989724168977
483.398 102.56606355851977
499.512 102.33857301725499
517.09 102.96378348578799
536.133 102.19654949119054
555.176 101.1540311154735
574.219 100.75176801425737
594.727 100.69746565774328
615.234 100.44704258933949
637.207 102.76616394875178
659.18 100.29113375834534
682.617 100.88581991728188
707.52 100.08122016191469
732.422 99.01685122836234
757.324 100.18277180782745
785.156 99.53971767758422
811.523 99.93641747099362
840.82 99.56887039853832
870.117 98.93317761959965
900.879 98.4745145888223
933.105 97.91636472363024
965.332 97.36122648814123
1000.49 97.23099773437502
1035.64 96.52209307521117
1072.27 95.28560015892911
1108.89 95.23212181630048
1148.44 97.38216737744274
1189.45 98.00366301038139
1230.47 97.88004678423728
1274.41 95.95765879938214
1319.82 94.57178550805416
1366.7 94.68502640790096
1413.57 93.73708115371183
1463.38 94.85556986294142
1516.11 95.46426140879262
1568.85 95.97630344881088
1624.51 96.17888458094173
1681.64 95.96450521568683
1741.7 96.10376173181207
1803.22 95.36304865971456
1866.21 95.4078288731121
1932.13 95.39437223432941
1999.51 96.31844450687991
2069.82 94.98701596662818
2143.07 95.40473785577497
2219.24 95.37372175791164
2296.88 94.24503336492207
2378.91 94.7625834830233
2462.4 93.32637321052857
2548.83 93.54127503367978
2639.65 93.96995923312608
2731.93 93.36338287793761
2828.61 92.5407752040469
2928.22 92.94547793889305
3030.76 93.51601378133272
3137.7 93.78075254584788
3249.02 93.84040127195944
3363.28 93.2739511101084
3481.93 92.95536430306784
3604.98 94.34776192518413
3732.42 94.70119809607944
3864.26 94.04035026853127
4000.49 93.8221306971146
4141.11 93.32550790611322
4287.6 93.63886519906943
4438.48 92.43048953567295
4595.21 93.18991285018238
4756.35 92.39350237815194
4924.8 92.11605461577332
5097.66 91.77869101956401
5277.83 92.6375698343693
5463.87 91.15441347769774
5657.23 91.80075361182067
5856.45 91.40994310396053
6062.99 91.80580684093486
6276.86 91.18869143744945
6498.05 90.61045609576459
6726.56 90.46851516937011
6963.87 89.94867853905718
7209.96 89.47722062713181
7464.84 88.61251052454219
7727.05 88.97926113131624
7999.51 88.00377739728451
8282.23 88.06360413988175
8573.73 87.9654605422811
8876.95 87.06719111717776
9188.96 86.88381126786298
9514.16 86.72250123673497
9849.61 85.63788449974079
10196.8 85.84284485554558
10555.7 86.02032718330234
10927.7 85.57463795389414
11313.0 85.36964762643
11712.9 84.92232037813143
12126.0 84.67470241901314
12553.7 84.16585384232629
12996.1 83.83244340873235
13454.6 83.30624870530185
13929.2 83.094784517782
14419.9 82.95845365963497
14928.2 82.59304735783822
15455.6 81.77878762585415
16000.5 80.1339103379912
16564.5 77.60587487678173
17148.9 75.3134533012957
17752.4 73.76515548073756
18379.4 72.91366350891253
19026.9 71.90487095910895
19697.8 71.19028611937809
19999.5 70.44575651220278
