Freq,Floor Bounce,Ceiling Bounce,Front Wall Bounce,Side Wall Bounce,Rear Wall Bounce,Total Early Reflection
22.4,38.23358982687998,38.81213611976858,37.86037116622654,38.12373847126085,39.78121434941983,38.61842732390767
23.0,38.93358982687997,39.51213611976863,38.525161351940426,38.82373847126087,40.41563321657077,39.29546228407912
23.6,39.8669218511605,40.440662562913275,39.525161351940426,39.76244531332597,41.35180158966432,40.240720188925536
24.0,42.33358982687997,42.90123572626638,42.013956159278536,42.279386651672326,43.72322757594384,42.69458102829347
25.0,44.5,45.062357429420786,44.23785355175659,44.453044791357115,45.795939227880126,44.8475818251037
25.8,46.266921851160504,46.79188145404555,46.02856724618675,46.2530447913571,47.49242715685236,46.59948008944585
26.5,47.80000000000001,48.324024870260246,47.59547407139857,47.77082128013342,48.973968802991465,48.1229015159723
27.2,49.099999999999994,49.65380974359445,48.995474071398576,49.127953689586434,50.24345314138819,49.450202565522034
28.0,50.30000000000001,50.81627940083641,50.22060087220012,50.34624855237013,51.413714009847126,50.64319246276477
29.0,51.400000000000006,51.94680983520814,51.28820420841794,51.48706756873534,52.480492535221,51.74346882613315
30.0,52.400000000000006,52.94680983520814,52.38820420841793,52.5082644787565,53.47375433974457,52.76404896144098
30.7,53.400000000000006,53.910077997802915,53.313957504905375,53.465766693859024,54.39195261873667,53.715588468103135
31.5,54.266921851160504,54.81007799780289,54.242021007132934,54.36576669385903,55.2410841095907,54.60275561224111
32.5,55.099999999999994,55.61007799780293,55.042021007132945,55.18432484393327,56.05026148776406,55.41453670425727
33.5,55.8669218511605,56.4100779978029,55.810520792879146,55.965766693859024,56.789445338032266,56.185050534289246
34.5,56.599999999999994,57.11007799780292,56.582252334382815,56.68432484393327,57.498732371712094,56.91009370600679
35.5,57.3669218511605,57.87387961222818,57.38225233438283,57.46349681892873,58.262318802468684,57.68408019672236
36.5,58.66692185116051,59.17387961222818,58.6510436244057,58.76349681892874,59.521449269004904,58.96895789624813
37.5,59.93358982687997,60.405424007326616,59.97762072831634,60.04256842471028,60.725577496224915,60.22776402337598
38.7,61.06692185116049,61.53821129888742,61.147092260645564,61.222945509667696,61.84440602854056,61.373633923608025
40.0,62.099999999999994,62.57001488257475,62.147092260645564,62.261659388302206,62.82426257030164,62.38945637606241
41.2,63.06692185116049,63.50542400732661,63.147092260645564,63.16165938830221,63.74446202834564,63.33287914333286
42.5,63.96692185116051,64.37001488257476,64.03277308256682,64.0616593883022,64.61831791147098,64.21704068429635
43.7,64.7669218511605,65.17001488257478,64.87431116675671,64.9009209770721,65.40694103828707,65.03013994234783
45.0,65.5669218511605,65.97001488257477,65.60263119370126,65.66165938830221,66.16847155038425,65.80037902474581
46.2,66.26692185116049,66.70231994589776,66.40263119370125,66.40092097707209,66.87824280161286,66.53607625500243
47.5,67.06692185116049,67.53513059177983,67.20263119370125,67.2206434330808,67.69817750174133,67.35105042255285
48.7,68.66692185116051,69.10231994589776,68.80263119370126,68.80092097707211,69.2290725521991,68.9254831710248
50.0,70.0669218511605,70.53513059177985,70.24445718403786,70.24027672897047,70.62907255219909,70.34813922472904
51.5,71.3669218511605,71.73513059177984,71.50065786069426,71.5009209770721,71.82219567591136,71.58840989054256
53.0,72.46692185116049,72.83513059177983,72.60065786069426,72.56027588070906,72.8800178739186,72.67158860969604
54.5,73.40076749445561,73.76769521305295,73.60065786069426,73.52064343308079,73.83207148162134,73.62724419554212
56.0,74.30076749445561,74.66769521305294,74.50065786069425,74.42064343308078,74.71491363226096,74.52365251636874
58.0,75.13435140868502,75.46769521305295,75.30065786069426,75.2206434330808,75.51491363226097,75.33005329791017
60.0,75.73435140868503,76.06769521305296,75.90065786069425,75.82064343308079,76.06296635577158,75.91926324863064
61.5,75.90076749445561,76.20076749445562,76.10065786069426,76.00046051294916,76.20476746926397,76.08306819095668
63.0,76.00076749445562,76.30076749445563,76.2431393953378,76.12064343308079,76.26749190921194,76.18797364646451
65.0,76.16692185116051,76.40076749445562,76.34313939533781,76.2206434330808,76.36749190921194,76.30072458184857
67.0,76.2669218511605,76.4669218511605,76.44313939533782,76.32064343308079,76.43585649501303,76.38740245996972
69.0,76.33435140868502,76.5669218511605,76.54313939533782,76.3810980186251,76.49859432970464,76.46577966842331
71.0,76.43435140868503,76.6,76.64313939533783,76.42064343308078,76.54521066859816,76.52956723128528
73.0,76.53435140868503,76.73358982687998,76.7716627539189,76.56119474234183,76.6087549080248,76.64293559182948
75.0,76.70076749445562,76.83358982687999,76.91442746339747,76.66119474234182,76.65598093132496,76.75442027143814
77.5,76.83435140868504,76.93358982687998,77.0716627539189,76.78156054014522,76.76648029120179,76.8790171045341
80.0,76.93435140868502,77.03358982687996,77.1861845050195,76.9013709125901,76.85598093132498,76.98389484614106
82.5,77.10076749445562,77.13358982687998,77.37166275391891,77.0220185188173,76.95573606705327,77.11908744401993
85.0,77.16845083805433,77.20076749445562,77.38618450501949,77.04210173162691,76.94521066859815,77.15113491840953
87.5,77.13435140868503,77.13358982687998,77.38618450501949,76.98338957194298,76.84521066859816,77.1003027403944
90.0,77.10076749445562,77.06769521305293,77.38618450501949,76.88338957194298,76.74521066859816,77.04210088797919
92.5,77.06845083805433,76.96769521305296,77.31508314243884,76.88338957194298,76.64521066859817,76.98153272317441
95.0,77.03513059177982,76.90076749445561,77.28618450501949,76.78338957194299,76.53513512232679,76.91534890003246
97.5,76.96845083805431,76.83513059177983,77.21508314243884,76.66482741630637,76.39311775701077,76.82415382307022
100.0,76.86845083805434,76.73513059177984,77.12979499755905,76.54530504353963,76.24544507986613,76.71502736488151
103.0,76.80306957104251,76.60306957104252,77.08748929892042,76.4467367724147,76.09311775701079,76.61952694417752
106.0,76.73513059177984,76.47001488257476,77.00229476693693,76.30685289384958,75.97244986504063,76.51169274749645
109.0,76.80306957104251,76.53513059177983,77.05907003611941,76.3284439705029,75.98874607896605,76.55866154047438
112.0,76.93513059177982,76.60306957104252,77.20229476693692,76.40920611180408,76.02688029059145,76.65444766120953
115.0,77.00306957104252,76.67001488257478,77.2739725389237,76.43128689490086,76.02688029059145,76.70270382592511
118.0,77.20306957104253,76.80306957104251,77.45907003611941,76.59117509502737,76.16552542437738,76.8680551284719
122.0,77.67001488257478,77.27001488257477,77.93175513861905,77.0133475094747,76.58261532162796,77.31949730386553
125.0,78.10306957104252,77.70306957104252,78.34675150375354,77.41334750947472,76.96909122958472,77.73440680364581
128.0,78.47001488257477,78.00306957104253,78.70229476693693,77.6944829039731,77.24925646712126,78.05510357357787
132.0,78.60306957104251,78.10306957104252,78.84675150375355,77.77680320017618,77.32635147018647,78.16572243899707
136.0,78.67001488257478,78.13821129888743,78.87525122642457,77.79956573618381,77.36708569590972,78.20503185307898
140.0,78.73513059177982,78.13821129888743,78.94675150375355,77.76374273892972,77.3351525455824,78.22467008093304
145.0,78.37001488257476,77.73821129888744,78.54675150375354,77.34375958238675,76.90424518401042,77.8239439732984
150.0,77.87001488257475,77.17150800786939,78.04675150375354,76.80830075647111,76.34209400479887,77.29455488525566
155.0,77.47001488257476,76.63821129888744,77.64675150375353,76.29147205224288,75.7834904540877,76.82281799334548
160.0,77.17001488257478,76.2069050103546,77.31998423401444,75.90245227663601,75.2742128959488,76.44308757341847
165.0,76.87001488257476,75.84283030471974,77.04675150375354,75.5686478294594,74.78484879656223,76.1031679001776
170.0,76.90542400732662,75.81227178315618,77.09044363353323,75.55740017519264,74.50300554473716,76.07445943560124
175.0,77.10542400732662,75.94898514879551,77.34675150375354,75.74187360004247,74.40343236807041,76.2336922258051
180.0,77.24136150423587,75.91916705502754,77.47525122642458,75.8316919845503,74.1326456526454,76.27712797179912
185.0,76.91007799780293,75.5566725593005,77.20489499373622,75.47682699809846,73.39088304293472,75.904031779385
190.0,76.61007799780292,75.22758719283593,76.91998423401444,75.24207582704607,72.79503960515312,75.58255435174314
195.0,76.97928732607434,75.69897445130925,77.34675150375354,75.62753601492295,72.89391049512675,75.96199550502236
200.0,77.47928732607433,76.19897445130925,77.84675150375355,76.11039079867913,73.14775589856475,76.43512939879594
206.0,78.27928732607432,77.02758719283592,78.67525122642456,76.94207582704608,73.85962741991405,77.2461851450756
212.0,78.94898514879551,77.79897445130925,79.4048949937362,77.68490641670749,74.51759448964509,77.96463100185119
218.0,79.14898514879552,78.02758719283591,79.60489499373621,77.94207582704608,74.71546897809546,78.1807270581023
224.0,79.24898514879551,78.19897445130925,79.74675150375354,78.04207582704608,74.8475430552608,78.30910618453632
230.0,79.58219967332305,78.52758719283592,80.07525122642457,78.41677723671054,75.2369977576385,78.65304026558474
236.0,79.81916705502753,78.82758719283592,80.34675150375355,78.64207582704609,75.52735795563181,78.91458153278387
240.0,79.88982856673472,78.89897445130926,80.44675150375355,78.74207582704608,75.65337251638924,79.00416867411323
250.0,79.78982856673471,78.79897445130925,80.4048949937362,78.65690409354569,75.62021276999312,78.92943879266778
258.0,79.4948570588317,78.63752777300029,80.21998423401443,78.45690409354567,75.43169845766498,78.71935807001088
265.0,79.16668552790021,78.33752777300028,80.01998423401444,78.22498802844181,75.16949794818599,78.45753919088122
272.0,78.77717895989804,78.04898359150842,79.75000634017073,77.86781203523978,74.78276940097777,78.12862525851314
280.0,78.25016923070221,77.69506458035829,79.43537086618987,77.43631489701508,74.24657942301492,77.71535922892991
290.0,77.76283617001536,77.43546263134682,79.13924275721993,77.04513806681015,73.56362953343975,77.3324223381756
300.0,77.39749950966174,77.38382334167595,78.93924275721992,76.74102466843934,72.8822992344535,77.06953408386623
307.0,77.28915630129642,77.48382334167594,78.83924275721992,76.62745355433876,72.28871627233586,76.97364807913343
315.0,77.44314826109434,77.80942248426018,78.89366590096782,76.72745355433875,71.93682254766148,77.09424944737806
325.0,77.73257218046558,78.09506458035828,79.09366590096782,76.92745355433874,71.8852914561229,77.31924808575356
335.0,77.86096514237184,78.2950645803583,79.17848478147016,77.10086940526011,71.92204553184479,77.45493291662144
345.0,77.98982856673473,78.32179738688895,79.21998423401445,77.17758224742104,71.9558538418687,77.5182670679946
355.0,77.98982856673473,78.22179738688895,79.17848478147016,77.15766281516856,71.98507645865304,77.48004093237712
365.0,77.88623512455237,77.96194867563767,79.07848478147017,76.99130985335836,71.97886386581258,77.33488726385247
375.0,77.61916705502753,77.43546263134682,78.79366590096781,76.6714534289255,71.84206891098101,77.00185006441201
387.0,77.32402487026023,76.87641629732153,78.53924275721991,76.27145342892548,71.70601922022595,76.65282550860229
400.0,77.1566725593005,76.33469773360899,78.41363940606881,75.9679765340633,71.68297195158586,76.40704128672436
412.0,77.19471929119203,76.02875610128315,78.47602210108667,75.71707239352735,71.67328652137536,76.33260753731939
425.0,77.13331023801675,76.09389595883673,78.58242230727826,75.37226621172238,71.35696214412748,76.28661672106469
437.0,77.03331023801675,76.8260245235669,78.67455785944568,75.21581380185764,70.68099382984468,76.38059509061902
450.0,76.92402487026023,78.12875610128314,78.87455785944566,75.38918864511194,69.89744441775144,76.73517285291206
462.0,76.80934661896389,79.20034112939828,78.958217088195,75.59783021785343,69.43021518872712,77.07368185005234
475.0,76.73435140868503,79.8094224842602,78.8106896630263,75.55031724377332,69.32417232149228,77.21563366405971
487.0,77.13821129888743,80.20942248426019,78.71068966302632,75.46843243010377,69.68569925091423,77.41182500877994
500.0,78.1098662867233,80.5094224842602,78.71068966302632,75.24869155505597,70.1051457758031,77.71150824087425
515.0,79.40531806766471,80.72526453928847,78.98664191481758,75.13449007328278,70.41182701153136,78.17141103155765
530.0,80.90231994589774,80.96136837622764,79.6106896630263,75.43088031354134,70.5979302154837,78.87272079793846
545.0,81.97150800786937,80.9586572401787,80.18847217927515,76.08557869645904,70.55458720753623,79.43052176169655
560.0,82.4404416794549,80.6361070797735,80.3677916354448,76.594287786533,70.53073542938093,79.60913943409699
580.0,82.34044167945491,79.9694198636673,79.99366590096781,76.50248825124008,70.34790169885645,79.3053516245162
600.0,81.6457671943847,78.6917981567741,78.93924275721992,75.60909083176348,69.69240942284317,78.37709457298601
615.0,80.67977745790569,77.02812100489949,77.57602210108666,74.38935908698893,68.86592920512855,77.15655948607825
630.0,79.88493492460849,75.53392832814568,76.66346945585212,73.46133680802525,68.38004396763108,76.20348568100016
650.0,79.63647412390415,74.51753803239933,76.8430337046988,73.53625121255524,68.52180838604721,75.98347735666245
670.0,79.41152326304965,74.2252645392885,77.62076211162325,74.12991518249329,68.58592812821539,76.12160988159897
690.0,78.80324612052704,74.81832544184971,78.27091054784844,74.60017505998556,68.30054459357325,76.21180050228091
710.0,77.83012177221653,75.6586572401787,78.45378373474547,74.49027343045044,67.6527214639525,76.05235014977981
730.0,76.95597330084368,76.0361070797735,78.23698126844559,73.93194544982157,66.99739963248527,75.70841296897184
750.0,76.44273297424512,76.21395652088275,78.03698126844557,73.36252958435729,66.49918391395886,75.45790164156473
775.0,76.58067853625087,76.43753193576904,78.31467853559538,73.37424974976315,66.34229228850222,75.64498905460675
800.0,77.14552333168527,76.60921140720403,78.80470702014276,73.69168047558676,66.46846332536205,76.0509891703915
825.0,77.55131759580826,76.43012177221655,78.95378373474549,73.64937400570932,66.42510012284421,76.17023461374094
850.0,77.42154865751024,75.99735269262824,78.60343598990846,73.1727561353106,65.89613119652796,75.84702295743105
875.0,76.97089600007291,75.53898164121286,78.05378373474547,72.8905092980815,65.21787122610186,75.37184321394433
900.0,76.74171952330977,75.23779821661222,77.82758020744902,73.02642717985718,64.87868519628219,75.16976642642776
925.0,76.70937829065056,75.34680047887706,77.87933498230336,73.1749326894751,64.94479092748206,75.2215203229961
950.0,76.50937829065057,75.97383110211923,78.13443179205893,73.4202081756002,65.21135235433482,75.43361313006008
975.0,76.04053501177822,76.43268615537792,78.48810079587952,73.33990439284149,65.01780390809641,75.55139203055342
1000.0,75.09430017477814,75.9552233498861,78.75990168395998,72.62712989416337,63.615580180923786,75.25018932536483
1030.0,74.29701044706327,74.82361409713276,79.03900047053698,71.97155167721213,61.135151164048835,74.8983063539982
1060.0,73.96072651529059,74.04475297190879,79.33900047053697,72.34868501300996,60.177186369650855,74.89589785283492
1090.0,73.3661933542953,73.59562483724392,79.3209322824358,72.4983664581893,60.80196834847784,74.74500445503122
1120.0,72.47693080019971,72.40488091921367,78.43558959632256,71.58334501660961,60.34074720770198,73.81364913227124
1150.0,71.82310337940993,71.44511556931755,77.3719469475759,70.466902808008,59.14482134293368,72.82036563562028
1180.0,71.60846207868008,71.44576719438469,77.01821823412565,70.15787011332458,59.037899017195855,72.54951806678777
1220.0,71.5768487574927,71.71007799780291,76.97146493467719,70.08619589524139,59.860246286969016,72.56054911337081
1250.0,71.2238350891635,72.28623512455238,76.7905990331365,69.59241768515915,59.616203481724895,72.45329759111678
1280.0,70.78946414237149,73.24142122357895,77.07194694757591,70.10233100398801,59.39727602413227,72.7944546592588
1320.0,70.98024791758148,73.18155742752326,77.40630283696369,70.37674690867536,59.93016703725368,73.02160868604508
1360.0,71.52493630578654,72.2261903437016,77.62161022310963,70.03074798152107,59.402948540829414,72.99623282141351
1400.0,72.50566507474113,72.3124686922008,78.3408387732568,70.52324301037925,58.354245500980895,73.61913952136564
1450.0,74.42303060258374,73.6547244369318,79.34205096067419,71.76892211119358,58.52340385286787,74.84497122722902
1500.0,75.29278094266247,73.93012177221655,79.34205096067419,71.85672553126605,58.89466188002396,75.06769853573226
1550.0,76.05062128010363,73.30199903162156,78.9547071681927,71.5862114791591,59.66125251304544,74.93065241447616
1600.0,76.45866027600835,72.40427244119465,78.51270144512385,71.11619437899347,60.033599318012634,74.67106539511697
1650.0,76.23268995610312,70.84195058596991,77.65653165662421,70.23053950705062,58.88712262101936,73.93604355839028
1700.0,76.42747332942243,70.44095755448734,77.615254614353,70.59152111009527,58.89492381916105,73.97864366527565
1750.0,76.50811906767211,69.97324436023831,77.615254614353,71.1728303006766,59.3379248648404,74.02763175323958
1800.0,76.00622691122362,68.88955002378458,77.4664175640215,71.02208460981262,59.88296915562857,73.6936235452177
1850.0,75.89610594191718,69.1226888805202,77.76161780213287,71.56388096324493,60.17364669821605,73.87894232609162
1900.0,75.46602649447892,69.10721172860906,77.44677321274467,71.2189318101629,59.839122080490114,73.54491089367691
1950.0,75.66812895785311,71.0560388500297,77.47193411852949,70.98214749424798,58.8459805727004,73.75885827209764
2000.0,76.21468177419275,72.5429397936019,78.13686420206855,72.17838300468507,59.11567247412856,74.54029255944555
2060.0,76.26887463636015,73.32269060187875,78.62592276335052,72.892575668143,60.60482516626051,74.97860329908323
2120.0,76.26286727264082,72.47527174076421,78.81897457933326,72.35125243597275,61.52389465457303,74.90719256808228
2180.0,75.74852360330587,71.72297870459897,79.15923203800298,72.57155480527518,60.62943745223566,74.88759160924089
2240.0,75.16644862347796,70.68107444645536,79.25311111393847,72.32946124867475,60.37380644016662,74.68181549636518
2300.0,74.45154205743347,69.36268190818896,79.29498017982735,71.408948669199,60.46887603304582,74.36060901628477
2360.0,73.51704346558392,67.26390195101067,78.6489647863668,70.71096334634521,58.119487897158734,73.56000309112609
2400.0,73.45898516336177,65.90605539942798,77.7442281282155,69.65100007381702,57.955984900919304,72.80633892780816
2500.0,72.25410086606007,66.67245306478645,77.25438255616916,68.97040511794594,57.6032860676431,72.20416348033261
2580.0,72.1370245814502,68.41246641261479,77.16445932878999,69.77099416547375,57.42116098840002,72.32420496569927
2650.0,71.48382334167594,69.1126839474393,76.20974630488341,69.7617557872133,57.693731689057955,71.7061209910794
2720.0,72.46826674204794,69.27940843630549,77.20081004418651,71.42557109505452,59.1037340248906,72.70976223897694
2800.0,72.98219671845801,68.38175364414865,78.25802016372604,71.63671648811017,60.188188791284006,73.39807609115722
2900.0,74.93393195677211,67.9205918270593,79.57814647891836,73.11111644333424,60.64842050681925,74.76294307036025
3000.0,75.60324612052703,67.91701653235828,79.6238544427264,73.55283751111195,61.2884334657972,75.00332907043065
3070.0,74.22747332942242,67.59022562113026,79.52385444272639,73.8580695693257,60.744185514853356,74.69306978048493
3150.0,74.3281364585369,68.01906416705698,79.48198043789571,73.46094625405652,59.574565497163974,74.6322736618298
3250.0,73.6086769027542,67.13000009243015,79.38280676012054,72.58161904304474,59.26742477327048,74.2760237398594
3350.0,72.88881761960128,65.4907203388378,78.52665233501483,72.3379833043194,58.58857561881875,73.50532504580374
