Freq "Front Wall Bounce"
22.4 37.56543445736577
23.0 38.23022464307965
23.6 39.23022464307965
24.0 41.71901945041776
25.0 43.94291684289581
25.8 45.73363053732598
26.5 47.300537362537796
27.2 48.7005373625378
28.0 49.92566416333935
29.0 50.99326749955716
30.0 52.09326749955716
30.7 53.0190207960446
31.5 53.94708429827216
32.5 54.74708429827217
33.5 55.51558408401837
34.5 56.28731562552204
35.5 57.08731562552205
36.5 58.35610691554493
37.5 59.682684019455564
38.7 60.85215555178479
40.0 61.85215555178479
41.2 62.85215555178479
42.5 63.737836373706045
43.7 64.57937445789594
45.0 65.30769448484048
46.2 66.10769448484048
47.5 66.90769448484048
48.7 68.50769448484048
50.0 69.94952047517708
51.5 71.20572115183349
53.0 72.30572115183348
54.5 73.30572115183348
56.0 74.20572115183347
58.0 75.00572115183348
60.0 75.60572115183348
61.5 75.80572115183348
63.0 75.94820268647703
65.0 76.04820268647704
67.0 76.14820268647705
69.0 76.24820268647704
71.0 76.34820268647705
73.0 76.47672604505813
75.0 76.6194907545367
77.5 76.77672604505813
80.0 76.89124779615872
82.5 77.07672604505814
85.0 77.09124779615871
87.5 77.09124779615871
90.0 77.09124779615871
92.5 77.02014643357806
95.0 76.99124779615872
97.5 76.92014643357807
100.0 76.83485828869827
103.0 76.79255259005964
106.0 76.70735805807615
109.0 76.76413332725863
112.0 76.90735805807614
115.0 76.97903583006293
118.0 77.16413332725864
122.0 77.63681842975828
125.0 78.05181479489276
128.0 78.40735805807616
132.0 78.55181479489278
136.0 78.58031451756379
140.0 78.65181479489277
145.0 78.25181479489277
150.0 77.75181479489277
155.0 77.35181479489276
160.0 77.02504752515367
165.0 76.75181479489277
170.0 76.79550692467245
175.0 77.05181479489276
180.0 77.1803145175638
185.0 76.90995828487544
190.0 76.62504752515366
195.0 77.05181479489276
200.0 77.55181479489278
206.0 78.38031451756379
212.0 79.10995828487543
218.0 79.30995828487544
224.0 79.45181479489277
230.0 79.7803145175638
236.0 80.05181479489278
240.0 80.15181479489277
250.0 80.10995828487543
258.0 79.92504752515366
265.0 79.72504752515367
272.0 79.45506963130995
280.0 79.1404341573291
290.0 78.84430604835916
300.0 78.64430604835914
307.0 78.54430604835915
315.0 78.59872919210704
325.0 78.79872919210705
335.0 78.88354807260939
345.0 78.92504752515367
355.0 78.88354807260939
365.0 78.78354807260939
375.0 78.49872919210704
387.0 78.24430604835914
400.0 78.11870269720804
412.0 78.1810853922259
425.0 78.28748559841749
437.0 78.37962115058491
450.0 78.57962115058488
462.0 78.66328037933422
475.0 78.51575295416552
487.0 78.41575295416554
500.0 78.41575295416554
515.0 78.69170520595681
530.0 79.31575295416553
545.0 79.89353547041438
560.0 80.07285492658403
580.0 79.69872919210704
600.0 78.64430604835914
615.0 77.28108539222589
630.0 76.36853274699135
650.0 76.54809699583802
670.0 77.32582540276248
690.0 77.97597383898767
710.0 78.1588470258847
730.0 77.94204455958482
750.0 77.7420445595848
775.0 78.0197418267346
800.0 78.50977031128198
825.0 78.65884702588471
850.0 78.30849928104769
875.0 77.75884702588469
900.0 77.53264349858824
925.0 77.58439827344259
950.0 77.83949508319816
975.0 78.19316408701874
1000.0 78.4649649750992
1030.0 78.7440637616762
1060.0 79.0440637616762
1090.0 79.02599557357503
1120.0 78.14065288746178
1150.0 77.07701023871513
1180.0 76.72328152526488
1220.0 76.67652822581641
1250.0 76.49566232427573
1280.0 76.77701023871514
1320.0 77.11136612810292
1360.0 77.32667351424885
1400.0 78.04590206439603
1450.0 79.04711425181341
1500.0 79.04711425181341
1550.0 78.65977045933192
1600.0 78.21776473626308
1650.0 77.36159494776344
1700.0 77.32031790549223
1750.0 77.32031790549223
1800.0 77.17148085516072
1850.0 77.4666810932721
1900.0 77.1518365038839
1950.0 77.17699740966872
2000.0 77.84192749320778
2060.0 78.33098605448974
2120.0 78.52403787047248
2180.0 78.86429532914221
2240.0 78.9581744050777
2300.0 79.00004347096657
2360.0 78.35402807750603
2400.0 77.44929141935472
2500.0 76.95944584730839
2580.0 76.86952261992921
2650.0 75.91480959602264
2720.0 76.90587333532574
2800.0 77.96308345486527
2900.0 79.28320977005758
3000.0 79.32891773386562
3070.0 79.22891773386561
3150.0 79.18704372903494
3250.0 79.08787005125977
3350.0 78.23171562615406
3450.0 77.24835928543006
3550.0 77.11254124481604
3650.0 78.98379562761968
3750.0 79.90398436131926
3870.0 80.68618186122563
4000.0 80.16000821080183
4120.0 80.99413505755349
4250.0 79.35496630805423
4370.0 78.57370434952564
4500.0 78.80791670108856
4620.0 79.79281653686917
4750.0 78.8968208507794
4870.0 77.7368263335697
5000.0 78.55643201498336
5150.0 77.28004617346977
5300.0 76.65739295890232
5450.0 77.91894256128364
5600.0 78.8989295102638
5800.0 79.57359079420041
6000.0 80.24465534555254
6150.0 79.58395668590961
6300.0 79.54293781314169
6500.0 79.29388887481132
6700.0 78.61170021551584
6900.0 79.1143984164118
7100.0 78.32861018668015
7300.0 79.26331766026641
7500.0 79.89003588527567
7750.0 79.88166945800586
8000.0 77.84260650543557
8250.0 78.97462220066737
8500.0 78.27410740131957
8750.0 78.82412490608218
9000.0 79.30928575596387
9250.0 79.66642767303028
9500.0 79.40412173063874
9750.0 77.62921056486674
10000.0 78.4156375224224
10300.0 79.49950802259477
10600.0 80.06719921284821
10900.0 78.70543765827162
11200.0 78.14474146056486
11500.0 77.56469411874522
11800.0 73.2578129258332
12200.0 75.93859204718596
12500.0 81.44193391007602
12800.0 79.35414709125503
13200.0 77.41398342469137
13600.0 73.9363128975392
14000.0 75.82040703194016
14500.0 78.53819553174834
15000.0 79.56669329491277
15500.0 75.34695921903334
16000.0 73.62157567162765
16500.0 71.42109651627243
17000.0 69.73307521492242
17500.0 70.2886056766591
18000.0 69.07936254621985
18500.0 67.31760643428714
19000.0 63.715474235619766
19500.0 62.01988401464445
