Freq,On Axis,Listening Window,Sound Power,Early Reflections,Early Reflections DI,Sound Power DI,DI offset
20.507812,67.773374,67.84830890419221,68.02688535747991,67.96607544785597,29.882233456336238,29.821423546712296,30
21.240234,69.96591199999999,69.609394842592,69.56976425092823,69.55306082196681,30.056334020625187,30.039630591663766,30
21.972656,70.53972,70.68076453704072,70.87006184266532,70.80965821619152,29.871106320849194,29.810702694375394,30
22.705078,71.656876,71.79439388910339,71.97804116183947,71.91910059427404,29.875293294829348,29.81635272726392,30
23.4375,72.57274,72.708341545273,72.88901371258055,72.83061192424745,29.87772962102555,29.81932783269245,30
24.169922,73.308076,73.44400651821321,73.62413562081059,73.56547310524539,29.878533412967826,29.819870897402623,30
24.902344,73.886839,74.0253195721889,74.20701894938041,74.14741451936298,29.877905052825923,29.818300622808493,30
25.634766,74.334633,74.4776498271357,74.6627349354976,74.60161145635531,29.876038370780392,29.81491489163811,30
26.367188,74.678528,74.82778675983616,75.01780176261981,74.95468070346563,29.87310605637053,29.809984997216347,30
27.099609,74.946873,75.10381116509838,75.30003967229409,75.23454521822671,29.869265946871664,29.803771492804287,30
27.832031,75.16831800000001,75.33415764950475,75.53761710119404,75.46948743173257,29.864670217772172,29.796540548310702,30
28.564453,75.369733,75.54551568674235,75.75693755312152,75.68603472825946,29.85948095848289,29.78857813362083,30
29.296875,75.573212,75.7597618882085,75.9795621679786,75.90587458282808,29.853887305380425,29.780199720229902,30
30.029297,75.793016,75.9908209116797,76.21907719236727,76.14270351180456,29.84811739987515,29.77174371931244,30
30.761719,76.033712,76.2427776475171,76.47924914348067,76.40036312796937,29.84241451954773,29.76352850403643,30
31.494141,76.290396,76.51023001690268,76.75445455074815,76.67325188484286,29.836978132059826,29.75577546615453,30
32.226562,76.55103100000001,76.78082158600382,77.03228321634954,76.94892602465536,29.83189556134846,29.748538369654284,30
32.958984,76.799995,77.03891330661553,77.29722227895347,77.21179537708721,29.827117929528313,29.741691027662057,30
33.691406,77.021625,77.26910445281153,77.5341208566855,77.44661307863436,29.822491374177176,29.73498359612603,30
34.423828,77.202913,77.45879074008228,77.73065821269138,77.64096970913263,29.817821030949645,29.728132527390898,30
35.15625,77.33511399999999,77.59960987477591,77.87869873497185,77.78666861372723,29.812941261048678,29.72091113980406,30
35.888672,77.41446699999999,77.68803537469886,77.9748164749806,77.88026498752309,29.807770387175765,29.713218899718257,30
36.621094,77.44238,77.72546551957146,78.02033380569752,77.92311746563352,29.802348053937934,29.70513171387394,30
37.353516,77.425303,77.71805554835478,78.02110831192276,77.92118753708506,29.796868011269723,29.696947236432024,30
38.085938,77.374365,77.67633637853221,77.9871255985445,77.88464389382573,29.791692484706488,29.689210779987718,30
38.818359,77.304655,77.61453586228477,77.93180987285824,77.82718165135873,29.78735421092604,29.68272598942653,30
39.550781,77.23394999999998,77.5494041538389,77.87088782517314,77.76488125388754,29.78452289995137,29.678516328665765,30
40.283203,77.18072399999998,77.49840045218865,77.82068291182249,77.71447485822644,29.78392559396221,29.67771754036616,30
41.015625,77.161575,77.47731669093234,77.79591346656233,77.6910886316907,29.786228059241637,29.681403224370015,30
41.748047,77.18852,77.49775894294793,77.80738752888459,77.70586123798309,29.79189770496484,29.690371414063335,30
42.480469,77.266976,77.56520775611477,77.86023689790856,77.76410705997036,29.801100696144417,29.70497085820621,30
43.212891,77.395093,77.67832372411846,77.95330305693155,77.86466060169418,29.813663122424273,29.72502066718691,30
43.945312,77.56469300000002,77.82975616234594,78.07988223812457,78.00063048755068,29.829125674795264,29.749873924221376,30
45.410156,77.977118,78.20018059125435,78.39012057587415,78.33402388350817,29.866156707746185,29.810060015380202,30
46.142578,78.19240899999998,78.39332509795788,78.5500129318352,78.50691371003649,29.8864113879214,29.843312166122686,30
46.875,78.397916,78.57670730145861,78.69924389590723,78.66960903834801,29.907098263110598,29.87746340555138,30
47.607422,78.585292,78.74229658788805,78.83047410650731,78.81447033744205,29.927826250446003,29.91182248138074,30
48.339844,78.749516,78.8852231701462,78.9393603973879,78.93690860380735,29.94831456633885,29.945862772758304,30
49.804688,79.004755,79.09956508628393,79.088090518073,79.11176137681583,29.987803709468096,30.01147456821093,30
50.537109,79.101186,79.17654055651693,79.13408247424056,79.1700503671214,30.00649018939552,30.04245808227637,30
51.269531,79.184229,79.24101805452308,79.16914599477704,79.21677247549658,30.0242455790265,30.071872059746042,30
52.734375,79.33868700000001,79.36231669285148,79.23738543299633,79.306188377747,30.056128315104473,30.124931259855146,30
53.466797,79.422895,79.43267902591704,79.28457846647743,79.36285069278871,30.069828333128328,30.148100559439612,30
54.199219,79.516868,79.51500730415907,79.34617317893816,79.43317733383797,30.081829970321095,30.16883412522091,30
55.664062,79.730962,79.71243097225317,79.50928330917928,79.61167684471687,30.100754127536305,30.203147663073892,30
56.396484,79.842196,79.81818123477153,79.60109215074773,79.71022125286378,30.107959981907754,30.217089084023797,30
57.128906,79.947367,79.91931109482864,79.6900943365821,79.80535356226382,30.113957532564825,30.229216758246537,30
58.59375,80.114053,80.08111769198521,79.83226743798953,79.9579426779988,30.123175013986412,30.248850253995684,30
59.326172,80.167797,80.13375180607987,79.87717683259483,80.00707334298025,30.126678463099623,30.256574973485044,30
60.791016,80.21917,80.18573918086452,79.91790047576943,80.05406029144862,30.131678889415895,30.267838705095087,30
61.523438,80.227221,80.1957732364385,79.92449387896615,80.06266850653216,30.133104729906336,30.271279357472352,30
62.988281,80.264639,80.22976996275997,79.95071113941601,80.09203065614834,30.137739306611635,30.27905882334396,30
64.453125,80.334329,80.31419779734887,80.03819942671859,80.17993995685886,30.134257840490008,30.275998370630276,30
65.185547,80.397542,80.3850909992687,80.11083855274413,80.25290469627492,30.132186302993773,30.27425244652457,30
66.650391,80.562297,80.5659960795645,80.294411218153,80.43809540486868,30.127900674695823,30.271584861411498,30
68.115234,80.742173,80.75680428334196,80.48261189184976,80.63009678511645,30.126707498225514,30.274192391492207,30
68.847656,80.823862,80.84094451605876,80.56276345747861,80.71299511150825,30.127949404550506,30.278181058580145,30
70.3125,80.953681,80.97073297316683,80.67981649874396,80.8368032292483,30.13392974391853,30.290916474422872,30
71.777344,81.03474000000001,81.04862867629845,80.74098237072843,80.90565833955576,30.142970336742692,30.307646305570017,30
73.242188,81.075931,81.08697136675023,80.76155427865486,80.93417995676849,30.152791409981745,30.325417088095378,30
73.974609,81.08527,81.09534917818517,80.76121193961971,80.93783645870063,30.157512719484544,30.33413723856546,30
75.439453,81.086199,81.09451930768124,80.74319367033824,80.9280047494321,30.166514558249133,30.351325637342995,30
76.904297,81.06727399999998,81.07258485777983,80.70314739252878,80.89678747512562,30.17579738265421,30.369437465251053,30
78.369141,81.034994,81.03561869478355,80.64565641583057,80.84913373408098,30.186484960702572,30.38996227895298,30
79.833984,81.000066,80.99581368310884,80.5828723994577,80.79715013902965,30.19866354407918,30.412941283651136,30
81.298828,80.972405,80.96482599907745,80.5280895794636,80.75365409272135,30.2111719063561,30.43673641961385,30
82.763672,80.954165,80.94483587271611,80.48544256439708,80.72219967440707,30.222636198309047,30.459393308319036,30
84.228516,80.939681,80.92858938895067,80.44833817158843,80.69589363635247,30.232695752598204,30.480251217362238,30
85.693359,80.92325799999999,80.90913638092886,80.40893987803138,80.66695349187887,30.242182889049985,30.50019650289748,30
87.158203,80.90638600000001,80.88835419477056,80.36781625576414,80.63611480158221,30.252239393188347,30.520537939006417,30
89.355469,80.895954,80.87286595233903,80.32031365347717,80.60376474932809,30.269101203010933,30.552552298861855,30
90.820312,80.903612,80.87745186643929,80.30350637653736,80.59678969662966,30.28066216980963,30.57394548990193,30
92.285156,80.917303,80.88672919366925,80.29214204227277,80.59508737616994,30.29164181749931,30.59458715139648,30
93.75,80.930446,80.89386407156198,80.27962923488143,80.5921011609419,30.301762910620084,30.614234836680552,30
95.947266,80.94754199999998,80.90295521982631,80.26183753038211,80.58770706195764,30.315248157868666,30.6411176894442,30
97.412109,80.960402,80.91349312535901,80.25696395901909,80.59042997049134,30.32306315486767,30.656529166339922,30
98.876953,80.971638,80.92350715305626,80.25340795364313,80.59329358700525,30.330213566051015,30.67009919941313,30
101.074219,80.969387,80.91518903266613,80.2247887004424,80.57382698424375,30.341362048422383,30.69040033222373,30
102.539062,80.951491,80.88943124357628,80.18326446102432,80.53941232119048,30.3500189223858,30.70616678255196,30
104.736328,80.918456,80.84279626723533,80.10601237507953,80.47594131349318,30.36685495374215,30.7367838921558,30
106.201172,80.903182,80.8306634404696,80.08564195520897,80.45984508361897,30.370818356850634,30.745021485260636,30
108.398438,80.895462,80.82389140676725,80.06364172354087,80.44433238176656,30.379559025000688,30.760249683226377,30
110.595703,80.891294,80.82086946291115,80.04898815533143,80.4342977111561,30.386571751755042,30.77188130757972,30
112.792969,80.902237,80.83338548426288,80.04812779394705,80.43919771371503,30.394187770547845,30.78525769031583,30
114.257812,80.92339199999999,80.85939728652902,80.06655603094744,80.4611883956324,30.398208890896612,30.79284125558158,30
116.455078,80.970437,80.91645137563343,80.11715229046828,80.51452082338268,30.401930552250747,30.799299085165146,30
118.652344,81.02467700000001,80.97791771375408,80.17483521418424,80.5727474458416,30.40517026791248,30.80308249956984,30
120.849609,81.086968,81.04792184146886,80.24055967281744,80.63943468090903,30.40848716055983,30.807362168651423,30
123.046875,81.155499,81.12814593201914,80.31897188889333,80.71871528078013,30.409430651239006,30.809174043125807,30
125.244141,81.210102,81.19145675210433,80.38443594396576,80.78296888020215,30.40848787190218,30.807020808138574,30
127.441406,81.238935,81.2223298675461,80.41746368803838,80.81332600150105,30.40900386604504,30.804866179507712,30
129.638672,81.255004,81.24035356187626,80.43494384099091,80.82883939814555,30.411514163730715,30.80540972088535,30
131.835938,81.26990399999998,81.25993146256184,80.45229256449812,80.84589324987346,30.414038212688382,30.807638898063715,30
134.765625,81.280886,81.27370411477081,80.4603233211405,80.85608930683752,30.41761480793329,30.8133807936303,30
136.962891,81.28348099999998,81.27676184249269,80.45647494924027,80.85544860160498,30.421313240887713,30.820286893252415,30
139.160156,81.289613,81.28504567162737,80.45789334713034,80.86058639400169,30.424459277625687,30.827152324497035,30
142.089844,81.30537599999998,81.30456531293446,80.47093086278116,80.87825373033336,30.4263115826011,30.833634450153298,30
144.287109,81.321261,81.32616897820735,80.49023757319172,80.900018529975,30.42615044823235,30.83593140501563,30
147.216797,81.342446,81.35596382500069,80.51915733164881,80.9305587918861,30.425405033114586,30.836806493351872,30
149.414062,81.351465,81.3686676271867,80.5291975529923,80.94242784291212,30.42623978427457,30.839470074194395,30
152.34375,81.36336,81.38500194549322,80.53736375247804,80.95523007894933,30.429771866543888,30.84763819301517,30
155.273438,81.356422,81.38332179745544,80.52765079047728,80.94954518101717,30.433776616438266,30.855671006978156,30
157.470703,81.334454,81.35582799601373,80.49047717732033,80.91626345085885,30.43956454515488,30.8653508186934,30
160.400391,81.29872000000002,81.32099763268657,80.44150960825401,80.87434596083257,30.446651671854,30.87948802443256,30
163.330078,81.24576599999999,81.27565508534961,80.38546594510034,80.82414243482573,30.45151265052388,30.890189140249277,30
166.259766,81.158461,81.17333977530548,80.26064547042519,80.70865134651801,30.46468842878747,30.91269430488029,30
169.189453,81.070951,81.08398532574661,80.14436332433415,80.60590670172301,30.478078624023595,30.93962200141246,30
172.119141,80.990608,81.0128692829241,80.05423977977412,80.52709673937768,30.485772543546418,30.95862950314998,30
175.048828,80.900185,80.9154892514371,79.93165430114213,80.4181438731073,30.497345378329797,30.983834950294963,30
178.710938,80.798585,80.82866024964835,79.81911262999496,80.32355323795964,30.505107011688708,31.00954761965339,30
181.640625,80.718205,80.75497565535372,79.72717463304326,80.24431444359905,30.510661211754666,31.027801022310456,30
185.302734,80.619059,80.66311678835523,79.60585596059168,80.14288497125519,30.52023181710004,31.057260827763542,30
188.232422,80.553596,80.61206659971802,79.53785791436722,80.08842700246203,30.523639597255993,31.074208685350797,30
191.894531,80.480414,80.53983036861695,79.43119362812475,80.00085408130276,30.538976287314185,31.1086367404922,30
194.824219,80.426079,80.49572333928947,79.3562852194573,79.94292867001904,30.552794669270426,31.139438119832164,30
198.486328,80.357627,80.42437164472024,79.23162804897042,79.84500458715587,30.57936705756437,31.192743595749818,30
202.148438,80.2772,80.34737894461016,79.08533657887153,79.73156109305341,30.61581785155674,31.262042365738623,30
205.810547,80.19723499999999,80.2538344127206,78.89160151995702,79.58317934587342,30.670655066847175,31.362232892763572,30
209.472656,80.13545,80.18347916147171,78.68667681396296,79.44352145664283,30.739957704828882,31.496802347508748,30
213.134766,80.10234100000001,80.13261652638545,78.47856639355646,79.31431067681372,30.81830584957173,31.654050132828985,30
216.796875,80.116358,80.1284033372253,78.28905246770078,79.22281485084208,30.90558848638321,31.83935086952451,30
220.458984,80.1975,80.19349867760725,78.17468095774446,79.2085788735124,30.984919804094858,32.018817719862795,30
224.853516,80.357606,80.33194919347885,78.14586285427153,79.273030847923,31.058918345555853,32.18608633920732,30
228.515625,80.497242,80.44927168663084,78.19701566006962,79.35890764750097,31.090364039129867,32.25225602656121,30
232.910156,80.659071,80.57457775851351,78.29102240802696,79.45978382345366,31.11479393505985,32.28355535048655,30
236.572266,80.764398,80.66663625413673,78.38713770690951,79.54417081491314,31.12246543922359,32.27949854722722,30
240.966797,80.879155,80.76384621945223,78.4927571320409,79.63475867412015,31.129087545332084,32.27108908741134,30
245.361328,80.94691100000001,80.81098641403156,78.54773371994773,79.67277984162399,31.13820657240757,32.26325269408383,30
249.755859,80.95623099999999,80.80553288774418,78.55181576565421,79.65596289944703,31.149569988297145,32.25371712208997,30
254.150391,80.914567,80.73403568460691,78.48698034487809,79.56123905813591,31.172796626470998,32.24705533972882,30
258.544922,80.842724,80.63949621863752,78.38490306319694,79.45349907632415,31.18599714231337,32.254593155440574,30
262.939453,80.790425,80.57704453220961,78.22075996268786,79.35505779951707,31.221986732692542,32.35628456952175,30
268.066406,80.73627,80.57337638710257,78.1117012574507,79.31008542373633,31.263290963366245,32.461675129651866,30
272.460938,80.645841,80.52799265168657,77.98677282967773,79.22897873643393,31.299013915252644,32.54121982200884,30
277.587891,80.58484399999999,80.46156081971777,77.8185582920774,79.10989178122355,31.351669038494222,32.64300252764038,30
281.982422,80.574922,80.41407488807083,77.6847453691356,79.01253435836195,31.401540529708882,32.72932951893523,30
287.109375,80.57133500000002,80.36716006236489,77.54652728254347,78.9115865951237,31.455573467241194,32.82063277982142,30
292.236328,80.551408,80.30244623969506,77.41211124411114,78.80647908067301,31.495967159022044,32.89033499558391,30
297.363281,80.532951,80.24794473922243,77.29857803649946,78.71922962098733,31.528715118235098,32.94936670272297,30
302.490234,80.545856,80.22920450553904,77.23509771751198,78.67227915267217,31.55692535286687,32.99410678802707,30
308.349609,80.61948400000001,80.26582087158158,77.2344983298714,78.68678499154595,31.579035880035633,33.03132254171018,30
313.476562,80.734605,80.36943329875949,77.32342517602524,78.78551335208219,31.583919946677298,33.04600812273425,30
319.335938,80.880931,80.51421732075181,77.47459177587771,78.93493561071364,31.579281710038174,33.0396255448741,30
324.462891,80.94696999999998,80.58334716386254,77.55024749479567,79.0075985665681,31.575748597294435,33.03309966906687,30
330.322266,80.982743,80.61344068858872,77.56187547982803,79.02790564339314,31.585535045195584,33.05156520876069,30
336.181641,80.958595,80.58578890256875,77.482437892525,78.97936272707852,31.606426175490228,33.10335101004375,30
342.041016,80.896273,80.51228709251575,77.34091110704759,78.87178708341102,31.640500009104727,33.17137598546816,30
348.632812,80.828058,80.48432183655626,77.31831846092388,78.85440262303973,31.62991921351653,33.166003375632386,30
354.492188,80.75456799999999,80.41108596018641,77.37600125202646,78.8554461408513,31.555639819335113,33.03508470815996,30
361.083984,80.696646,80.37712446801186,77.43335328299273,78.88547930956547,31.49164515844639,32.94377118501913,30
366.943359,80.66635700000002,80.3734057510507,77.5038078517937,78.90926553720037,31.464140213850328,32.869597899257,30
373.535156,80.590942,80.33461339035517,77.5923857418842,78.90907230705845,31.42554108329672,32.74222764847097,30
380.126953,80.517697,80.27958726517339,77.6220477610185,78.88452684595279,31.3950604192206,32.6575395041549,30
386.71875,80.546469,80.34215246174246,77.62480557345006,78.95256572201446,31.389586739728003,32.7173468882924,30
394.042969,80.646058,80.46496036961638,77.64597662823489,79.06836784832687,31.396592521289506,32.81898374138149,30
400.634766,80.70855,80.55033490216698,77.68700917976976,79.15755392081174,31.392780981355244,32.86332572239722,30
407.958984,80.752898,80.62545611739235,77.7277601786725,79.22991195912861,31.395544158263732,32.89769593871985,30
415.283203,80.74660199999998,80.65523470531343,77.71343625856275,79.25207200165559,31.40316270365784,32.94179844675068,30
422.607422,80.639813,80.58275676222858,77.5720898973314,79.1625897395168,31.42016702271178,33.01066686489719,30
429.931641,80.467609,80.45605291361696,77.37305624865975,79.02256583935034,31.433487074266623,33.08299666495721,30
437.255859,80.267798,80.31684985575181,77.19723574626984,78.88247838416821,31.434371471583603,33.11961410948197,30
445.3125,80.069665,80.18221214028803,77.05376617078396,78.74236865099563,31.4398434892924,33.12844596950407,30
452.636719,79.971757,80.10709837444908,76.98361573762368,78.66509824294218,31.4420001315069,33.1234826368254,30
460.693359,79.925944,80.07022725268826,76.96684746713018,78.63194603090078,31.438281221787477,33.103379785558076,30
468.75,79.945347,80.07820762525894,76.95509845727243,78.62625064118374,31.451956984075196,33.12310916798651,30
477.539062,80.029807,80.15425697395852,76.93832582120835,78.66832721492686,31.485929759031663,33.21593115275017,30
485.595703,80.156413,80.25939757867647,76.90644767724577,78.72226238292593,31.537135195750537,33.352949901430705,30
494.384766,80.296699,80.41562637042178,76.97434581232837,78.85590311932268,31.5597232510991,33.44128055809341,30
503.173828,80.420124,80.55761802620209,77.05205860929222,78.96727605653417,31.590341969667918,33.505559416909875,30
511.962891,80.495937,80.6249854066086,77.05528960555999,78.98879713795056,31.636188268658046,33.56969580104861,30
520.751953,80.501288,80.61689728870482,77.00760491412863,78.94001677158994,31.67688051711488,33.609292374576185,30
529.541016,80.41246400000001,80.55540206835322,76.98137577736505,78.87801128489498,31.677390783458236,33.57402629098817,30
