Freq "On Axis"
20.507812 67.77337399999999
21.240234 69.965912
21.972656 70.53972000000002
22.705078 71.656876
23.4375 72.57274
24.169922 73.308076
24.902344 73.886839
25.634766 74.334633
26.367188 74.678528
27.099609 74.946873
27.832031 75.168318
28.564453 75.369733
29.296875 75.573212
30.029297 75.793016
30.761719 76.033712
31.494141 76.290396
32.226562 76.551031
32.958984 76.799995
33.691406 77.021625
34.423828 77.202913
35.15625 77.335114
35.888672 77.414467
36.621094 77.44238
37.353516 77.425303
38.085938 77.37436500000001
38.818359 77.304655
39.550781 77.23395
40.283203 77.180724
41.015625 77.161575
41.748047 77.18852
42.480469 77.266976
43.212891 77.395093
43.945312 77.564693
45.410156 77.97711800000002
46.142578 78.192409
46.875 78.397916
47.607422 78.58529199999998
48.339844 78.749516
49.804688 79.004755
50.537109 79.101186
51.269531 79.184229
52.734375 79.338687
53.466797 79.42289500000001
54.199219 79.516868
55.664062 79.730962
56.396484 79.842196
57.128906 79.947367
58.59375 80.11405299999998
59.326172 80.16779700000001
60.791016 80.21917000000002
61.523438 80.227221
62.988281 80.264639
64.453125 80.334329
65.185547 80.397542
66.650391 80.562297
68.115234 80.74217300000001
68.847656 80.82386200000002
70.3125 80.95368100000002
71.777344 81.03474
73.242188 81.075931
73.974609 81.08527
75.439453 81.086199
76.904297 81.067274
78.369141 81.034994
79.833984 81.000066
81.298828 80.972405
82.763672 80.954165
84.228516 80.939681
85.693359 80.923258
87.158203 80.906386
89.355469 80.89595399999999
90.820312 80.903612
92.285156 80.917303
93.75 80.930446
95.947266 80.947542
97.412109 80.960402
98.876953 80.971638
101.074219 80.969387
102.539062 80.951491
104.736328 80.918456
106.201172 80.903182
108.398438 80.89546200000001
110.595703 80.891294
112.792969 80.902237
114.257812 80.923392
116.455078 80.970437
118.652344 81.024677
120.849609 81.086968
123.046875 81.155499
125.244141 81.210102
127.441406 81.238935
129.638672 81.25500399999999
131.835938 81.269904
134.765625 81.280886
136.962891 81.283481
139.160156 81.289613
142.089844 81.305376
144.287109 81.32126099999999
147.216797 81.342446
149.414062 81.351465
152.34375 81.36336
155.273438 81.35642199999998
157.470703 81.334454
160.400391 81.29872
163.330078 81.245766
166.259766 81.158461
169.189453 81.070951
172.119141 80.990608
175.048828 80.900185
178.710938 80.798585
181.640625 80.71820500000001
185.302734 80.619059
188.232422 80.553596
191.894531 80.480414
194.824219 80.42607899999999
198.486328 80.35762699999998
202.148438 80.2772
205.810547 80.197235
209.472656 80.13544999999999
213.134766 80.102341
216.796875 80.11635799999999
220.458984 80.19750000000002
224.853516 80.357606
228.515625 80.497242
232.910156 80.659071
236.572266 80.764398
240.966797 80.879155
245.361328 80.946911
249.755859 80.956231
254.150391 80.914567
258.544922 80.842724
262.939453 80.790425
268.066406 80.73627000000002
272.460938 80.645841
277.587891 80.584844
281.982422 80.574922
287.109375 80.571335
292.236328 80.551408
297.363281 80.532951
302.490234 80.545856
308.349609 80.619484
313.476562 80.734605
319.335938 80.880931
324.462891 80.94697
330.322266 80.982743
336.181641 80.958595
342.041016 80.896273
348.632812 80.828058
354.492188 80.754568
361.083984 80.696646
366.943359 80.666357
373.535156 80.590942
380.126953 80.517697
386.71875 80.546469
394.042969 80.646058
400.634766 80.70855
407.958984 80.75289799999999
415.283203 80.746602
422.607422 80.639813
429.931641 80.467609
437.255859 80.267798
445.3125 80.069665
452.636719 79.971757
460.693359 79.92594400000002
468.75 79.945347
477.539062 80.029807
485.595703 80.156413
494.384766 80.29669900000002
503.173828 80.420124
511.962891 80.495937
520.751953 80.501288
529.541016 80.412464
539.0625 80.371838
548.583984 80.45492299999998
558.105469 80.559765
568.359375 80.758305
577.880859 80.885242
588.134766 80.79621899999998
598.388672 80.555431
609.375 80.23198
619.628906 80.011859
630.615234 79.980138
641.601562 80.122666
653.320312 80.283377
665.039062 80.335142
676.025391 80.32437000000002
688.476562 80.27349000000001
700.195312 80.21676099999999
712.646484 80.262775
725.097656 80.32362699999999
738.28125 80.216018
750.732422 80.000215
763.916016 79.8279
777.832031 79.757744
791.015625 79.848614
804.931641 80.029111
818.847656 80.151884
833.496094 80.143722
848.144531 80.047898
862.792969 80.112626
878.173828 80.424956
893.554688 80.66723400000001
909.667969 80.453777
925.048828 80.106941
941.894531 79.872208
958.007812 79.85302300000001
974.853516 79.885468
991.699219 79.533467
1009.277344 79.05091
1026.855469 79.043812
1045.166016 79.389387
1063.476562 79.460773
1081.787109 79.25932
1100.830078 79.45783800000001
1120.605469 80.042452
1140.380859 80.227791
1160.15625 80.008232
1180.664062 80.073958
1201.171875 80.34582700000001
1222.412109 80.29442500000002
1243.652344 79.940154
1265.625 79.544624
1287.597656 79.528814
1310.302734 79.45779000000002
1333.007812 79.120952
1356.445312 79.170324
1379.882812 79.35720899999998
1404.785156 79.203548
1428.955078 79.190436
1453.857422 79.414728
1479.492188 79.216212
1505.859375 79.028225
1532.226562 79.12592899999999
1558.59375 78.79408
1585.693359 78.501649
1613.525391 78.50958699999998
1642.089844 78.193304
1670.654297 78.279492
1699.951172 78.716218
1729.980469 78.797187
1760.009766 79.19966
1790.771484 79.461056
1822.265625 79.47527600000001
1854.492188 79.712931
1886.71875 79.522966
1919.677734 79.564897
1953.369141 79.837592
1987.792969 79.96553699999998
2022.216797 80.191499
2058.105469 80.090685
2093.994141 79.977057
2130.615234 80.03381300000001
2167.96875 79.92361
2206.054688 79.395323
2244.873047 79.063056
2283.691406 78.944448
2323.974609 78.97363900000002
2364.257812 78.930817
2406.005859 78.70205
2447.753906 78.41431700000001
2490.966797 78.298334
2534.179688 78.549266
2578.857422 78.909823
2624.267578 79.358495
2669.677734 79.480599
2716.552734 79.58116899999999
2764.160156 79.519565
2812.5 79.268581
2861.572266 79.255774
2912.109375 79.32779400000001
2962.646484 79.44616400000001
3014.648438 79.367974
3067.382812 78.794932
3120.849609 78.782113
3175.78125 78.965225
3231.445312 78.914037
3287.841797 78.973775
3345.703125 78.978704
3404.296875 79.491726
3463.623047 80.272142
3524.414062 80.610468
3585.9375 80.865136
3648.193359 81.178799
3712.646484 81.22647
3777.099609 80.925531
3843.75 80.529761
3910.400391 80.123434
3979.248047 79.763664
4048.828125 79.78709
4119.873047 80.06185399999998
4191.650391 80.261936
4264.892578 80.49102300000001
4339.599609 80.861264
4415.771484 81.15673700000002
4492.675781 81.258217
4571.044922 81.05200299999998
4651.611328 80.700884
4732.910156 80.336437
4815.673828 80.008565
4899.902344 79.811405
4985.595703 79.77401599999999
5072.753906 79.995641
5161.376953 80.26329
5251.464844 80.43297
5343.75 80.654735
5436.767578 80.826674
5531.982422 80.656718
5628.662109 80.361724
5727.539062 80.25594
5827.148438 80.413236
5929.6875 80.61678
6032.958984 80.91725400000001
6138.427734 81.21380399999998
6246.09375 81.103095
6355.224609 80.854018
6466.552734 80.433171
6579.345703 80.054161
6694.335938 80.055476
6811.523438 80.193083
6930.908203 80.333462
7051.757812 80.254425
7175.537109 79.854422
7300.78125 79.362454
7428.222656 79.144205
7558.59375 79.323267
7690.429688 79.78637699999999
7825.195312 80.303368
7962.158203 80.46475700000002
8101.318359 80.28501
8242.675781 79.961527
8386.962891 79.702279
8533.447266 79.61245
8682.861328 79.719183
8834.472656 79.926308
8989.013672 80.053482
9146.484375 80.081638
9306.152344 80.04378500000001
9468.75 80.124311
9634.277344 80.43361
9802.734375 80.790923
9974.121094 80.801796
10149.169922 80.548861
10326.416016 80.189812
10506.591797 79.72432
10690.429688 78.865442
10877.929688 77.34524100000002
11067.626953 75.707113
11260.986328 74.53359699999999
11458.007812 74.70570600000002
11658.691406 75.697182
11862.304688 76.288193
12069.580078 76.573935
12281.25 76.93609600000002
12495.849609 77.652853
12714.111328 78.664718
12936.767578 79.84173900000002
13162.353516 80.905562
13393.066406 81.478172
13626.708984 81.570315
13865.478516 81.62143599999999
14107.910156 81.784634
14354.003906 81.88190699999998
14605.224609 82.02629000000002
14860.839844 82.35997799999998
15120.117188 82.672829
15384.521484 82.756261
15654.052734 82.72337100000001
15927.246094 82.665029
16205.566406 82.50786300000001
16489.013672 82.35984399999998
16777.587891 82.495959
17070.556641 82.55021
17369.384766 82.017469
17673.339844 81.382097
17981.689453 80.62723300000002
18296.630859 79.180936
18615.966797 77.52996
18941.894531 76.36841
19272.949219 75.663182
19609.863281 75.833301
19952.636719 76.634107
