Freq,Floor Bounce,Ceiling Bounce,Front Wall Bounce,Side Wall Bounce,Rear Wall Bounce,Total Early Reflection
22.4,60.68115504563143,58.50583078559484,59.69157778700017,59.98662383128445,60.189426095381194,59.869204000445905
23.0,61.64789359585896,59.50583078559484,60.633870447884505,60.98662383128445,61.200099818010784,60.8524778729918
23.6,62.581155045631434,60.405830785594844,61.56248778249737,61.88662383128444,62.13713230587727,61.77396317064172
24.0,63.64789359585896,61.50583078559484,62.633870447884505,62.98662383128443,63.23689169436618,62.86047594030656
25.0,64.64789359585896,62.50583078559484,63.633870447884505,64.00736561177972,64.26873296204678,63.871712580600544
25.8,65.78115504563142,63.63865311801921,64.79157778700018,65.14808773725497,65.44769515424653,65.0211302736577
26.5,66.88115504563143,64.7386531180192,65.8631521236656,66.24808773725496,66.53196448494089,66.11228187998833
27.2,68.08115504563145,65.93865311801919,67.09157778700018,67.48845286308219,67.7792137727166,67.33643413530433
28.0,69.24789359585895,67.13865311801919,68.21981860643132,68.64808773725497,68.94253429715508,68.49853822708629
29.0,70.5173350742954,68.3386531180192,69.4631521236656,69.90918593082674,70.24278019338831,69.758135299111
30.0,71.7173350742954,69.5386531180192,70.61981860643132,71.10918593082675,71.44278019338832,70.9500704931563
30.7,72.9173350742954,70.73865311801919,71.8631521236656,72.35036833467885,72.65332374708589,72.16905064976145
31.5,74.14789359585896,71.93865311801919,73.0631521236656,73.57128357714134,73.89597258980675,73.3902402291023
32.5,75.3173350742954,73.10506329113923,74.21981860643132,74.77128357714133,75.10687819232442,74.57261835243392
33.5,76.6173350742954,74.30506329113922,75.41981860643132,75.992582232843,76.31750916108064,75.80340310674094
34.5,77.78726296446227,75.47198514229973,76.59157778700018,77.19258223284302,77.51750916108062,76.98631902746378
35.5,78.9173350742954,76.60506329113922,77.72114503465801,78.37128357714134,78.70190857486108,78.13927537641808
36.5,80.1173350742954,77.70506329113923,78.89157778700017,79.49258223284302,79.88174032281768,79.29881232745137
37.5,81.21733507429542,78.80506329113922,79.99157778700017,80.61426940294331,81.0142345342393,80.41080271278491
38.7,82.35404843993472,79.8386531180192,81.04919485793081,81.75450366703666,82.1142345342393,81.51138713391367
40.0,83.38726296446225,80.93865311801919,82.09157778700018,82.8142694029433,83.18947987954431,82.57066915182571
41.2,84.48726296446227,81.9386531180192,83.121145034658,83.87446076160592,84.23135549062545,83.62261433105535
42.5,85.52423034616675,82.83865311801918,84.09157778700018,84.89623838616659,85.25463677712085,84.62300613609804
43.7,86.4576728231614,83.7386531180192,85.04919485793081,85.85733288466548,86.2238766247094,85.57052060701317
45.0,87.39489185787394,84.63865311801919,85.921145034658,86.77727701218784,87.12999697886934,86.48041477607566
46.2,88.29489185787395,85.47275850419216,86.77771172227081,87.65950623369503,88.04323007500216,87.36350458021471
47.5,89.09489185787393,86.2386531180192,87.54984606801166,88.50311343610407,88.85594781410825,88.16661546204742
48.7,89.86173585043971,86.87275850419216,88.27771172227081,89.23948014131054,89.63231210834675,88.90553411300728
50.0,90.59489185787393,87.50583078559484,88.921145034658,89.98328787552174,90.32997986141496,89.6047434867528
51.5,91.23265048397514,88.04019388291904,89.5073732003349,90.58585118610952,90.94389980828039,90.20773916624961
53.0,91.80403774244846,88.50738323703698,90.00737320033488,91.1472876780712,91.50139499672143,90.74901473097157
54.5,92.30403774244847,88.90738323703698,90.43751731141336,91.6302004651337,91.99706148994647,91.22067044921236
56.0,92.70403774244848,89.20738323703696,90.77969782032005,92.07319760597957,92.42233368165552,91.61502638176646
58.0,93.0425910641395,89.44019388291905,91.06611070442639,92.41820283113155,92.79140793511488,91.94182231208534
60.0,93.2425910641395,89.54253100665235,91.2100339663727,92.66028616329498,93.0274928981178,92.1401072989503
61.5,93.48169127367828,89.57507817371399,91.31003396637271,92.86377858282302,93.18731255324468,92.3070584068825
63.0,93.51469585795542,89.51048729846583,91.34085891228924,92.94752382344164,93.27957575174672,92.35561713056157
65.0,93.58726141903978,89.3789429033674,91.26943038527449,92.97154487030816,93.29233354838249,92.35873383855547
67.0,93.52686067802816,89.1464247953751,91.12746209418853,92.93782970791779,93.2689274561042,92.28411708669974
69.0,93.42686067802816,88.87894290336739,90.92746209418854,92.86030156017735,93.18675442690278,92.1626812523248
71.0,93.30012787149752,88.51514128894213,90.68733015315762,92.76936179052241,93.07538928763054,92.00969958632447
73.0,93.14052592248605,88.15187312634737,90.38733015315762,92.6141609378412,92.91404100131244,91.8123621401607
75.0,93.04052592248604,87.78914168486472,90.1190352180092,92.4619673846849,92.77688118143936,91.64408165015905
77.5,92.88147958846075,87.35887303473368,89.85124094267181,92.35308633604444,92.65935423303245,91.47126157109302
80.0,92.75568457124287,86.92908816139945,89.57974441905256,92.26435336351234,92.52896701813998,91.31072742840988
82.5,92.63032783042769,86.56742072056,89.33847856031666,92.17651672006471,92.46021450861593,91.17770806615303
85.0,92.57232887973534,86.1062990174056,89.09965762240397,92.06957143767283,92.38277645970214,91.05189252257225
87.5,92.44764602776937,85.61719941090783,88.79965762240396,92.00279081688478,92.31434049714858,90.91299685720355
90.0,92.36643166736687,85.1296400169842,88.49477385814829,91.90494896937308,92.25590973027202,90.78384100780707
92.5,92.24283063399461,84.54361412255969,88.16636917473969,91.86380805688022,92.16760253471011,90.644228519467
95.0,92.08667537647344,83.9018062644566,87.8286796662479,91.73255592820342,92.07271553972772,90.46952056777015
97.5,92.0083671294285,83.20836840862327,87.4286796662479,91.63452608161738,91.96927456917173,90.31905962901213
100.0,91.88604819664602,82.40555674952498,87.02624760484743,91.52146821890489,91.88897227138517,90.15904643411724
103.0,91.76412592771432,81.54978572422024,86.62624760484744,91.4452204193771,91.8631196578607,90.02978047670457
106.0,91.6098027866447,80.53728363905154,86.16148954664953,91.29074428784283,91.77562215146393,89.84639327255675
109.0,91.43497286499064,79.41115659962311,85.69725874744199,91.1901399883211,91.67680588364782,89.67235580199059
112.0,91.26154642528749,78.06345595646911,85.13355867376538,91.04880835759933,91.57465700726787,89.48156911353398
115.0,90.98951091476931,76.47401775072798,84.53355867376537,90.7777340246556,91.37386577043897,89.19343175652178
118.0,90.65083552593575,74.72478417759069,83.79725874744199,90.45545684511012,91.14823519753405,88.85846327855919
122.0,90.24955988533631,72.98328230026227,82.96951863151983,90.09308483918493,90.82863274568732,88.46217706520463
125.0,89.83117938280932,71.9154463963081,82.2180115151948,89.65992320942593,90.52101448130617,88.05665005394985
128.0,89.36378786856218,72.32275634387557,81.52350434232471,89.21454914140946,90.1688942659129,87.62983565482978
132.0,89.01500936821094,73.69937198925481,80.99895651530281,88.81531084220563,89.92509010426322,87.30868689009282
136.0,88.6668059770617,75.52528639438174,80.70735805807614,88.33231184884089,89.63745828823244,86.97244384495943
140.0,88.29772084604917,77.2884226636022,80.65324144556602,87.77978717065066,89.27225601226019,86.61055045167372
145.0,87.88421775785115,78.56742072056001,80.85362234912637,87.02369048457858,88.66467042125763,86.12193125895777
150.0,87.62004711125392,79.66173585043973,81.33701714958234,86.22534167451546,88.01911600965987,85.70475171127538
155.0,87.5875308226025,80.59489185787393,81.94378086835604,85.54867973130143,87.40161745792679,85.44930778430653
160.0,87.57595929121213,81.02423034616676,82.41480959602264,85.07323353505005,86.80302253699193,85.24734249050854
165.0,87.56732699263475,81.35083048552391,82.83663063426789,84.6388519762217,86.18916140488827,85.06936823175349
170.0,87.48824958143437,81.38115504563143,82.99316408701876,84.29858838021528,85.70736615809184,84.88185924897344
175.0,87.33125039505424,81.37657129900859,83.11612467128418,84.10528210260051,85.39046688051953,84.73185568279382
180.0,87.23661544404973,81.37351412919355,83.18439827344258,83.93705851985733,85.17109967051078,84.62739232449687
185.0,87.1821679512277,81.30506329113922,83.2917052059568,83.77699602473919,85.06177302603867,84.56509605379654
190.0,87.11468403868757,81.20583078559484,83.41575295416553,83.63820504233746,84.97915416755232,84.50863701675449
195.0,87.23898986591165,81.14327459002665,83.56879940915319,83.62814883070149,84.9979334528177,84.57505211130547
200.0,87.47613205262184,81.18435061721354,83.87798148084092,83.73144703230804,85.19365767697073,84.77588505551032
206.0,87.7331856278876,81.06742072056001,84.15758293182049,83.8306410725614,85.40660141969514,84.97078712628127
212.0,87.81698455867277,80.68914010412867,84.15372286478717,83.69247433198495,85.31638284989738,84.93178503732463
218.0,87.73440406555578,79.95911422566996,83.96541640937119,83.41661903997304,85.1300593670948,84.73411731601364
224.0,87.62686067802817,79.083890113448,83.7214425752892,83.05421585321093,84.84491418538249,84.48007952018762
230.0,87.52686067802817,77.97178031582062,83.37672604505812,82.62969333112576,84.4803176483706,84.18270281428867
236.0,87.58726141903976,76.8130189613268,83.16248778249737,82.35740388608069,84.22703681179613,84.0334270451192
240.0,87.92098867993904,75.40153775973673,83.17771172227081,82.37112946890585,84.18277151009737,84.13883676177694
250.0,88.25523252184144,73.57453201977583,83.13616508997478,82.3935960068743,84.10835405339007,84.24510532146407
258.0,88.32867432107632,70.93187019372024,82.76943038527449,82.19673885371608,83.7282260052763,84.09578098011697
265.0,88.37689307423936,68.23483925361977,82.38733015315762,82.0428916513728,83.35311919406259,83.9605399582347
272.0,88.9268592813786,68.06353351303618,82.49268031417732,82.42875013758359,83.53294613549355,84.3632329014135
280.0,89.74286150775146,70.69669321377374,82.92320437409334,83.21193719851443,84.17939770783491,85.10964666328142
290.0,90.33719151966677,73.33770682657145,83.09078928738407,83.69116333724646,84.65144585650276,85.63914772305274
300.0,90.37032440453689,75.13815064503432,82.7579311817288,83.6642977091005,84.70464547970235,85.65447789313002
307.0,90.21427654482868,76.33156519122612,82.27937445789593,83.39362165016756,84.63364219824388,85.49411921589201
315.0,90.26365393497521,77.59395378167203,82.18468378436171,83.24438699686581,84.69746950245661,85.54235293959742
325.0,90.23680600424218,78.65166021918753,82.24124559264187,82.80875200373566,84.47090969520052,85.48458356573981
335.0,89.93143684784712,79.01412759129904,82.22725530433908,81.78278318109497,83.4832794838928,85.06451176980062
345.0,89.49779094452133,78.79162975425169,82.1984389868984,80.47058877438293,81.89526538986375,84.46712938880863
355.0,89.08332074818024,77.81489184670679,82.02599557357505,79.28421087011972,80.10594435444605,83.86282368277908
365.0,88.60233641080667,76.11572193491695,81.64064864435915,78.39355570401119,78.6702210116805,83.24002339691735
375.0,88.46999364455016,74.3397140563012,81.57419956089275,78.212770671871,78.41873797127727,83.05208529479009
387.0,88.83815266790998,72.94324780468978,82.10255324309475,78.52879274777825,79.18573317446543,83.42979036509924
400.0,88.96732699263475,71.31059957025965,82.44355239032649,78.6237749516133,79.76764793035534,83.59858491143052
412.0,88.75918920631865,69.10870635419732,82.32205001825301,78.0417194363342,79.47690621682646,83.35527376799118
425.0,88.3946585767512,67.70510563844674,81.79784730865784,77.1782861831484,78.29039949473908,82.86831366063707
437.0,88.66506290858914,69.15577914383488,81.67798148084091,76.7898727696376,76.67743088267534,82.94488033916072
450.0,89.05568457124286,71.23906365727633,81.85315641593084,76.70245241398582,74.62206652791815,83.20929994845493
462.0,88.97384363110712,71.94384414389083,81.51870269720803,76.3885728036224,72.47299920196471,83.04609741902641
475.0,89.38999670645421,72.6831996527025,81.60632466079826,76.60179262188876,71.86591770361662,83.39792447378612
487.0,90.09744744089069,73.5389916192849,82.03420768103241,77.23125401097892,72.13639751855436,84.06280489693737
500.0,90.34648451471817,73.76742072056001,82.0343735225016,77.34857499636455,72.60799988813739,84.27857726224866
515.0,90.03586395307416,73.29694474518475,81.7682692015656,77.17478107182211,73.73437102039816,83.99921594002717
530.0,89.34325900661139,72.20638157066037,81.32290544186571,76.5902975874859,74.74632299938818,83.37388835520134
545.0,88.93796818106048,70.96365089238247,81.28556303514054,76.25540167569011,75.2966909848269,83.03661163808057
560.0,88.81680135398248,70.16555521029784,81.32652637405488,76.4907102563652,75.04351316107952,82.94088364012146
580.0,88.67801738163222,70.81542762576042,81.17060825906026,76.95395573917679,74.7209562286115,82.83217262044937
600.0,88.82830387116906,71.88073933143988,81.17406672247404,77.52045402948767,76.03303862327155,83.03892241666595
615.0,88.95683766648663,72.54364448336322,80.87217662694886,77.7379215753568,77.56119802764017,83.19359882435471
630.0,88.98149946939128,73.36173585043971,80.5365613158475,77.96371716085352,78.35205157843896,83.25015430693534
650.0,88.64364448336322,73.31469585795543,80.81408758980987,78.25207955312212,78.30634469138738,83.04660933340973
670.0,88.02856014179902,71.95258847858416,81.09843898689839,78.67779572968183,78.648176420482,82.67913156071513
690.0,88.01469585795543,70.57162312770619,81.35519198304334,79.51790409338696,80.19577579259388,82.90136452273899
710.0,88.27010266704674,70.05653756873868,81.69712822615132,80.12718723770317,81.26192740387148,83.28819631422024
730.0,88.66774519932818,69.43029133290133,81.73551182508787,80.82323803944745,81.89775934167585,83.6899087826038
750.0,87.57232887973534,69.55695793909206,79.82859529858126,81.18884703969323,82.31531641380451,82.9174941863798
775.0,86.63690210459237,70.74799507251777,79.96109270730221,82.58814651382488,84.44228907032956,83.1452797028542
800.0,86.75160884354452,67.6324578774949,80.77278609060491,83.4091202492056,85.31877453140602,83.64793980838115
825.0,88.12945227392802,70.78147958846074,81.20764510417807,82.45937257719109,83.71335654332945,83.82159101430668
850.0,90.2279268999046,74.40761413187403,82.52890367221977,81.74495813874692,82.24422828403746,84.99026099113854
875.0,89.99070769631032,72.82861666470666,80.43819553174833,80.64101067085225,81.24876820615468,84.39925668314362
900.0,89.30629901740562,71.1668059770617,80.03783637370603,81.34351431144773,82.98628204941606,84.15468265127626
925.0,89.00813286218174,70.47092056709178,81.44114150024308,82.37458755301697,84.44264279343051,84.46295245142457
950.0,89.25017886045677,74.7489791818316,82.09470237565026,82.03496297813282,83.89938187949731,84.58929672449264
975.0,89.53719151966678,79.6351869437757,82.6931031344578,81.95978810034524,83.95299775109741,85.00314903341639
1000.0,88.97174737160589,79.35303684147493,83.8422122771326,81.21062670597964,84.82104571189687,84.92250177877395
1030.0,89.30680930238692,76.08888489947074,82.74088892067617,80.72027449169276,84.33159447109009,84.68417001527268
1060.0,90.87613073387841,74.26701058298008,82.02406884305873,79.2666217080507,83.14258730741662,85.31544150541515
1090.0,91.40970687948717,59.24169904781107,83.27905773592043,77.74576092825829,82.10026999091622,85.60810098481622
1120.0,91.54821155223357,67.87526990364125,83.27811567379048,79.78603593992351,81.54489745339667,85.76358049538901
1150.0,91.714484052242,68.119898527474,83.8295122810249,80.23100930813824,80.99147612096402,85.93986489897956
1180.0,91.89871716644035,62.50917245752521,85.62449100289123,82.35456780600151,82.69028083662256,86.57636432150613
1220.0,91.33178237665452,64.76652601166155,86.17018665213601,83.45651172977657,84.04667319810778,86.53488348488236
1250.0,90.92518679577614,68.88098594697766,85.90033464053482,84.2669106392145,84.69846190762657,86.42732548779358
1280.0,90.95089942449447,71.16522911127326,85.75095980612792,84.5544229631779,85.45472838912656,86.57112592663356
1320.0,90.74978572422025,71.46110214116892,85.96081498169866,83.9772057772,85.8471477977451,86.49566034750632
1360.0,90.79421959243564,75.0314962685643,84.9340004294231,84.02597070279649,86.35997731791309,86.49175807831624
1400.0,90.58548749168175,76.4074925169061,84.80680086523452,85.02728545573933,87.14524557810682,86.67821137328872
1450.0,90.90979859232498,77.21052889985917,83.0709805222392,86.58832878868566,87.22008856809205,86.94003247021844
1500.0,89.52099021340628,68.8448284960021,84.87410740131956,86.64500706383676,86.72907786127263,86.32083190361155
1550.0,89.6173350742954,74.63178334303967,85.02392696855827,86.16981213111343,86.32522106043703,86.24432926384509
1600.0,88.26602843351104,73.94258918915241,85.96181891186265,86.6983533482458,86.28569323143424,85.98344181248564
1650.0,87.15058662282449,74.4386531180192,85.97818265628872,86.66760763951605,86.13479669671695,85.60549277099652
1700.0,90.10287313495779,68.8777594853208,85.06926449586359,87.40487392118408,86.37465068659232,86.69714342941445
1750.0,91.20803117856302,69.76556121861852,83.6366354909423,86.91025123773967,86.1303776284581,86.92384145181782
1800.0,91.13267684857476,74.07775474436517,83.98435657782895,86.89496045843418,85.6712524565597,86.87017138624125
1850.0,90.51061279452878,70.34838079791777,82.09190587068987,86.5872952276012,85.35207617676689,86.22454963417184
1900.0,89.3611006563848,69.50659839433098,81.95820351906376,86.10169432569054,85.61289190984135,85.56493395170342
1950.0,90.66529984580987,68.18142508142998,82.75799638291586,85.5974018798459,85.62963272820406,86.21023128941837
2000.0,88.8138059490962,73.41680135398248,83.17962925346141,84.3164634830078,84.58237492217198,84.9089017046402
2060.0,88.20465858811426,72.59243625427575,82.14344475989293,84.65667751945378,84.47379953534403,84.52005568577121
2120.0,87.64572585405251,71.83284565009434,83.06294369893833,85.42323318224692,85.04633130990564,84.67589270994019
2180.0,88.42792232007689,74.53754888020964,84.30069896306917,84.36446620966363,83.99139839253445,84.82241364613188
2240.0,90.09139569793089,75.64926386357163,84.5854153180461,84.26591971974975,84.98432814559467,85.86038847945818
2300.0,90.42376342288009,71.96371072437987,85.70305299718667,85.66751513488262,85.55932478525489,86.47083121073683
2360.0,90.44070275823196,71.48626730539195,85.02139432372793,86.29561870411649,85.68741797514016,86.50362483977156
2400.0,89.98289409708491,65.22818363513302,83.83815874156232,86.16534529532338,85.11247143409338,85.97581674445931
2500.0,90.67290962283323,72.1512152346461,81.7133109503363,86.44500121848417,84.81838255766027,86.18404929735738
2580.0,91.79489185787395,65.00907311269947,82.5607395061995,86.41654722144375,84.38117336929896,86.82631847637202
2650.0,92.01305594329511,72.83348340591088,81.03530225628326,85.76349398772521,84.07685347471167,86.75497394905452
2720.0,92.1508947627132,65.0920462921718,82.71565732676932,84.40194436410829,84.28736093462568,86.76685673595037
2800.0,93.24922104048773,75.85187312634737,83.68221684230157,84.99808750150824,84.50266891756357,87.75705203125517
2900.0,93.64789359585896,70.14290964538374,82.43332815199469,85.23728846635649,82.34772507502905,87.79222869404732
3000.0,93.02358964243936,72.09973143576792,83.28957673668576,84.15546020975232,80.7340136765331,87.18399856400617
3070.0,92.6485303336608,70.4541239860423,83.54623415774537,83.15666331181001,80.49274762685924,86.80587384574756
3150.0,91.59937254724329,69.65969743359933,83.26606335329514,82.4988611043668,80.7248893784449,85.93851986905831
3250.0,91.50915812123935,71.82004336933238,83.2590930358075,83.17308232745104,79.84304124084846,85.90308041952864
3350.0,90.16274456935875,68.18759063955872,84.14484694428955,83.13173584866233,79.58012254899491,85.05403930422867
3450.0,88.59552389205962,66.08319965270252,82.19266803222618,82.16283229419663,79.58033135507002,83.61259279525738
