Freq "Front Wall Bounce"
22.4 59.69157778700017
23.0 60.633870447884505
23.6 61.56248778249737
24.0 62.633870447884505
25.0 63.633870447884505
25.8 64.79157778700018
26.5 65.8631521236656
27.2 67.09157778700018
28.0 68.21981860643132
29.0 69.4631521236656
30.0 70.61981860643132
30.7 71.8631521236656
31.5 73.0631521236656
32.5 74.21981860643132
33.5 75.41981860643132
34.5 76.59157778700018
35.5 77.72114503465801
36.5 78.89157778700017
37.5 79.99157778700017
38.7 81.04919485793081
40.0 82.09157778700018
41.2 83.121145034658
42.5 84.09157778700018
43.7 85.04919485793081
45.0 85.921145034658
46.2 86.77771172227081
47.5 87.54984606801166
48.7 88.27771172227081
50.0 88.921145034658
51.5 89.5073732003349
53.0 90.00737320033488
54.5 90.43751731141336
56.0 90.77969782032005
58.0 91.06611070442639
60.0 91.2100339663727
61.5 91.31003396637271
63.0 91.34085891228924
65.0 91.26943038527449
67.0 91.12746209418853
69.0 90.92746209418854
71.0 90.68733015315762
73.0 90.38733015315762
75.0 90.1190352180092
77.5 89.85124094267181
80.0 89.57974441905256
82.5 89.33847856031666
85.0 89.09965762240397
87.5 88.79965762240396
90.0 88.49477385814829
92.5 88.16636917473969
95.0 87.8286796662479
97.5 87.4286796662479
100.0 87.02624760484743
103.0 86.62624760484744
106.0 86.16148954664953
109.0 85.69725874744199
112.0 85.13355867376538
115.0 84.53355867376537
118.0 83.79725874744199
122.0 82.96951863151983
125.0 82.2180115151948
128.0 81.52350434232471
132.0 80.99895651530281
136.0 80.70735805807614
140.0 80.65324144556602
145.0 80.85362234912637
150.0 81.33701714958234
155.0 81.94378086835604
160.0 82.41480959602264
165.0 82.83663063426789
170.0 82.99316408701876
175.0 83.11612467128418
180.0 83.18439827344258
185.0 83.2917052059568
190.0 83.41575295416553
195.0 83.56879940915319
200.0 83.87798148084092
206.0 84.15758293182049
212.0 84.15372286478717
218.0 83.96541640937119
224.0 83.7214425752892
230.0 83.37672604505812
236.0 83.16248778249737
240.0 83.17771172227081
250.0 83.13616508997478
258.0 82.76943038527449
265.0 82.38733015315762
272.0 82.49268031417732
280.0 82.92320437409334
290.0 83.09078928738407
300.0 82.7579311817288
307.0 82.27937445789593
315.0 82.18468378436171
325.0 82.24124559264187
335.0 82.22725530433908
345.0 82.1984389868984
355.0 82.02599557357505
365.0 81.64064864435915
375.0 81.57419956089275
387.0 82.10255324309475
400.0 82.44355239032649
412.0 82.32205001825301
425.0 81.79784730865784
437.0 81.67798148084091
450.0 81.85315641593084
462.0 81.51870269720803
475.0 81.60632466079826
487.0 82.03420768103241
500.0 82.0343735225016
515.0 81.7682692015656
530.0 81.32290544186571
545.0 81.28556303514054
560.0 81.32652637405488
580.0 81.17060825906026
600.0 81.17406672247404
615.0 80.87217662694886
630.0 80.5365613158475
650.0 80.81408758980987
670.0 81.09843898689839
690.0 81.35519198304334
710.0 81.69712822615132
730.0 81.73551182508787
750.0 79.82859529858126
775.0 79.96109270730221
800.0 80.77278609060491
825.0 81.20764510417807
850.0 82.52890367221977
875.0 80.43819553174833
900.0 80.03783637370603
925.0 81.44114150024308
950.0 82.09470237565026
975.0 82.6931031344578
1000.0 83.8422122771326
1030.0 82.74088892067617
1060.0 82.02406884305873
1090.0 83.27905773592043
1120.0 83.27811567379048
1150.0 83.8295122810249
1180.0 85.62449100289123
1220.0 86.17018665213601
1250.0 85.90033464053482
1280.0 85.75095980612792
1320.0 85.96081498169866
1360.0 84.9340004294231
1400.0 84.80680086523452
1450.0 83.0709805222392
1500.0 84.87410740131956
1550.0 85.02392696855827
1600.0 85.96181891186265
1650.0 85.97818265628872
1700.0 85.06926449586359
1750.0 83.6366354909423
1800.0 83.98435657782895
1850.0 82.09190587068987
1900.0 81.95820351906376
1950.0 82.75799638291586
2000.0 83.17962925346141
2060.0 82.14344475989293
2120.0 83.06294369893833
2180.0 84.30069896306917
2240.0 84.5854153180461
2300.0 85.70305299718667
2360.0 85.02139432372793
2400.0 83.83815874156232
2500.0 81.7133109503363
2580.0 82.5607395061995
2650.0 81.03530225628326
2720.0 82.71565732676932
2800.0 83.68221684230157
2900.0 82.43332815199469
3000.0 83.28957673668576
3070.0 83.54623415774537
3150.0 83.26606335329514
3250.0 83.2590930358075
3350.0 84.14484694428955
3450.0 82.19266803222618
3550.0 83.32115749881693
3650.0 83.78986537235852
3750.0 84.37512573029913
3870.0 84.06366972030473
4000.0 84.71518119204006
4120.0 83.2881314323984
4250.0 84.54199463854044
4370.0 84.63236026362259
4500.0 84.35725745403815
4620.0 83.85750329629676
4750.0 84.31462840791708
4870.0 84.97816914446821
5000.0 85.05844420639603
5150.0 82.42635993393225
5300.0 87.43997601820979
5450.0 84.0684143165779
5600.0 85.48212611819052
5800.0 84.18202428709739
6000.0 88.47593889670158
6150.0 83.27776282437449
6300.0 87.1661341629181
6500.0 81.35849432575695
6700.0 87.13194375887267
6900.0 87.88547432786123
7100.0 85.06776573369179
7300.0 83.70947578994894
7500.0 85.46439442862861
7750.0 83.86422683850569
8000.0 81.85474030466472
8250.0 86.19953263498434
8500.0 84.41917949490968
8750.0 81.23303309180238
9000.0 79.97190696941793
9250.0 81.33669488629899
9500.0 81.55138857640414
9750.0 80.05183989370389
10000.0 78.44157138072772
10300.0 80.83240859457058
10600.0 84.46810367997377
10900.0 84.49077825318571
11200.0 86.23542158383776
11500.0 84.48900046613737
11800.0 84.10128889079067
12200.0 76.10774604897327
12500.0 77.3767598674608
12800.0 78.66621329243873
13200.0 84.94368366959759
13600.0 86.11517664334308
14000.0 80.87932904545977
14500.0 87.33948321901394
15000.0 88.662489185323
15500.0 86.02632967457787
16000.0 83.880227494324
16500.0 81.60791088511766
17000.0 87.0092192000853
17500.0 84.66051253123545
18000.0 83.2026759531763
18500.0 76.458291029108
19000.0 70.84287149211636
19500.0 59.694326920203125
