Freq,Floor Bounce,Ceiling Bounce,Front Wall Bounce,Side Wall Bounce,Rear Wall Bounce,Total Early Reflection
20.0,41.44856990344819,36.821410686091596,38.338905671141205,37.76358918170912,41.286712136426544,39.543816269029875
20.2909,42.17714764632383,37.57665391381964,39.0877081307966,38.52760679028641,41.972964676170236,40.27046375404463
20.586,42.81660942294529,38.242139638344,39.74663216342047,39.20319410243978,42.57030111202066,40.90815230988791
20.8855,43.42889255706298,38.881909160817614,40.37939934450962,39.853761725316716,43.141616774576065,41.51979928727975
21.1893,44.09565130640503,39.57730073078692,41.06804254498714,40.56083744063129,43.76985525052531,42.187440043620754
21.4975,44.83299035764112,40.34429295155904,41.82813488300734,41.34034923167191,44.47078981172463,42.9269572531674
21.8102,45.61258045278613,41.15590972757859,42.63283698106686,42.16458578624126,45.21785915730392,43.71098590173007
22.1274,46.40374925469659,41.9811655226202,43.45144447807364,43.00248741613255,45.98071467081276,44.50884128839276
22.4492,47.18027361326604,42.793420381066326,44.257819710208636,43.82794068760329,46.73281795421694,45.29418374335792
22.7758,47.929189508406054,43.58005488157433,45.03953329797871,44.62773406768797,47.46209311062508,46.054375550638085
23.1071,48.655751557714254,44.34603525008707,45.801586186781904,45.40616236183725,48.17423435914942,46.79457000161601
23.4432,49.37476577656578,45.10622426616216,46.55897300201484,46.1778625526792,48.88258927886612,47.529172647999346
23.7841,50.09955885273017,45.87327401049991,47.32341259345331,46.955220171100805,49.60054137262422,48.271045757075754
24.1301,50.824940085252294,46.64111337708435,48.09060140057427,47.732558093588025,50.32251386971309,49.01485130206653
24.4811,51.539781135188704,47.39956197701717,48.84910285384565,48.49792083805532,51.03524839962451,49.748814330429454
24.8372,52.235901615771326,48.138214221093975,49.588319192189076,49.2425311063338,51.73059344865116,50.46401402114667
25.1984,52.91488903373853,48.85973692863031,50.30983084700985,49.96724341928528,52.408117481511525,51.161499745873854
25.5649,53.582398150973745,49.56878393931767,51.0190258976868,50.67770582766464,53.073090401205306,51.84665384749074
25.9368,54.248463661935446,50.275984926329116,51.725193265931196,51.383752616395824,53.73515786369036,52.529316881056346
26.3141,54.915780085214735,50.983273256512845,52.429471815396084,52.08726908928192,54.394787928451606,53.21111569764203
26.6968,55.5759315630694,51.682357256665796,53.12370218304959,52.781245768165206,55.043596925517434,53.88391470153631
27.0851,56.219535842429366,52.36383096741481,53.797609723806076,53.45540173952105,55.67214220670907,54.538023618205415
27.4791,56.838879972752665,53.020682738198516,54.44450479929445,54.10362294023227,56.27251147158921,55.16618623840189
27.8788,57.43929755656846,53.658235568900466,55.06824699049206,54.73113943966672,56.85008229579027,55.77348810477642
28.2843,58.02869621642192,54.28446384349709,55.679296917354904,55.3474183802374,57.41427543545559,56.36891951797543
28.6957,58.61142440026305,54.90541334062013,56.28096788885668,55.95776988912313,57.96960580596132,56.957066671545164
29.1131,59.17972774407666,55.51237565736223,56.866986332229516,56.55539669642356,58.510211157334055,57.53095029679517
29.5365,59.71660832753729,56.08874836616259,57.42121637451744,57.12353587793214,59.02007527218507,58.07405830562806
29.9661,60.206697544732634,56.61882763046347,57.92908612174203,57.647286477523906,59.48445637632777,58.57135033722581
30.402,60.64433601815969,57.097965101955936,58.38570798398489,58.12206819053138,59.89879916175367,59.017878072554126
30.8442,61.039780943300855,57.535181834796774,58.80290843897744,58.557522689908055,60.275481472809076,59.42442926704352
31.2929,61.41974551078779,57.95743787613655,59.2073671393602,58.98089050534952,60.64082097650362,59.8177256472607
31.748,61.79564864654266,58.37507631774885,59.61120981397697,59.401927507183274,61.005671195075095,60.208753446286664
32.2098,62.16774367628928,58.78807344378596,60.0145332656395,59.82023526077451,61.37061637185906,60.59766661456726
32.6783,62.522147785693136,59.181437780504766,60.4044749554097,60.2220137365896,61.72078620266559,60.97038587794991
33.1536,62.85207632954544,59.548821525968634,60.77234051311258,60.59783539477533,62.048333610550145,61.31914729551579
33.6359,63.158047100123454,59.888902746288764,61.119005017306606,60.9487012963168,62.352717378988146,61.64411125240423
34.1251,63.446276685757425,60.2087078155477,61.44851924393072,61.278619645980186,62.6380104437786,61.950333070808526
34.6215,63.72724250790186,60.516896930516694,61.77047409695865,61.59696901421701,62.912982565742524,62.24729411005913
35.125,64.00224081298741,60.817827639700496,62.086333014052954,61.90656996958852,63.179589980754045,62.53714399119387
35.6359,64.27230395108913,61.11114957076329,62.39524652251933,62.207787492610166,63.43722116616479,62.81989288522976
36.1543,64.5334456878943,61.393189392019764,62.692638006232144,62.49562277866252,63.68146007911551,63.09121350180406
36.6802,64.78133746220982,61.66120924727065,62.973063412815605,62.76726355299343,63.908375703089135,63.34714355577954
37.2137,65.02098135712959,61.92048540748185,63.24164799297611,63.02909409464597,64.12426016699075,63.59328000850415
37.755,65.25837921154695,62.179350724661575,63.50637642266172,63.288891138104574,64.33758249764136,63.837176098182155
38.3041,65.5015262744985,62.444073947643446,63.773241096832066,63.55410010909877,64.55632087143573,64.08611660928794
38.8613,65.749047609787,62.71530447503855,64.04267446286886,63.82508724070482,64.78145912428855,64.34016658869842
39.4265,65.99126451260835,62.98343196568756,64.30554293111973,64.092665972611,65.00449796898988,64.59009979471648
40.0,66.23050603085862,63.2491847601037,64.56485262112221,64.3596457035876,65.22885678904028,64.83846749149006
40.5818,66.476369750599,63.52298152231138,64.83031029562058,64.63401922951125,65.46348281984235,65.09456177417802
41.1721,66.72532241478224,63.799162289224,65.09806185550688,64.9123601009109,65.70509802318972,65.3545579207012
41.771,66.94793930937719,64.04975970741552,65.33937924475457,65.16489425262493,65.92368447541934,65.58916502722968
42.3785,67.10286374408703,64.23009244949485,65.51110476874051,65.34741526112131,66.07487768419169,65.7550455859185
42.9949,67.21186001096098,64.3617627628768,65.6338057682312,65.48132656665958,66.17842759429683,65.87320569189176
43.6203,67.32856078186107,64.49908077079711,65.76077090315519,65.61945062475779,66.28677647480352,65.99689868515641
44.2548,67.50092828173527,64.6909714800333,65.93986845239716,65.8097649009544,66.44715698074964,66.17404924586067
44.8985,67.7032926069089,64.91012066034462,66.14481815190598,66.0258841798339,66.63279408533859,66.37827163327056
45.5515,67.89162376755752,65.11591075234277,66.33235851458757,66.22660000942776,66.80060496803341,66.56689376943636
46.2141,68.06495971752669,65.30736321064477,66.50407515046004,66.41131692229716,66.95127950746642,66.7398595600661
46.8863,68.24857435022581,65.51084779017911,66.68669435838443,66.60645206483093,67.11165509914059,66.92342206408955
47.5683,68.45047050852165,65.73571868071673,66.89120591308402,66.8234196180546,67.29309226108217,67.12768496046586
48.2602,68.6545085329826,65.96631547641668,67.10430529920525,67.04679868905147,67.48239963341616,67.33786283126304
48.9621,68.85884752110829,66.19964912747986,67.32525466146865,67.2755966321463,67.67881907688009,67.55253796662578
49.6743,69.07101691038058,66.44336281217068,67.56243979220083,67.51696295951402,67.89132697141424,67.77964721385256
50.3968,69.2857836415253,66.69045987815412,67.81027290533271,67.76471069011838,68.11378338593093,68.01327091541664
51.1299,69.4968620695222,66.93292269363782,68.05821632118453,68.01082985893234,68.33839280987029,68.2454288179417
51.8736,69.71465178075981,67.17971606781146,68.31470253304543,68.26294276146736,68.57235112932325,68.48475234534061
52.6281,69.93921371081053,67.42944938399042,68.57220746608503,68.51726508855562,68.81202513892734,68.72813609724251
53.3936,70.1635702683753,67.67678452570384,68.822736045237,68.76662016100134,69.04868515552093,68.9682347707367
54.1702,70.39043223507892,67.92301637112588,69.06356952499537,69.01080981718556,69.28080398363579,69.20506240703295
54.9581,70.61851609058853,68.17150371705213,69.29484383464462,69.25002117029679,69.5076786450711,69.4386901474255
55.7575,70.84371689931876,68.4176496972227,69.51356325521083,69.48044052650627,69.7256759488092,69.66531147957758
56.5685,71.06400707967323,68.6625017765655,69.72331512816432,69.70384743287025,69.93518736518683,69.88567939550366
57.3914,71.27724263979174,68.90573675991753,69.92854462243989,69.92203975024033,70.13839730941048,70.10084179017132
58.2261,71.47474414833458,69.13770972834737,70.12664631269128,70.12781360490044,70.32855679195403,70.30382114810946
59.073,71.65434053102955,69.35408086064261,70.3204098566434,70.32238049492716,70.50719438700575,70.49446227703616
59.9323,71.83101685540394,69.56954370352801,70.5275169304436,70.52233878721515,70.6901885876613,70.68871886049212
60.804,72.02291422068623,69.79580001665471,70.7619722793171,70.74370640452649,70.89440373009043,70.90229526174214
61.6884,72.24534715878197,70.04654981455647,71.0342684015414,70.99848012592965,71.13174796987725,71.14802223637118
62.5857,72.49111010578959,70.31108204813843,71.32977400812196,71.27686526491694,71.39237668894062,71.41569057870898
63.496,72.73358487709159,70.56127211970444,71.61351798023547,71.54826268888463,71.64520948811536,71.67514465219615
64.4196,72.96785880194213,70.7942756460168,71.87560438947378,71.80527147349359,71.88290817379095,71.9198194071705
65.3566,73.2079873161283,71.02866505368293,72.12738650352149,72.06048239559597,72.11929445725956,72.16357271031069
66.3073,73.44688680840923,71.2614487935762,72.3665473174806,72.30928597214846,72.34955555948599,72.40181088630199
67.2717,73.66121252906015,71.47572897324072,72.57508125024454,72.53027881162929,72.5540689918764,72.61435053163244
68.2502,73.85749708120247,71.6797034814051,72.76516732328649,72.73385762372118,72.74239794896592,72.81045609423283
69.2429,74.05044897220786,71.88944821232352,72.95783442865003,72.93603251353552,72.93154286193511,73.00700887031294
70.2501,74.24871032987502,72.11171180338991,73.1630892538032,73.14701224276209,73.13114802086709,73.21313900557014
71.2719,74.45692509729969,72.34614077376126,73.38292969197575,73.37060525947997,73.3429585898928,73.43146481739664
72.3086,74.68023431310333,72.59162606321175,73.61763981843725,73.60741179488099,73.56796340181616,73.66348478940512
73.3603,74.90063979899507,72.82809603591586,73.84649871081443,73.83823148053625,73.78666672729562,73.88980129873207
74.4274,75.11607432385348,73.05078055206084,74.06365874334267,74.05785353325585,73.99344089753804,74.10585228046351
75.5099,75.32479716811966,73.2606192932676,74.27114336918676,74.26586474055799,74.18945810659706,74.31189081714551
76.6083,75.49541474260316,73.429657613758,74.44209716937259,74.43444288834561,74.3466392257785,74.47931389274278
77.7226,75.65945376324012,73.59534646259353,74.61291074774078,74.59820607419337,74.50042628850204,74.64291550735898
78.8531,75.84865503507872,73.79274749084148,74.81783138848809,74.79416952830111,74.68802370641463,74.83756020571049
80.0,76.04184483586782,74.00168388704633,75.03368484638223,75.00195429599034,74.88751222611572,75.04185301549674
81.1636,76.24143200265162,74.22324365630931,75.25592660694889,75.22114563965106,75.09816343597204,75.25545113019895
82.3442,76.42957722258352,74.43504078395195,75.46099722864145,75.43033876283154,75.29822901468246,75.45719600672447
83.5419,76.61029159961485,74.63849190578698,75.64892617686473,75.62933398992423,75.48633109433858,75.64801406638213
84.757,76.77282294503723,74.81869036075203,75.81057269925832,75.8037422288206,75.64981581856595,75.81572374175438
85.9899,76.92109839445727,74.97896038954661,75.95667860108121,75.95975598743087,75.79505886411731,75.96643591325338
87.2406,77.04856274824577,75.11442987377083,76.0849519083258,76.09196004199599,75.91597748542765,76.0950276081657
88.5096,77.18016368185319,75.25328795581173,76.22509874867359,76.2303531151795,76.0439466934589,76.23015486488238
89.797,77.33728034420709,75.41661484545763,76.39667654866905,76.3971445547704,76.20060606960699,76.39300357717585
91.1031,77.47873406445396,75.5674548304521,76.55311444909663,76.55233973672973,76.34482100101665,76.54223952790457
92.4282,77.58889922599235,75.69003015766826,76.67469481293371,76.67654145408352,76.45756416548258,76.65998694047778
93.7726,77.64519229637796,75.76216135401033,76.73827731228668,76.7445552792817,76.51460260349533,76.72277601437133
95.1366,77.65192287127923,75.78473211223572,76.7495709394076,76.75895814656955,76.5186657795508,76.73399982251507
96.5204,77.6546726699877,75.80213698542663,76.7588614989055,76.7671407433259,76.51811634223044,76.74088682888514
97.9243,77.68104631446643,75.839240053779,76.79343039242924,76.7979200966784,76.54202871115399,76.77105652466322
99.3486,77.72633710399947,75.89348553809994,76.85013689110494,76.85131824091432,76.59022961577853,76.82227318322501
100.794,77.78627436517893,75.9625889701441,76.91825917509496,76.92052044891304,76.65653141306139,76.88841191651899
102.26,77.85050364039763,76.0377784640674,76.9875238539069,76.99591448141568,76.72865479015955,76.95917483324415
103.747,77.9146933079571,76.11596213597582,77.05308589215814,77.0695217941869,76.79810178149548,77.02880413407725
105.256,77.96717780919327,76.18432855366396,77.10923040577067,77.13034248404541,76.85368920047505,77.08687365697618
106.787,78.00333188008345,76.23386412594606,77.15338385857588,77.17494797902232,76.88906206745861,77.12837240069557
108.34,78.01154718131639,76.25334041666943,77.1755352990275,77.19453431710909,76.89846940249967,77.14375236381483
109.916,77.96480292443145,76.21792404265351,77.14424885147041,77.16212177619485,76.85682725573473,77.10583675517934
111.515,77.89247001729126,76.15864826588148,77.08410081781498,77.10352007949004,76.79301377401,77.0424853823805
113.137,77.86715619150132,76.15147444727769,77.06480865598277,77.08792230866115,76.77624958055294,77.02493649926159
114.783,77.86719441845139,76.16896411714485,77.06680490477356,77.09252348685008,76.78350302935033,77.03051691326571
116.452,77.86450851598462,76.17866354122708,77.06752147764165,77.09072536058936,76.78418773034191,77.03136750421349
118.146,77.84943187010687,76.16922622459302,77.05967058010644,77.07832403497233,76.77028098956264,77.01943922441622
119.865,77.82859245467228,76.15408371266206,77.05067639820277,77.06572076352248,76.75266097933648,77.00420746724426
121.608,77.81073791365861,76.14735547059946,77.04368192481552,77.05872095036698,76.73992340451476,76.99354812374241
123.377,77.79092454361923,76.14711282462677,77.03196421736726,77.05112361998086,76.72750595575135,76.98247398620849
125.171,77.7738881349294,76.14961661170373,77.0188140024312,77.04372375698576,76.71804442428649,76.97283926606272
126.992,77.76290603155759,76.15207838224957,77.01123307903981,77.03992102065779,76.71294709576354,76.96734074130316
128.839,77.73825752057809,76.13670914174666,76.99480470176319,77.02572075913518,76.69383245176908,76.949061612267
130.713,77.69720321096605,76.10523908400283,76.96366662948053,76.99592331949744,76.65741417795611,76.91476935880428
132.615,77.63574353229052,76.06011585995635,76.91267229346589,76.94552523988907,76.60052696837182,76.86125773904611
134.543,77.5713390786167,76.01539030250001,76.85395802453951,76.88712302298852,76.54233757362886,76.80367670538315
136.5,77.52093601297442,75.98401135718755,76.80952675173593,76.84111800283783,76.50091029813724,76.76024655436386
138.486,77.47549746083389,75.95293817366053,76.77195222854641,76.80191614322173,76.46505922145606,76.72188128014064
140.5,77.40767607304551,75.89923390057005,76.71581204397447,76.74411754207759,76.4064937605455,76.66257811774015
142.544,77.32854142992649,75.83530020202784,76.64810157047803,76.67631768966059,76.33503476279107,76.59206703125757
144.617,77.24649159825007,75.7673960419229,76.57253098242971,76.60251658456407,76.25941691742464,76.51660347887785
146.721,77.14749219211039,75.6810697977578,76.4782443818655,76.50971523937942,76.16789931237922,76.4233684894996
148.855,77.10812534988389,75.65802273364984,76.44552790134459,76.47891462170212,76.1393857176681,76.39189738791045
151.02,77.09832810370554,75.66967859387144,76.44624389102275,76.48111560713704,76.14233962226403,76.39271233221292
153.217,77.02188257762926,75.61570165759086,76.3802503116276,76.41751745707073,76.07652694021152,76.32682332498706
155.445,76.93421538774076,75.54726800455306,76.3008236953372,76.34011905770471,75.9971979852769,76.24776598551787
157.706,76.90326394351223,75.53108015582522,76.27953028753187,76.31871804506623,75.97502589125253,76.22489410091275
160.0,76.67989889683078,75.32466290769638,76.07009027999398,76.10591494272747,75.76524462900406,76.01196605989009
162.327,76.45104271744194,75.11809096793411,75.85594320295822,75.88791379159437,75.55231260309289,75.79512974448862
164.688,76.3755261615091,75.06449526823023,75.78994376327809,75.82071422442428,75.48893618276675,75.72929572401837
167.084,76.43043677603299,75.1420694992729,75.85708946140853,75.88571376374836,75.55690911933208,75.79511571911081
169.514,76.52634919007275,75.2596566986492,75.96766007105576,75.99571302743867,75.66864874882658,75.90361115583623
171.98,76.25853813012523,75.01305475699016,75.7105184325909,75.74051248392088,75.41804378027417,75.6474652408017
174.481,75.89510823250127,74.66975360606823,75.35394753581085,75.38291415979585,75.06949833861721,75.2929268119952
177.019,75.75271816228395,74.5482998704083,75.2210834459553,75.24671818478613,74.93980871016004,75.15977938547685
179.594,75.67096922555619,74.48917418755497,75.15165213815162,75.17811661979202,74.86933441377522,75.08929163985653
182.206,75.6268224347172,74.47180848164733,75.1213646507425,75.15332880338298,74.84154727793363,75.05969308123834
184.856,75.70569799669632,74.57819576858438,75.21550877586726,75.24792272942693,74.94343493555802,75.15407133596692
187.545,75.78927339661591,74.68795050231832,75.31251277578342,75.34212204970385,75.04816991665824,75.25116862149169
190.273,75.87621033725944,74.79631621671976,75.40622279206396,75.43831870025375,75.14651920478516,75.34731878109336
193.041,75.91685279827901,74.86050737287862,75.45635808835941,75.49151510875927,75.20308057331054,75.39964509930932
195.849,75.84618526855887,74.82433082520261,75.40750459175156,75.43851372698589,75.16277123111519,75.34891951716021
198.697,75.83299546181432,74.85023544499909,75.4139407377889,75.44291779711489,75.17562183911411,75.35523782516084
201.587,75.80540603023115,74.84948798390792,75.39408555699994,75.42731593912674,75.15962335161501,75.33867458882119
204.52,75.5996971722282,74.67079038597588,75.20221960011631,75.23591586418537,74.97416645530241,75.14741354079226
207.494,75.34508290410233,74.45251988762747,74.96778325050019,74.99891420687625,74.7484414653916,74.91256390295656
210.512,75.19096693651275,74.33354128693803,74.8307838807945,74.86011399503083,74.61853067263522,74.77603770183332
213.574,75.22448307189582,74.39343436844882,74.87635887971054,74.90571431662735,74.67466935786543,74.82359798183003
216.681,75.04974918990104,74.24867699944377,74.71635723289997,74.74691397580108,74.52506147667056,74.6653922241043
219.833,74.96234121318436,74.20200028431161,74.65378549845741,74.68011316566123,74.46575241541271,74.60007225323434
223.03,74.90120813105149,74.1839770253785,74.6183547659548,74.64251216149749,74.43929803087907,74.56355355225168
226.274,74.96408344130073,74.28558981880914,74.69377798546712,74.72351372724032,74.53023871186537,74.64523596553437
229.565,74.97761966810218,74.3379232050274,74.72892287396543,74.75592097792556,74.56991682775286,74.67923815672152
232.905,74.7905548160354,74.18826667102188,74.56721775352135,74.58971800411375,74.41924388920944,74.51558564893388
236.292,74.66516702328204,74.10119051814432,74.45449590271073,74.4819164642787,74.32579090117346,74.40971358054902
