Freq "Ceiling Bounce"
20.0 35.98249873640607
20.2909 36.737741964134116
20.586 37.403227688658475
20.8855 38.04299721113209
21.1893 38.73838878110139
21.4975 39.505381001873516
21.8102 40.316997777893064
22.1274 41.14225357293468
22.4492 41.9545084313808
22.7758 42.7411429318888
23.1071 43.507123300401545
23.4432 44.267312316476634
23.7841 45.03436206081439
24.1301 45.80220142739883
24.4811 46.56065002733165
24.8372 47.29930227140845
25.1984 48.02082497894479
25.5649 48.729871989632144
25.9368 49.43707297664359
26.3141 50.14436130682732
26.6968 50.84344530698027
27.0851 51.52491901772929
27.4791 52.18177078851299
27.8788 52.81932361921494
28.2843 53.44555189381157
28.6957 54.066501390934604
29.1131 54.6734637076767
29.5365 55.249836416477066
29.9661 55.77991568077795
30.402 56.25905315227041
30.8442 56.69626988511125
31.2929 57.11852592645103
31.748 57.536164368063325
32.2098 57.94916149410044
32.6783 58.34252583081924
33.1536 58.70990957628311
33.6359 59.04999079660324
34.1251 59.36979586586217
34.6215 59.67798498083117
35.125 59.97891569001497
35.6359 60.272237621077764
36.1543 60.55427744233424
36.6802 60.82229729758512
37.2137 61.081573457796324
37.755 61.34043877497605
38.3041 61.60516199795792
38.8613 61.876392525353026
39.4265 62.14452001600203
40.0 62.41027281041818
40.5818 62.68406957262586
41.1721 62.960250339538476
41.771 63.210847757729994
42.3785 63.39118049980932
42.9949 63.52285081319127
43.6203 63.66016882111158
44.2548 63.85205953034777
44.8985 64.07120871065909
45.5515 64.27699880265725
46.2141 64.46845126095924
46.8863 64.67193584049359
47.5683 64.8968067310312
48.2602 65.12740352673116
48.9621 65.36073717779433
49.6743 65.60445086248515
50.3968 65.85154792846859
51.1299 66.0940107439523
51.8736 66.34080411812593
52.6281 66.59053743430489
53.3936 66.83787257601831
54.1702 67.08410442144036
54.9581 67.33259176736661
55.7575 67.57873774753718
56.5685 67.82358982687998
57.3914 68.066824810232
58.2261 68.29879777866185
59.073 68.51516891095709
59.9323 68.73063175384249
60.804 68.95688806696919
61.6884 69.20763786487095
62.5857 69.4721700984529
63.496 69.72236017001892
64.4196 69.95536369633128
65.3566 70.1897531039974
66.3073 70.42253684389068
67.2717 70.6368170235552
68.2502 70.84079153171957
69.2429 71.05053626263799
70.2501 71.27279985370438
71.2719 71.50722882407574
72.3086 71.75271411352622
73.3603 71.98918408623034
74.4274 72.21186860237532
75.5099 72.42170734358207
76.6083 72.59074566407247
77.7226 72.756434512908
78.8531 72.95383554115595
80.0 73.1627719373608
81.1636 73.38433170662378
82.3442 73.59612883426642
83.5419 73.79957995610145
84.757 73.9797784110665
85.9899 74.14004843986109
87.2406 74.2755179240853
88.5096 74.4143760061262
89.797 74.5777028957721
91.1031 74.72854288076658
92.4282 74.85111820798274
93.7726 74.9232494043248
95.1366 74.94582016255019
96.5204 74.9632250357411
97.9243 75.00032810409347
99.3486 75.05457358841441
100.794 75.12367702045857
102.26 75.19886651438188
103.747 75.2770501862903
105.256 75.34541660397844
106.787 75.39495217626053
108.34 75.4144284669839
109.916 75.37901209296798
111.515 75.31973631619596
113.137 75.31256249759217
114.783 75.33005216745933
116.452 75.33975159154156
118.146 75.3303142749075
119.865 75.31517176297653
121.608 75.30844352091394
123.377 75.30820087494125
125.171 75.31070466201821
126.992 75.31316643256405
128.839 75.29779719206114
130.713 75.26632713431731
132.615 75.22120391027083
134.543 75.17647835281448
136.5 75.14509940750203
138.486 75.114026223975
140.5 75.06032195088453
142.544 74.99638825234231
144.617 74.92848409223737
146.721 74.84215784807228
148.855 74.81911078396432
151.02 74.83076664418591
153.217 74.77678970790534
155.445 74.70835605486754
157.706 74.6921682061397
160.0 74.48575095801085
162.327 74.27917901824858
164.688 74.22558331854471
167.084 74.30315754958738
169.514 74.42074474896367
171.98 74.17414280730463
174.481 73.8308416563827
177.019 73.70938792072278
179.594 73.65026223786944
182.206 73.6328965319618
184.856 73.73928381889885
187.545 73.84903855263279
190.273 73.95740426703424
193.041 74.02159542319309
195.849 73.98541887551708
198.697 74.01132349531356
201.587 74.0105760342224
204.52 73.83187843629035
207.494 73.61360793794195
210.512 73.4946293372525
213.574 73.5545224187633
216.681 73.40976504975825
219.833 73.36308833462608
223.03 73.34506507569297
226.274 73.44667786912362
229.565 73.49901125534187
232.905 73.34935472133635
236.292 73.2622785684588
239.729 73.33418112034941
243.216 73.50383678663972
246.754 73.59482505506448
250.343 73.52377083478054
253.984 73.45908668321027
257.678 73.42539152624528
261.426 73.43471274206264
265.229 73.45871301145274
269.087 73.4370166608635
273.001 73.21035885028341
276.972 73.20100897721419
281.0 73.21300790728817
285.088 73.40934502950059
289.234 73.64101849529314
293.441 73.8567009342982
297.709 73.84171736993446
302.04 73.84773996032634
306.433 73.5067814571583
310.89 73.58916797907095
315.412 73.88856448866498
320.0 73.80825505363636
324.655 73.73629031770933
329.377 73.62470467831768
334.168 73.92715173801679
339.028 74.06190764797743
343.959 74.25368567636741
348.962 74.14849710676553
354.038 74.10428871761495
359.188 74.26908724954001
364.412 74.32786596456242
369.713 74.33931698259437
375.09 74.48844071232183
380.546 74.53629285084794
386.081 74.59166955877264
391.697 74.47614241359933
397.394 74.42651062492604
403.175 74.3315478798903
409.039 74.24694198573211
414.989 74.13025199265762
421.025 74.00387305824457
427.149 73.85874745894458
433.362 73.69155504087605
439.665 73.51966623762233
446.06 73.344968748784
452.548 73.1726979521879
459.131 72.99173494450636
465.809 72.81216204548242
472.584 72.63870763651319
479.458 72.4811746703811
486.432 72.32756331965417
493.507 72.19513873040685
500.686 72.08170191954507
507.968 71.99188061806986
515.357 71.92753425292103
522.853 71.88129051519044
530.458 71.8645666331314
538.174 71.87120125855184
546.002 71.9005658952108
553.943 71.9465141862748
562.001 72.00740866812036
570.175 72.07659391223157
578.469 72.14801323079264
586.883 72.22469510860644
595.419 72.29050447037572
604.08 72.35171563146817
612.866 72.39840746725743
621.78 72.42824733123737
630.824 72.44398565414541
640.0 72.43585422800523
649.309 72.40680693681722
658.753 72.35894433453431
668.335 72.28355831318389
678.056 72.19129943118644
687.919 72.08021872784492
697.925 71.95228122162722
708.077 71.81812241181079
718.376 71.67879119809706
728.825 71.54475653633529
739.426 71.414671326301
750.181 71.30662877503164
761.093 71.2199678567597
772.163 71.16349913063515
783.394 71.13648815266235
794.789 71.14335885444103
806.349 71.1790946928689
818.078 71.23601830976978
829.977 71.30740772006739
842.05 71.39124977887393
854.298 71.46958039560444
866.724 71.54198383742983
879.33 71.59789697924512
892.12 71.63834368686348
905.097 71.65191797006753
918.262 71.64524894524386
931.618 71.61677706431274
945.169 71.56767053159031
958.917 71.50906201277404
972.864 71.443988759232
987.015 71.37613740865515
1001.37 71.3096342916483
1015.94 71.25130254518916
1030.71 71.21182894281337
1045.71 71.18091628037705
1060.92 71.15907578180772
1076.35 71.13829004686872
1092.0 71.11855388824489
1107.89 71.08266265858903
1124.0 71.02931976968027
1140.35 70.952338444821
1156.94 70.84237882861463
1173.77 70.70455673685626
1190.84 70.53932620111064
1208.16 70.34990047545841
1225.73 70.14824194287388
1243.56 69.94307603204071
1261.65 69.75636921148362
1280.0 69.59197949392485
1298.62 69.4766765986303
1317.51 69.41462790163654
1336.67 69.40748148472225
1356.11 69.45224877650627
1375.84 69.53181252797704
1395.85 69.63500797940797
1416.15 69.73108168268043
1436.75 69.8017016798246
1457.65 69.82750443631372
1478.85 69.78268114568796
1500.36 69.65496939618568
1522.19 69.43527181838942
1544.33 69.11196354976646
1566.79 68.69584174679675
1589.58 68.19858972477914
1612.7 67.65583846065053
1636.16 67.10591757439947
1659.95 66.59901117524927
1684.1 66.17429634001805
1708.6 65.84379994494462
1733.45 65.59383523735382
1758.66 65.37490009030174
1784.24 65.13214248842405
1810.19 64.83128501956341
1836.52 64.46181731218222
1863.24 64.02068217509218
1890.34 63.532007597974996
1917.83 63.06038628560739
1945.73 62.63513654865021
1974.03 62.309021780572394
2002.74 62.144438099968966
2031.87 62.15103464906291
2061.43 62.38624708272174
2091.41 62.8434904799834
2121.83 63.477887013766235
2152.69 64.2062468479669
2184.01 64.93736066719728
2215.77 65.57670247397243
2248.0 66.05402044488282
2280.7 66.34202233855738
2313.87 66.4391019376787
2347.53 66.3771181684587
2381.68 66.21829810108314
2416.32 66.03479076400039
2451.46 65.87765139242987
2487.12 65.7654728333716
2523.3 65.6692454369268
2560.0 65.6237719897027
2597.24 65.71869594191064
2635.01 66.06248981533321
2673.34 66.68436008908542
2712.23 67.4562692584709
2751.68 68.22752283841574
2791.7 68.881201731162
2832.31 69.37414984387506
2873.5 69.71257724010815
2915.3 69.91047562486965
2957.7 69.99776784680465
3000.72 70.00731295739439
3044.37 69.98258795029032
3088.65 69.9532645813093
3133.58 69.92482664113366
3179.16 69.8871921648283
3225.4 69.84704228001556
3272.31 69.81818300263008
3319.91 69.79413329725071
3368.2 69.74072287989739
3417.19 69.63035180720378
3466.89 69.49396808392993
3517.32 69.37785296798073
3568.48 69.29941820793282
3620.39 69.2462985733405
3673.05 69.22449216388262
3726.47 69.27905723181995
3780.67 69.4111838578322
3835.67 69.55555956475702
3891.46 69.61874094279005
3948.06 69.55164955813623
4005.49 69.38915278381268
4063.75 69.22173462933779
4122.86 69.16403522677061
4182.82 69.22446101114205
4243.66 69.30704323777341
4305.39 69.31815423722269
4368.01 69.24725562661096
4431.55 69.16762859640951
4496.01 69.14028132140021
4561.4 69.15683184509949
4627.75 69.19603466927397
4695.06 69.22122605590314
4763.35 69.16373039876726
4832.64 69.06370077216475
4902.93 69.09902162462815
4974.24 69.2803609704944
5046.6 69.46624757726471
5120.0 69.69034207546923
5194.47 69.99179124686962
5270.03 70.28224129228275
5346.68 70.50847543378597
5424.45 70.65894448171706
5503.35 70.74457815778861
5583.4 70.79044475737544
5664.61 70.73625057863826
5747.01 70.61964892314548
5830.6 70.598110698316
5915.41 70.69161980377068
6001.45 70.77954040615377
6088.74 70.78641850406909
6177.3 70.75198425684529
6267.15 70.75784075463989
6358.31 70.82846352020418
6450.8 70.92100524502543
6544.62 71.03536472400846
6639.82 71.14040364873448
6736.4 71.24100624039431
6834.38 71.3126620536722
6933.79 71.28680325019208
7034.64 71.23272761786585
7136.96 71.17428840133124
7240.77 71.10852413859631
7346.09 71.10631336360666
7452.94 71.13059354182353
7561.35 71.08032767086033
7671.33 70.99306419764663
7782.91 70.98585792698772
7896.12 71.02213150665546
8010.97 71.08072155822481
8127.49 71.11751901953353
8245.71 71.08909897228334
8365.65 71.03504515144184
8487.33 70.98432035700434
8610.78 70.95743933543913
8736.03 70.87063002907642
8863.09 70.70019548521071
8992.01 70.4884674732752
9122.8 70.31967437806212
9255.5 70.19391936050481
9390.12 70.04989047747601
9526.7 69.85529754461255
9665.27 69.65037941906567
9805.86 69.51392922560278
9948.49 69.51798895436603
10093.2 69.68907933877865
10240.0 69.89801591160679
10388.9 69.97855944551095
10540.1 69.93563165607874
10693.4 69.91358151518973
10848.9 69.9912399333853
11006.7 70.04101672345011
11166.8 70.09189714719277
11329.2 70.23766759130696
11494.0 70.43497457849591
11661.2 70.49656467711763
11830.8 70.52122917850151
12002.9 70.44816354484209
12177.5 70.22213179989065
12354.6 70.07170526273735
12534.3 70.0956701647312
12716.6 70.0317405356071
12901.6 69.73840224832092
13089.2 69.47440281330631
13279.6 69.63135636234452
13472.8 69.94980454969037
13668.8 69.80422254779506
13867.6 69.27425318466189
14069.3 68.98605131438744
14273.9 69.06953851314661
14481.5 68.93950904224972
14692.2 68.72418278471247
14905.9 68.81394111210405
15122.7 69.03427795292605
15342.7 68.89352230841676
15565.8 68.56093391526692
15792.2 68.08304807556124
16021.9 67.39347301677562
16255.0 67.11218025824381
16491.4 66.81127669573148
16731.3 66.51842348775008
16974.7 66.18227982966542
17221.6 65.80956204323407
17472.1 65.32867233010666
17726.2 64.7446637774836
17984.0 64.30179904749275
18245.6 63.95097405277792
18511.0 63.48549920915899
18780.2 62.89099926208836
19053.4 62.44110571662753
19330.5 62.12723220977425
19611.7 61.98017793911039
19897.0 61.94512895627747
