Freq "Floor Bounce"
20.5078 53.00605569413993
21.9727 54.90837203814759
23.4375 58.15679785954832
24.9023 59.61831189331029
26.3672 60.30845071142731
27.832 62.45070259462223
29.2969 64.96595537549642
30.7617 66.28400822109231
32.2266 67.50039654832757
33.6914 68.6614206981071
35.1562 70.18246628344181
36.6211 71.54803805922577
38.0859 72.56459170579265
39.5508 73.39183913712144
41.0156 74.12453027931998
42.4805 74.79579108283987
43.9453 76.00105504155916
45.4102 76.62631937632378
46.875 77.30949916991709
48.3398 77.92553695441141
51.2695 78.99746450680377
52.7344 79.51583384441372
54.1992 80.1143108086727
55.6641 80.6686652576481
58.5938 81.51411708589869
60.0586 81.97847312663176
62.9883 82.85737447973796
64.4531 83.25634584416566
67.3828 83.98540814500738
68.8477 84.23539163857849
71.7773 84.65366239050338
74.707 85.0186868684052
77.6367 85.22850209870279
79.1016 85.25412703315227
82.0312 85.24696743141286
84.9609 85.31450722332907
87.8906 85.32639364692103
90.8203 85.3627588738487
95.2148 85.3166061058799
98.1445 85.20915929414205
101.074 85.08101538960294
105.469 84.9171440190051
108.398 84.80724150791941
112.793 84.60709160383433
117.188 84.32055299729338
120.117 84.34467981022895
124.512 84.23143341174911
128.906 83.98662339197698
133.301 83.81886350950732
139.16 83.51015970113899
143.555 83.18056815723115
147.949 83.35672404811191
153.809 83.28430907069233
159.668 82.7672258701997
165.527 82.55744712401496
171.387 82.72916586839315
177.246 82.7876173317556
183.105 82.82234049538543
188.965 82.8235562799593
196.289 83.0842594512698
203.613 82.97596936919136
210.938 83.56143361879393
218.262 84.13143207400901
225.586 84.17413267346184
232.91 84.02846860584266
241.699 84.37434638000623
250.488 83.9471126865803
259.277 84.12133838134538
268.066 84.47165773506913
276.855 83.3478846235108
287.109 83.33694404876981
297.363 83.46143066685893
307.617 83.4537541217888
319.336 82.80431722066731
329.59 82.83808110328287
341.309 82.87946394465486
353.027 82.82463554892423
366.211 83.49513402445704
379.395 82.70389616435469
392.578 82.9392923086174
405.762 82.87274164597181
420.41 82.88910687821927
435.059 82.87999262503824
451.172 82.97915329074694
465.82 82.96491045010733
483.398 82.66589270878943
499.512 82.50363875741
517.09 83.09888361747234
536.133 83.1233848461132
555.176 83.38944174667427
574.219 83.48856818299969
594.727 84.3540425962241
615.234 84.12928824441276
637.207 84.22200612924313
659.18 83.95165960524639
682.617 84.22900454904615
707.52 85.39172968900114
732.422 83.87055781720933
757.324 82.28752552366329
785.156 82.86025019172442
811.523 82.67492300992232
840.82 83.72306851247907
870.117 84.50169819016536
900.879 84.24163325039082
933.105 84.35822005194113
965.332 84.51238397835407
1000.49 84.56822571239115
1035.64 84.69621304862389
1072.27 84.4268413389334
1108.89 84.80466409061685
1148.44 84.79644744075927
1189.45 85.1371405166757
1230.47 85.22276278220203
1274.41 84.62142356768713
1319.82 84.11193321504989
1366.7 84.0717534624573
1413.57 83.21047676506959
1463.38 83.15392342670982
1516.11 83.09714583521932
1568.85 82.76383392453043
1624.51 82.40355420580504
1681.64 82.27921449279914
1741.7 81.91343517427369
1803.22 81.76774951597834
1866.21 81.4827845240268
1932.13 81.46077048944608
1999.51 81.3591077002694
2069.82 80.97600401266294
2143.07 80.6835542006723
2219.24 80.87972517724788
2296.88 80.62398506594828
2378.91 79.81059634714667
2462.4 80.4613665773271
2548.83 80.82255995360516
2639.65 80.75061010107115
2731.93 80.77427410611092
2828.61 80.73972806326637
2928.22 80.48071618296413
3030.76 80.60493933532594
3137.7 80.85717753390851
3249.02 80.96235112300299
3363.28 81.26959573184791
3481.93 81.69783742841291
3604.98 82.02253221993638
3732.42 81.96361821291015
3864.26 82.01115762397933
4000.49 82.0940317506113
4141.11 82.22766318810166
4287.6 82.267175464229
4438.48 81.92424969022775
4595.21 82.03172537162673
4756.35 82.39209717792912
4924.8 82.6750937012649
5097.66 82.63847091562663
5277.83 82.6930835904954
5463.87 82.65412791897712
5657.23 82.07232906143342
5856.45 81.18939883284973
6062.99 80.68384686367123
6276.86 79.8713755015249
6498.05 79.35344039768405
6726.56 79.10094144450828
6963.87 79.36696547681109
7209.96 79.52085577281584
7464.84 80.06489542124696
7727.05 80.51307962691249
7999.51 80.94365622956333
8282.23 81.51850476303596
8573.73 81.31835923067298
8876.95 81.19700711833313
9188.96 81.52081259188164
9514.16 81.8761956467704
9849.61 81.74307941008857
10196.8 81.49039494584471
10555.7 81.59562516441413
10927.7 81.56720890888536
11313.0 81.49474740238652
11712.9 81.57410602891534
12126.0 81.38697104221175
12553.7 80.53139801194881
12996.1 80.4423951780367
13454.6 80.40038612879388
13929.2 80.10355381375471
14419.9 79.82695944830832
14928.2 79.27097512440285
15455.6 78.7055167591983
16000.5 78.50605031044462
16564.5 77.43585070626663
17148.9 75.78121966873043
17752.4 73.4251086967713
18379.4 71.75317687702294
19026.9 70.23304750870156
19697.8 68.85356641102565
19999.5 68.56559264403957
