Freq "Rear Wall Bounce"
20.5078 51.578107637093
21.9727 53.53988115203809
23.4375 57.891100159936556
24.9023 59.28334564021971
26.3672 60.113633559060716
27.832 61.53099808175968
29.2969 62.800449828909464
30.7617 64.67134763554583
32.2266 66.0973511252245
33.6914 67.18678998757811
35.1562 68.81795209755178
36.6211 70.16351992223998
38.0859 71.2830431087634
39.5508 72.29051305173407
41.0156 73.09115264750858
42.4805 73.60395391212735
43.9453 74.91463038017592
45.4102 75.2349965369467
46.875 75.90638692698215
48.3398 76.66908497813846
51.2695 77.87829947578632
52.7344 78.4775275259414
54.1992 78.90802011705858
55.6641 79.4211577259924
58.5938 80.33253269539446
60.0586 80.78335488594271
62.9883 81.63753179835311
64.4531 82.05687009878365
67.3828 82.70820140504043
68.8477 83.0058267969349
71.7773 83.48463340188648
74.707 83.82487121051454
77.6367 84.03119684923739
79.1016 84.07359790853751
82.0312 84.09276786659008
84.9609 84.1614883509788
87.8906 84.21143640360232
90.8203 84.26022704483024
95.2148 84.11206014579281
98.1445 83.98809143570362
101.074 83.75169105490939
105.469 83.52866227867973
108.398 83.4320307048046
112.793 83.26450636713653
117.188 82.81853192903601
120.117 82.67665932310737
124.512 82.80264906974935
128.906 82.60991563521834
133.301 82.24264696464273
139.16 81.87169629857782
143.555 81.59461622223266
147.949 81.53132683421775
153.809 81.69565426862462
159.668 81.03361041067573
165.527 80.82374265254607
171.387 80.18795272646479
177.246 80.7748499112775
183.105 80.78565327126329
188.965 80.9252181634757
196.289 81.01039429182438
203.613 80.91700786694355
210.938 80.97431445132257
218.262 81.4761601015931
225.586 82.34577931487041
232.91 82.0336006287096
241.699 81.90720544520711
250.488 81.48130644163425
259.277 81.356112503825
268.066 81.79993188710525
276.855 81.59618693180387
287.109 80.67845120778068
297.363 80.2950275031885
307.617 81.04897708835725
319.336 80.11524831775854
329.59 80.38098863804983
341.309 79.51766415387917
353.027 79.7835139473738
366.211 79.3985920410345
379.395 79.18345010228339
392.578 79.35007845313449
405.762 79.22928156315069
420.41 78.60370102279002
435.059 79.1622955988466
451.172 78.57413544567062
465.82 78.50593897464152
483.398 79.05452692585781
499.512 79.03466053456141
517.09 77.87686611870818
536.133 78.67185017220955
555.176 79.01443920606306
574.219 78.98797883053693
594.727 78.76109489679061
615.234 78.63978681990223
637.207 76.98474215509346
659.18 77.83044691751017
682.617 78.15483201496606
707.52 78.86742059262586
732.422 78.77860948959834
757.324 77.06467705473075
785.156 76.50174473775301
811.523 76.40985920814447
840.82 76.69191919778858
870.117 75.21799052530436
900.879 74.4526590370287
933.105 75.47620080653198
965.332 73.92978214233194
1000.49 74.48650884097968
1035.64 73.25697708815113
1072.27 74.49005873200754
1108.89 75.29944886929219
1148.44 74.38758160661398
1189.45 73.32045082474984
1230.47 72.8294836788467
1274.41 72.14305423316215
1319.82 72.20993168126924
1366.7 72.43956650341896
1413.57 72.27559574365742
1463.38 72.48542280351289
1516.11 71.19318809792104
1568.85 70.84142671916625
1624.51 71.34339240007058
1681.64 70.90184395301334
1741.7 70.74038974030107
1803.22 71.3988120857784
1866.21 71.33148268723903
1932.13 71.0118584495212
1999.51 70.9178959702828
2069.82 70.21873595859672
2143.07 70.81425526836526
2219.24 71.15576023645984
2296.88 71.34759782090676
2378.91 71.43904391162111
2462.4 70.97119393558324
2548.83 70.50575561391649
2639.65 69.51777781134707
2731.93 69.40434024804965
2828.61 68.86333355109922
2928.22 68.85384018828692
3030.76 68.45927510013333
3137.7 69.26542965070705
3249.02 68.85491660220056
3363.28 67.90334506498482
3481.93 68.77542750921195
3604.98 68.06008910898231
3732.42 69.00121717332415
3864.26 68.63007540658812
4000.49 68.65050715856422
4141.11 67.61902754376212
4287.6 67.60627703383153
4438.48 66.67514305267086
4595.21 66.4622752011364
4756.35 66.72125410471551
4924.8 66.65377900898477
5097.66 67.35941998596388
5277.83 67.17346539609134
5463.87 67.88139317502105
5657.23 68.05684013929624
5856.45 67.86687360386864
6062.99 67.21057248966731
6276.86 67.47202198811111
6498.05 66.85831748455749
6726.56 66.44123167335978
6963.87 66.21499493129656
7209.96 65.73615790661363
7464.84 65.13719390187455
7727.05 64.09241541200943
7999.51 62.82466434893303
8282.23 61.754176762921176
8573.73 60.344805572346914
8876.95 59.72744723900554
9188.96 58.26532473011768
9514.16 56.07214970873726
9849.61 53.819427235064595
10196.8 54.37565016125244
10555.7 53.300403846763075
10927.7 50.92559566463076
11313.0 47.98392992813835
11712.9 47.564142785853605
12126.0 50.8674753162433
12553.7 53.07477975148477
12996.1 56.61786731461525
13454.6 58.47896728227458
13929.2 58.764585427148106
14419.9 58.61828089896373
14928.2 57.880503824898696
15455.6 57.469883899888615
16000.5 56.600500219923376
16564.5 54.664415048078595
17148.9 52.9984186712942
17752.4 51.736395457015945
18379.4 49.60733658009521
19026.9 46.615830377102995
19697.8 44.40624695730229
19999.5 45.78224351703609
