Freq "Side Wall Bounce"
20.5078 31.91799656535106
23.4375 33.68906167629815
26.3672 37.98282011496353
29.2969 42.094768621433914
32.2266 45.12510098022206
35.1562 48.66511006388332
38.0859 52.0909239559351
41.0156 55.5445161457377
43.9453 58.4328112962981
46.875 61.315061411456014
49.8047 63.41547114851737
52.7344 64.65999775094387
55.6641 65.22069865883024
58.5938 65.3156567385163
61.5234 65.30450644589371
64.4531 65.33202114262403
67.3828 65.2116330504859
70.3125 65.2712831610845
73.2422 65.04759237978091
76.1719 65.18322477874405
79.1016 65.1770417355806
82.0312 65.22622033350254
84.9609 65.2843852716927
87.8906 65.38309632795996
90.8203 65.44481859809368
93.75 65.49786440465276
96.6797 65.69882771505446
102.539 65.90108427586836
105.469 65.87159124645798
108.398 65.89492041162765
111.328 65.96999229029274
117.188 66.11075150784886
120.117 66.49280628663426
125.977 66.63957236609903
128.906 66.70492415363513
134.766 66.80308138912152
137.695 66.85031770833243
143.555 66.98391148366225
149.414 66.99973200056165
155.273 67.04502769495697
158.203 67.05678556428923
164.062 67.06860726883112
169.922 67.13312039280633
175.781 67.14617334944947
181.641 67.13941043353496
190.43 67.11225163459262
196.289 67.12060181473234
202.148 67.06553731801719
210.938 66.94021198603009
216.797 66.8299337375005
225.586 66.71562568704307
234.375 66.62106542977136
240.234 66.56092835854237
249.023 66.62361170405012
257.812 66.66912453861295
266.602 66.60282998956315
278.32 66.53496899138663
287.109 66.47735877928682
295.898 66.37159856235577
307.617 66.12485119875113
319.336 65.9378123189496
331.055 65.96798681321907
342.773 65.92566116565351
354.492 65.8842484748714
366.211 65.85867175869232
377.93 65.90411810945389
392.578 65.73451861387278
407.227 65.52722570357484
421.875 65.35142036823659
436.523 64.94749696582303
451.172 64.67883537473053
465.82 64.52202066309466
483.398 64.42952641803564
500.977 63.58717686304159
518.555 64.3379662408696
536.133 64.22005699871589
553.711 63.56343304495998
574.219 63.551527953349265
594.727 63.59421658404371
615.234 63.71143779146185
638.672 64.45217301653052
659.18 65.1990062943906
682.617 65.1506700906725
706.055 64.7363735558757
732.422 64.80901144934029
758.789 64.41433868028092
785.156 64.34296808681962
811.523 64.115018860793
840.82 63.62050786734997
870.117 63.06782007077891
902.344 63.41072439729437
931.641 63.17607740824812
966.797 62.54015455924413
999.023 62.42895689579494
1034.18 63.29278842455159
1072.27 62.9546569973205
1110.35 63.17286006463695
1148.44 63.546913467761684
1189.45 63.381635940615254
1230.47 63.24280810032762
1274.41 63.305769202540176
1318.36 62.79044458460639
1365.23 62.34983940457796
1415.04 62.26691919698952
1464.84 62.16401399364214
1514.65 62.82994475952064
1570.31 62.47136005117747
1623.05 62.02812848860437
1681.64 61.48923935794927
1740.23 61.40338184443688
1801.76 61.32348796144589
1866.21 61.154105793371784
1930.66 60.71350401612098
2000.98 60.54886191654967
2071.29 60.708381273278306
2144.53 60.73027554142675
2217.77 60.75203795291094
2296.88 61.50286666847252
2378.91 61.911402632288514
2460.94 61.90860421209388
2548.83 61.96659633931516
2639.65 61.84820226371281
2733.4 61.874482984671616
2827.15 62.06118316784888
2926.76 62.27958628049912
3032.23 61.92633861764884
3137.7 62.48638576415374
3249.02 62.6002576546979
3363.28 62.06954208542007
3483.4 62.6028041880909
3606.45 61.94571691200305
3732.42 61.91316653612736
3864.26 61.8283567656224
3999.02 61.700448436619396
4139.65 61.30028900860401
4286.13 61.383044827495596
4438.48 61.02678996890569
4593.75 61.07378379862446
4757.81 60.86565793617565
4924.8 60.70274786819921
5097.66 60.38366113865921
5279.3 60.58419175690544
5463.87 60.27883278337889
5657.23 60.253164344956346
5856.45 60.22237076933473
6061.52 60.0196687532284
6275.39 60.043548615446284
6498.05 59.61572613527825
6726.56 59.54727957296612
6963.87 59.29832155580081
7209.96 59.15825765395776
7464.84 59.02297857940866
7728.52 58.87261708623393
8000.98 58.710937868112794
8282.23 58.45557336513039
8575.2 57.80715508750994
8876.95 57.109805896161134
9190.43 56.602250742138224
9512.7 55.95988943013026
9849.61 55.62270956611073
10195.3 55.88265966484893
10555.7 56.22478121474994
10927.7 56.55649893971153
11314.5 56.58449819493569
11712.9 56.50100217513416
12126.0 56.084632825720476
12553.7 55.32591682715416
12996.1 53.989432918366646
13453.1 52.786022628349556
13927.7 52.658771733613904
14419.9 52.700289263658945
14929.7 52.64855082794749
15454.1 52.572199731785076
15999.0 51.79530534729531
16564.5 51.77004003409736
17147.5 52.028678949019564
17753.9 51.64671406201853
18377.9 51.018239750581586
19028.3 49.446799571216786
19699.2 47.63197919176538
19998.0 47.08257416816822
