Freq "Estimated In-Room Response"
22.4 5.454466173992387
23.0 7.326735355519276
23.6 9.386914109671181
24.0 10.570659040454672
25.0 11.505874914737944
25.8 12.091412527414093
26.5 12.475729580947416
27.2 15.470957690501535
28.0 19.071090929353517
29.0 22.92072951755509
30.0 27.903247839316293
30.7 29.2931486291547
31.5 31.032207921546245
32.5 33.84531466179931
33.5 35.42437925102769
34.5 37.4307372208678
35.5 40.48145986915566
36.5 42.4356714548382
37.5 43.72990898206808
38.7 45.359836324461924
40.0 47.896553787808955
41.2 51.63740035620802
42.5 55.71446224743133
43.7 57.93091179716913
45.0 60.08287508677017
46.2 62.38138789290082
47.5 64.5500068961955
48.7 63.162829880294396
50.0 63.643371695061546
51.5 65.9070875075989
53.0 68.35542391817813
54.5 70.28892305318692
56.0 72.250380900885
58.0 74.50306887859585
60.0 76.5810793981947
61.5 78.71445225375233
63.0 80.61507484516751
65.0 82.40739162249778
67.0 84.07521764154018
69.0 85.66398246182388
71.0 87.1340493929923
73.0 88.37875299021172
75.0 89.41953944114805
77.5 90.32518495367239
80.0 91.17188618519454
82.5 91.85292622095594
85.0 92.38308091726498
87.5 92.71262817412851
90.0 92.87786186388647
92.5 92.97442173091778
95.0 92.90921963853714
97.5 92.80305897181329
100.0 92.66535443015886
103.0 92.39413064299237
106.0 92.14879624764038
109.0 91.96237393481121
112.0 91.80033122595246
115.0 91.68790491569303
118.0 91.58023466990099
122.0 91.47241444872947
125.0 91.38649539665985
128.0 91.258404514518
132.0 91.10610700101384
136.0 91.04540204471196
140.0 90.97488925078648
145.0 90.88870998982807
150.0 90.78626147499865
155.0 90.67340453633403
160.0 90.50911764267397
165.0 90.38464502325262
170.0 90.2204301002819
175.0 90.09018410260705
180.0 89.95023667450619
185.0 89.93222101087501
190.0 89.95480057758071
195.0 89.99783093258256
200.0 89.90425713722648
206.0 89.722449517378
212.0 89.59954418273092
218.0 89.41122907107462
224.0 89.1085822726446
230.0 88.77490542151247
236.0 88.48608379777636
240.0 88.37491618834939
250.0 88.42781578470425
258.0 88.54082210014647
265.0 88.76509303311269
272.0 89.03700907281446
280.0 89.23316778026575
290.0 89.28432841706976
300.0 89.2368266421632
307.0 89.19282218410649
315.0 88.98714944159804
325.0 88.81882561458212
335.0 88.6570892877717
345.0 88.40221143188529
355.0 88.13315970336436
365.0 87.99236525054921
375.0 87.92309894821413
387.0 87.78211097619125
400.0 87.52145004824371
412.0 87.24023538698134
425.0 87.03058131465447
437.0 86.82651887104277
450.0 86.74124399967525
462.0 86.92156421368668
475.0 87.21518006925604
487.0 87.34939377345292
500.0 87.50194568656335
515.0 87.89054610042953
530.0 87.99700802970385
545.0 87.91149005877067
560.0 87.20017633338301
580.0 86.3858915393075
600.0 85.84618107188291
615.0 85.73538421239012
630.0 85.9317265008994
650.0 86.40612255281248
670.0 86.85642873542511
690.0 87.06331694978235
710.0 87.02986309121843
730.0 86.85154868332752
750.0 86.90309377976489
775.0 87.05345129679293
800.0 86.89957334997051
825.0 86.05406997495979
850.0 84.95523122351157
875.0 84.43035553865606
900.0 84.56225061434527
925.0 84.54954356906822
950.0 84.20551505416239
975.0 83.67544983763324
1000.0 83.62623161576445
1030.0 83.95803141381599
1060.0 83.87814536028976
1090.0 83.72415292709357
1120.0 83.80979908048255
1150.0 83.24125462317352
1180.0 83.00060619452071
1220.0 82.82826423906882
1250.0 82.34704062606723
1280.0 81.87116176442193
1320.0 81.6750852454523
1360.0 82.15286899144651
1400.0 82.28842175797865
1450.0 82.17213017050483
1500.0 82.01981977005639
1550.0 82.0772828539853
1600.0 82.35789124646575
1650.0 82.64024440113648
1700.0 82.31814935688412
1750.0 81.64413580891377
1800.0 80.96355996647354
1850.0 80.90544182818911
1900.0 81.55408867295836
1950.0 81.88556751793163
2000.0 81.8001806219471
2060.0 81.87263357644233
2120.0 82.40499675680638
2180.0 82.28012654961162
2240.0 81.95651730013711
2300.0 81.7427789336399
2360.0 81.41406332607279
2400.0 81.2501418039145
2500.0 80.3598369740863
2580.0 79.38212464773758
2650.0 79.32818609344176
2720.0 79.93979594621014
2800.0 80.05431361094215
2900.0 80.81040571989101
3000.0 82.14394138033137
3070.0 82.61721699352925
3150.0 82.47366374250318
3250.0 82.57520828213615
3350.0 81.83268851367345
3450.0 81.95545310942799
3550.0 83.30927189160829
3650.0 84.26247906693253
3750.0 84.8407720212207
3870.0 84.35556507406643
4000.0 84.23416869710258
4120.0 84.53945845130414
4250.0 85.0889316723983
4370.0 85.86192148826126
4500.0 85.98964915613796
4620.0 87.20595117700768
4750.0 86.97934019894537
4870.0 87.07909240701709
5000.0 87.20723527338484
5150.0 88.5189836076983
5300.0 88.95487255495102
5450.0 89.17516179164805
5600.0 89.47317517352336
5800.0 89.22255401905164
6000.0 89.43727688677808
6150.0 89.0472787430958
6300.0 88.62615987319893
6500.0 88.38339510683215
6700.0 88.51728907118877
6900.0 88.67121613128165
7100.0 88.58236933761066
7300.0 87.58733440833183
7500.0 87.19841261565381
7750.0 87.50709148506812
8000.0 87.4817399676447
8250.0 87.36286772857491
8500.0 87.57495236315512
8750.0 87.49227334994988
9000.0 87.47909190723048
9250.0 87.23643578146776
9500.0 87.41530071205389
9750.0 86.87782578829616
10000.0 86.49038837530307
10300.0 86.03076736607603
10600.0 85.99504940766762
10900.0 86.07118501455962
11200.0 86.28191910805292
11500.0 85.94523006813124
11800.0 85.11915816219279
12200.0 84.84526791762418
12500.0 85.06382265322917
12800.0 85.28754275315434
13200.0 85.9216458118355
13600.0 84.98357810556286
14000.0 83.32853746337965
14500.0 82.93106295300625
15000.0 82.50942155978426
15500.0 82.0324758326245
16000.0 81.07952605034617
16500.0 81.90565239284064
17000.0 88.6435942894478
17500.0 80.26455278984409
18000.0 73.70546338888805
18500.0 72.2517858817603
19000.0 70.31664052821708
19500.0 67.50691349460746
