Freq "Floor Bounce"
22.4 1.0126337957869538
23.0 2.835577690095718
23.6 4.712633795786971
24.0 6.512633795786954
25.0 8.373389588048767
25.8 10.112633795786948
26.5 11.835577690095747
27.2 13.573389588048727
28.0 15.21263379578697
29.0 17.012633795786982
30.0 18.773389588048744
30.7 20.612633795786948
31.5 22.573389588048755
32.5 24.612633795786977
33.5 26.735577690095724
34.5 28.935577690095712
35.5 31.13557769009573
36.5 33.33557769009572
37.5 35.512633795786954
38.7 37.573389588048755
40.0 39.512633795786954
41.2 41.312633795786965
42.5 43.012633795786954
43.7 44.62830268282575
45.0 46.19009444964941
46.2 47.76795456817335
47.5 49.328302682825736
48.7 50.950645109650125
50.0 52.61263379578698
51.5 54.45893120445781
53.0 56.306887304576875
54.5 58.21858281464391
56.0 60.17042508547739
58.0 62.051553126949045
60.0 63.80793758420694
61.5 65.49605648352578
63.0 66.99154405393726
65.0 68.32261605913133
67.0 69.45418334813743
69.0 70.45266622863286
71.0 71.25266622863286
73.0 71.88625014286228
75.0 72.45266622863285
77.5 72.88625014286227
80.0 73.15418334813744
82.5 73.38625014286228
85.0 73.52034957223158
87.5 73.58625014286228
90.0 73.68625014286228
92.5 73.68625014286228
95.0 73.68625014286228
97.5 73.72034957223157
100.0 73.75266622863286
103.0 73.85266622863286
106.0 73.95266622863286
109.0 74.05266622863287
112.0 74.15266622863287
115.0 74.25266622863286
118.0 74.35266622863287
122.0 74.42034957223157
125.0 74.42034957223157
128.0 74.32034957223158
132.0 74.18853449084911
136.0 74.08853449084911
140.0 73.92340674204662
145.0 73.75721680184196
150.0 73.59234041363216
155.0 73.45721680184195
160.0 73.29234041363215
165.0 73.29234041363215
170.0 73.22340674204663
175.0 73.22340674204663
180.0 73.22340674204663
185.0 73.25496830521976
190.0 73.2885344908491
195.0 73.2885344908491
200.0 73.32034957223158
206.0 73.25496830521976
212.0 73.25496830521976
218.0 73.18853449084911
224.0 73.15496830521977
230.0 73.15496830521977
236.0 73.12340674204661
240.0 73.15880374453184
250.0 73.22340674204663
258.0 73.32340674204663
265.0 73.45880374453185
272.0 73.62340674204661
280.0 73.72340674204663
290.0 73.89234041363216
300.0 73.95880374453183
307.0 73.99234041363215
315.0 73.99234041363215
325.0 73.89766592856195
335.0 73.7340984075003
345.0 73.50450826619941
355.0 73.27539558483706
365.0 73.08447091464284
375.0 72.88447091464283
387.0 72.72272843702024
400.0 72.66153130099345
412.0 72.72272843702024
425.0 72.7508731854865
437.0 72.88447091464283
450.0 73.0508731854865
462.0 73.17948592701318
475.0 73.31286387654909
487.0 73.3508731854865
500.0 73.26153130099344
515.0 73.13409686207778
530.0 72.88059118785522
545.0 72.61055901018558
560.0 72.20367310952466
580.0 71.86647769171033
600.0 71.51096137075233
615.0 71.21441195483244
630.0 70.94078736956376
650.0 70.73634635780734
670.0 70.63634635780734
690.0 70.50464867632085
710.0 70.5246754790641
730.0 70.54507360924616
750.0 70.68700424147698
775.0 70.86127702482781
800.0 71.08303341106607
825.0 71.41693811008477
850.0 71.78002107092563
875.0 72.10837868079331
900.0 72.51425616359803
925.0 72.89870856938539
950.0 73.25732274150384
975.0 73.58548856105723
1000.0 73.85266622863286
1030.0 74.02034957223158
1060.0 74.15496830521975
1090.0 74.18853449084911
1120.0 74.25418334813743
1150.0 74.22034957223157
1180.0 74.2195939472302
1220.0 74.18853449084911
1250.0 74.22639224448163
1280.0 74.23683365878574
1320.0 74.3160967371369
1360.0 74.3970143034948
1400.0 74.4185828146439
1450.0 74.46848936110509
1500.0 74.4580512618009
1550.0 74.41263379578697
1600.0 74.29277582726141
1650.0 74.11715984757491
1700.0 73.86785073750059
1750.0 73.58943066994628
1800.0 73.27094323203067
1850.0 73.02626491205132
1900.0 72.71861575885865
1950.0 72.46380282055857
2000.0 72.23949919706648
2060.0 72.12506937314613
2120.0 72.0747577631149
2180.0 72.06817656595472
2240.0 72.10450826619943
2300.0 72.19154405393725
2360.0 72.32504084553808
2400.0 72.42799048866947
2500.0 72.59605648352576
2580.0 72.66176502090055
2650.0 72.72504084553808
2720.0 72.73846519728973
2800.0 72.76026807269498
2900.0 72.75912290790089
3000.0 72.71416793075447
3070.0 72.66585525505998
3150.0 72.57094323203067
3250.0 72.4001742625698
3350.0 72.23508622382928
3450.0 71.97622028181546
3550.0 71.72859525206407
3650.0 71.49868593067573
3750.0 71.33288363968404
3870.0 71.20524448690328
4000.0 71.1556848811647
4120.0 71.09537918923264
4250.0 71.16678396223365
4370.0 71.22423110282777
4500.0 71.34000835669232
4620.0 71.43343195718455
4750.0 71.54325889602302
4870.0 71.66938353221083
5000.0 71.81251918568437
5150.0 71.87425695132252
5300.0 71.98998194769445
5450.0 72.04674537873184
5600.0 72.09361825748701
5800.0 72.17808583809229
6000.0 72.24555260947838
6150.0 72.31669996001386
6300.0 72.38766916374584
6500.0 72.36337368260489
6700.0 72.38700545418573
6900.0 72.49662116725828
7100.0 72.61251682498431
7300.0 72.78399793366098
7500.0 73.09200144509931
7750.0 73.4402582023988
8000.0 73.9262681160955
8250.0 74.5570926157486
8500.0 75.19708957608756
8750.0 75.93442608259676
9000.0 76.60828440245737
9250.0 77.15389776579882
9500.0 77.4658481633033
9750.0 77.51861575885867
10000.0 77.26380282055857
10300.0 76.5633736826049
10600.0 75.58582530894968
10900.0 74.34427772227524
11200.0 73.05912290790089
11500.0 71.73149994851185
11800.0 70.56152124493933
12200.0 69.54579469301399
12500.0 68.83048137427443
12800.0 68.45380439220435
13200.0 68.41317353965646
13600.0 68.48531013205853
14000.0 68.67946507563417
14500.0 68.80787203502094
15000.0 68.80741500213334
15500.0 68.64312063860211
16000.0 68.09764031307493
16500.0 67.1830507106474
17000.0 65.91929020682782
17500.0 64.35472064032582
18000.0 62.6567101423656
18500.0 60.82210534667928
19000.0 58.874375233832936
19500.0 57.04069900804865
