Freq "Rear Wall Bounce"
22.4 0.7943971803152436
23.0 2.6565664856755262
23.6 4.501767353786747
24.0 6.335723493859589
25.0 8.156566485675498
25.8 9.926080859880116
26.5 11.656566485675498
27.2 13.356566485675515
28.0 15.056566485675503
29.0 16.794397180315272
30.0 18.570085754423346
30.7 20.394397180315238
31.5 22.356566485675515
32.5 24.411243578614332
33.5 26.556566485675503
34.5 28.72992956300395
35.5 30.95656648567551
36.5 33.1565664856755
37.5 35.27689073818145
38.7 37.356566485675515
40.0 39.30176735378676
41.2 41.10759895268397
42.5 42.83778856965377
43.7 44.45893897269558
45.0 46.037788569653785
46.2 47.60990873150372
47.5 49.163204451519036
48.7 50.76787090490704
50.0 52.44651728072627
51.5 54.200411276463186
53.0 56.03898218953765
54.5 57.89038610034312
56.0 59.763354952361766
58.0 61.61573486072122
60.0 63.353348873472555
61.5 65.00385031417575
63.0 66.48853169533908
65.0 67.81468325962588
67.0 68.95096433153412
69.0 69.95096433153412
71.0 70.78219587023625
73.0 71.50207975725611
75.0 72.09142335209123
77.5 72.5487567272802
80.0 72.90641587089799
82.5 73.19600720811671
85.0 73.39600720811673
87.5 73.54383192635713
90.0 73.62340454249731
92.5 73.64429554797157
95.0 73.66032203393202
97.5 73.63926236896276
100.0 73.62340454249731
103.0 73.57986292995511
106.0 73.54814059954833
109.0 73.51618485256671
112.0 73.47962495191837
115.0 73.43759675451271
118.0 73.40145421354549
122.0 73.31789205608574
125.0 73.22824298042646
128.0 73.12824298042646
132.0 73.01184709416889
136.0 72.91184984536604
140.0 72.78666224254371
145.0 72.64640456078706
150.0 72.52081142815626
155.0 72.375355787246
160.0 72.25256171950795
165.0 72.13379953735544
170.0 72.00527037921282
175.0 71.88399855940746
180.0 71.78417953288152
185.0 71.68062482916248
190.0 71.5524969881114
195.0 71.44384948823888
200.0 71.3087396471958
206.0 71.18825619817007
212.0 71.06046409315813
218.0 70.9131975800167
224.0 70.76243349076005
230.0 70.61099910443224
236.0 70.46404399030077
240.0 70.28296362311896
250.0 70.11388764405812
258.0 69.95498190171882
265.0 69.76088090154316
272.0 69.56344847572493
280.0 69.33918696863769
290.0 69.1189234167733
300.0 68.85169442936773
307.0 68.57887309090904
315.0 68.26213120717007
325.0 67.90037704472196
335.0 67.53190142128578
345.0 67.15547613294675
355.0 66.78192904302982
365.0 66.44899684053762
375.0 66.1546836133113
387.0 65.8757997005969
400.0 65.65763425959365
412.0 65.50318332315248
425.0 65.37731713284174
437.0 65.31952621623766
450.0 65.2942236767049
462.0 65.28635224066038
475.0 65.32337541887908
487.0 65.35425944793924
500.0 65.40558568320445
515.0 65.44615874925158
530.0 65.46180003200554
545.0 65.47016799057877
560.0 65.44157355220455
580.0 65.40834334137685
600.0 65.35457017337588
615.0 65.28012700523277
630.0 65.15272272427111
650.0 65.00455053934559
670.0 64.86298131209827
690.0 64.69609279297872
710.0 64.49937287187693
730.0 64.2807627106523
750.0 63.96193709833659
775.0 63.578778714214195
800.0 63.05885691742169
825.0 62.43667708728326
850.0 61.77684411810354
875.0 61.14681529187678
900.0 60.656147133396374
925.0 60.28861152289059
950.0 60.051101797510015
975.0 59.9143562850564
1000.0 59.784867807830565
1030.0 59.69442788609187
1060.0 59.593576044660054
1090.0 59.55693045591815
1120.0 59.56220095796077
1150.0 59.69726910792572
1180.0 59.91390639116764
1220.0 60.2253287641484
1250.0 60.48916082706505
1280.0 60.644639980383545
1320.0 60.70737915584189
1360.0 60.69563316396038
1400.0 60.54840165807322
1450.0 60.378899279794695
1500.0 60.14366902812759
1550.0 59.85601353553314
1600.0 59.53326012207397
1650.0 59.08865056237394
1700.0 58.58920167946205
1750.0 58.009284079013824
1800.0 57.42503179736002
1850.0 56.86088284768584
1900.0 56.318419109739736
1950.0 55.86403090000029
2000.0 55.5148867003889
2060.0 55.25364873729356
2120.0 55.12912885122317
2180.0 55.12622381298199
2240.0 55.21766697268836
2300.0 55.41915027709926
2360.0 55.73658900542
2400.0 56.16670355718432
2500.0 56.67345691371962
2580.0 57.25442447518628
2650.0 57.87689062024566
2720.0 58.555988724591415
2800.0 59.18570347441174
2900.0 59.716685730576046
3000.0 60.13146284480524
3070.0 60.28656306591053
3150.0 60.12791765521867
3250.0 59.5928613636907
3350.0 58.74588501124664
3450.0 57.702930177016626
3550.0 56.48565984051747
3650.0 55.2499774986794
3750.0 54.00273278878814
3870.0 52.90023898190887
4000.0 52.021013455315284
4120.0 51.34700917155732
4250.0 50.96856887235906
4370.0 50.74930888176563
4500.0 50.71496523304593
4620.0 50.80685984978727
4750.0 50.98622702393227
4870.0 51.21633905503977
5000.0 51.47458008767164
5150.0 51.7033632729793
5300.0 51.917077729435505
5450.0 52.08338690236154
5600.0 52.220841926261286
5800.0 52.327411698412604
6000.0 52.38149860957293
6150.0 52.361359361687434
6300.0 52.24170519075274
6500.0 52.02533916253559
6700.0 51.73882346327413
6900.0 51.43798938592876
7100.0 51.140212686527875
7300.0 50.834761406026715
7500.0 50.67813923263061
7750.0 50.58816485854716
8000.0 50.64739350581165
8250.0 50.92812509404253
8500.0 51.2906212819463
8750.0 51.75078946930087
9000.0 52.16661589481164
9250.0 52.52532512775433
9500.0 52.70779378417663
9750.0 52.731930583018055
10000.0 52.399762543180586
10300.0 51.78404194195916
10600.0 50.87002092463125
10900.0 49.72427508969123
11200.0 48.446576526332464
11500.0 47.02333699992765
11800.0 45.51033753950166
12200.0 44.086724636977905
12500.0 42.69206726023252
12800.0 41.45251965847204
13200.0 40.34743041429623
13600.0 39.2909950366121
14000.0 38.34217107543104
14500.0 37.40477217098355
15000.0 36.41585531603472
15500.0 35.371533505216505
16000.0 34.24763183363085
16500.0 32.96097932749409
17000.0 31.618245920327027
17500.0 30.219563252323937
18000.0 28.78853843557006
18500.0 27.390797785143903
19000.0 25.985465636055338
19500.0 24.619628669236178
