Freq "Total Early Reflection"
22.4 0.9309663286205279
23.0 2.762791546658079
23.6 4.6323957092111385
24.0 6.445888697300248
25.0 8.281443665901222
25.8 10.044010154741912
26.5 11.762791546658079
27.2 13.481443665901239
28.0 15.149960741483241
29.0 16.9309663286205
30.0 18.6946448404626
30.7 20.537861262729095
31.5 22.48144366590124
32.5 24.541126163518115
33.5 26.662791546658056
34.5 28.857605700360992
35.5 31.07066862653592
36.5 33.27066862653594
37.5 35.427578937818836
38.7 37.503619837758166
40.0 39.43928837618343
41.2 41.23266748678638
42.5 42.93855046064503
43.7 44.548887836153355
45.0 46.11834167564383
46.2 47.67165964913109
47.5 49.24216513206336
48.7 50.86317625797257
50.0 52.54799548983513
51.5 54.38471820085147
53.0 56.25402667995695
54.5 58.19390763303781
56.0 60.144684126644364
58.0 62.04650268752482
60.0 63.83545437738785
61.5 65.53520373973471
63.0 67.05699539581259
65.0 68.38953914347731
67.0 69.53790191874518
69.0 70.5318256660877
71.0 71.32224660614462
73.0 71.99518962750743
75.0 72.53400744457231
77.5 72.96405584539323
80.0 73.24994275601541
82.5 73.49378114096932
85.0 73.6492648513841
87.5 73.74154334262742
90.0 73.80389755438236
92.5 73.81842633469854
95.0 73.82151025105367
97.5 73.82728089314521
100.0 73.86612994607589
103.0 73.90778415071243
106.0 73.98054567097294
109.0 74.05069067398394
112.0 74.13007200779934
115.0 74.2021733081828
118.0 74.26871365154629
122.0 74.28967523838608
125.0 74.27113291448113
128.0 74.17250314971837
132.0 74.04942723990281
136.0 73.9333045369463
140.0 73.77167838603428
145.0 73.6071191113212
150.0 73.433537674712
155.0 73.29321716237736
160.0 73.14116726146746
165.0 73.06449597396602
170.0 72.99330075513377
175.0 72.93691598511495
180.0 72.90822545945223
185.0 72.90017401635875
190.0 72.87629624020012
195.0 72.84047338086803
200.0 72.8191819820561
206.0 72.76082797592055
212.0 72.72046763240222
218.0 72.65108933035967
224.0 72.60354998752466
230.0 72.5697440017423
236.0 72.54047003191918
240.0 72.53903346881937
250.0 72.57383016851263
258.0 72.64851926813044
265.0 72.73952412309949
272.0 72.85697166573426
280.0 72.93232209581062
290.0 73.04947659812031
300.0 73.10394275780146
307.0 73.0945676141487
315.0 73.05223939389086
325.0 72.90020357146568
335.0 72.70224616776738
345.0 72.44531203482701
355.0 72.20082632445583
365.0 71.96759338014792
375.0 71.75922443191382
387.0 71.61977270800772
400.0 71.55947860872752
412.0 71.60702161133344
425.0 71.71049325310771
437.0 71.8560730738937
450.0 72.0578582416742
462.0 72.2389446693066
475.0 72.40024613709897
487.0 72.48546033540856
500.0 72.47264050156646
515.0 72.37915995639435
530.0 72.18768305770716
545.0 71.92886816953386
560.0 71.61779309175269
580.0 71.32517335511504
600.0 71.01309328821297
615.0 70.76290248069118
630.0 70.53632553125836
650.0 70.36911125025436
670.0 70.29103384287761
690.0 70.2384704059133
710.0 70.23712462371584
730.0 70.28668247482301
750.0 70.38632695960187
775.0 70.49984509946587
800.0 70.65421688808352
825.0 70.81655196690123
850.0 71.01500974449996
875.0 71.22335226599581
900.0 71.45398725884054
925.0 71.68838266328679
950.0 71.91320627282154
975.0 72.11075473919294
1000.0 72.28462297832445
1030.0 72.36815223945219
1060.0 72.41413639753317
1090.0 72.38695446191251
1120.0 72.3597476373054
1150.0 72.25915549651101
1180.0 72.16075129209294
1220.0 72.03447431819343
1250.0 71.93024865853597
1280.0 71.80611518590035
1320.0 71.6921411739311
1360.0 71.61341973852345
1400.0 71.50944860206077
1450.0 71.44832273844007
1500.0 71.36448378141424
1550.0 71.29198226487503
1600.0 71.22749378320707
1650.0 71.1432112499773
1700.0 71.0626184473194
1750.0 71.00954089932598
1800.0 70.97991006553607
1850.0 71.00480650476891
1900.0 71.01189148173523
1950.0 71.0557040835402
2000.0 71.09325081262521
2060.0 71.13075139680275
2120.0 71.17547522829852
2180.0 71.22539471821219
2240.0 71.28273264903056
2300.0 71.33389777219554
2360.0 71.40657568555953
2400.0 71.45728251225768
2500.0 71.51539420677955
2580.0 71.5265303772926
2650.0 71.51763080663794
2720.0 71.51321295290023
2800.0 71.48240079331907
2900.0 71.46492135791432
3000.0 71.40764390898647
3070.0 71.34416814077817
3150.0 71.2339396324273
3250.0 71.07875584764246
3350.0 70.87700696172556
3450.0 70.63148171087805
3550.0 70.37432452371434
3650.0 70.14264478863836
3750.0 69.92493393512461
3870.0 69.75541888864944
4000.0 69.61874627740205
4120.0 69.49929495874329
4250.0 69.44575794413159
4370.0 69.41244620544667
4500.0 69.43349184348685
4620.0 69.48068271311352
4750.0 69.54555012874268
4870.0 69.63925952315238
5000.0 69.76285269081212
5150.0 69.88916983923937
5300.0 70.05164097464576
5450.0 70.19683606418486
5600.0 70.32381140396556
5800.0 70.48362331706944
6000.0 70.61705411804671
6150.0 70.71102821770148
6300.0 70.74613991134318
6500.0 70.69101538278937
6700.0 70.61412929481538
6900.0 70.5706707724804
7100.0 70.53858100522375
7300.0 70.57874939798273
7500.0 70.73991678280048
7750.0 70.99092113873108
8000.0 71.36638869104458
8250.0 71.88882636150812
8500.0 72.46536235029653
8750.0 73.11830190299507
9000.0 73.72144557079683
9250.0 74.24910146329249
9500.0 74.5951999181287
9750.0 74.72216490777802
10000.0 74.54824712593098
10300.0 74.01716663681877
10600.0 73.20058065757603
10900.0 72.19014971042593
11200.0 71.10715971254119
11500.0 69.98799251800942
11800.0 68.9894110928158
12200.0 68.13380229383957
12500.0 67.54672106785968
12800.0 67.24013570027772
13200.0 67.18941107034637
13600.0 67.28545149689097
14000.0 67.43536244944231
14500.0 67.53849496100484
15000.0 67.48681536720947
15500.0 67.23482391837052
16000.0 66.5979662753845
16500.0 65.60555105173351
17000.0 64.21687773989278
17500.0 62.57102543699531
18000.0 60.72493545952018
18500.0 58.76735958555399
19000.0 56.73137857900032
19500.0 54.77982166640743
