Freq "Rear Wall Bounce"
20.5078 61.15089995388389
21.2402 62.337691102180386
21.9727 62.60704297374106
22.7051 63.31491030008105
23.4375 64.2604656985179
24.1699 65.13584012881283
25.6348 66.22683608715822
26.3672 67.18503264222083
27.0996 67.40410593338503
27.832 68.1533958125334
29.2969 69.0430066344117
30.0293 70.02281067318
31.4941 71.34489859385504
32.2266 71.94093532485013
33.6914 73.19993743546205
34.4238 73.81173127631953
35.8887 75.07714560423226
37.3535 76.28563761986065
38.8184 77.3015137549607
39.5508 77.81375754557108
41.0156 78.97199699314659
42.4805 79.98332835212832
43.9453 80.7588510377642
45.4102 81.44873575644995
47.6074 82.30686835334309
49.0723 82.76592104908575
50.5371 83.12088380646726
52.7344 83.5727612085751
54.1992 83.82383898491645
56.3965 84.10652647462452
58.5938 84.39491516897533
60.0586 84.51567994773514
62.2559 84.73248277906504
64.4531 84.91696346605839
66.6504 85.06048997007993
69.5801 85.31890463084116
71.7773 85.51402050815217
73.9746 85.66019781663462
76.9043 85.89645035106861
79.834 86.15395921841223
82.7637 86.33587168590732
85.6934 86.52744494558739
88.623 86.77818951793432
91.5527 87.00310102456062
94.4824 87.19544330424439
98.1445 87.51198409803074
101.807 87.67178019871987
105.469 87.87471974999033
109.131 88.00113867016645
112.793 88.04827979997971
116.455 88.16973580528924
120.85 88.26502393260908
125.244 88.55334240727393
129.639 88.81304918833196
134.033 88.69760682285637
138.428 88.61756815351289
143.555 88.80847818317028
148.682 88.72435138573036
153.809 88.66007800985669
159.668 88.71388898188034
164.795 88.49482189821369
170.654 88.37718496622855
176.514 88.18789063215387
183.105 87.98362843794435
189.697 87.98975449559612
196.289 87.71711429620052
202.881 87.70690961634592
210.205 87.38425238822364
217.529 86.90659639127652
225.586 86.92813474109695
232.91 86.59789087191098
241.699 86.05248286792536
249.756 86.26344147070297
258.545 86.05621369131684
268.066 85.95915506821028
277.588 85.91126607894715
287.109 85.81845188307469
297.363 85.07791131198452
307.617 84.54898427788173
318.604 84.70825415762064
329.59 85.18963927228414
341.309 85.08715444243377
353.76 84.80613366543108
366.211 83.81669131307522
378.662 83.99968236971064
392.578 83.67800687360166
405.762 83.51312591561694
420.41 83.34792013258946
435.059 83.55729815790399
450.439 83.93051061128659
466.553 82.75272268522738
482.666 82.47903351130044
500.244 82.8420699814532
517.822 82.69881083751734
536.133 81.46961143692921
554.443 82.14382099918565
574.219 81.79611959719095
594.727 82.01386853764515
615.234 81.26284078544909
637.207 81.54468296373902
659.912 80.82689479517697
683.35 80.90636120224327
706.787 80.23250884601593
731.689 80.19353677612412
758.057 80.25912052359772
784.424 79.78447040851447
812.256 79.22452217813876
840.82 79.43086204103305
870.85 79.75103902431505
901.611 79.15509243038211
933.105 79.36062977333881
966.064 79.81756382898585
999.756 79.06571301857801
1034.91 78.86392255680704
1071.53 78.51403887069827
1109.62 77.43475310119332
1148.44 77.11375548065995
1189.45 76.57186145375435
1231.2 76.36473650405853
1274.41 75.51328141706408
1319.82 74.9289247060473
1365.97 74.7114855631912
1414.31 74.64450353785926
1464.11 74.93091221989502
1515.38 75.63076715357313
1568.85 76.3624130533837
1624.51 75.47920287270973
1681.64 76.05704128845683
1740.97 76.20381100935289
1802.49 76.67097980778294
1866.21 76.62717856047526
1932.13 75.47321013169301
2000.24 75.63433663919446
2070.56 75.29589433004459
2143.8 74.74127122470364
2219.24 74.2251662736796
2297.61 74.16982933293907
2378.17 74.06186240049557
2462.4 72.76442289427807
2548.83 73.52667966212458
2638.92 74.06811438314155
2731.93 74.0533897273382
2828.61 74.27002117935247
2928.22 74.69295666765353
3031.49 74.19079324882672
3138.43 75.35362005726894
3249.02 74.67000143004724
3363.28 73.91785746555193
3481.93 73.71890154929068
3604.98 73.04461702376851
3732.42 72.06468212506009
3863.53 72.04120115243977
3999.76 72.63913964378084
4141.11 73.4779662584997
4286.87 73.89356012274672
4438.48 73.4980999401383
4594.48 73.42343482642262
4757.08 73.49322246967515
4924.8 74.31654681567672
5098.39 72.9480815318081
5277.83 73.1397747302474
5463.87 73.01401272605894
5656.49 71.89529898952081
5856.45 72.21709351768298
6062.99 72.4084627550183
6276.86 72.28736937164206
6498.05 72.10511003599227
6727.29 72.83327907387304
6964.6 73.32848090348979
7209.96 72.81018310352137
7464.11 72.44775069399877
7727.78 71.08742303730806
8000.24 70.22483430085029
8282.23 69.89541277645232
8574.46 68.98904357879188
8876.22 69.12142097433484
9189.7 68.69324074291471
9513.43 67.9212776095968
9848.88 66.46931993589828
10196.8 65.90336564910119
10556.4 65.58266369593403
10928.5 65.48435887128453
11313.7 64.36246893715678
11712.9 64.11684472471059
12126.0 70.238465514689
12553.7 71.68159035589859
12996.1 71.48088350542132
13454.6 71.01027153334105
13928.5 71.15008449579729
14419.9 71.82592247292577
14928.2 72.19265829690639
15454.8 71.8051649530256
15999.8 72.23292579637491
16564.5 68.63385661628206
17148.2 66.77055159018023
17753.2 61.327383351456135
18379.4 61.86584618556027
19027.6 64.10856543083175
19698.5 65.38035993684474
19999.5 65.61556843604589
