Freq "Estimated In-Room Response"
20.0 46.29299999999999
20.2909 46.32199999999999
20.586 46.58800000000001
20.8855 46.789
21.1893 46.92
21.4975 47.16799999999999
21.8102 47.51100000000001
22.1274 47.89
22.4492 48.254000000000005
22.7758 48.58300000000001
23.1071 48.81699999999999
23.4432 48.92799999999998
23.7841 49.013999999999996
24.1301 49.144999999999996
24.4811 49.312
24.8372 49.468
25.1984 49.68900000000001
25.5649 50.007999999999996
25.9368 50.355000000000004
26.3141 50.65599999999999
26.6968 51.00099999999999
27.0851 51.370999999999995
27.4791 51.611000000000004
27.8788 51.760000000000005
28.2843 51.95399999999999
28.6957 52.24300000000001
29.1131 52.64200000000001
29.5365 53.119000000000014
29.9661 53.443
30.402 53.556
30.8442 53.60199999999999
31.2929 53.78699999999999
31.748 54.164
32.2098 54.545
32.6783 54.838999999999984
33.1536 55.09400000000001
33.6359 55.364999999999995
34.1251 55.644999999999996
34.6215 55.840999999999994
35.125 55.94600000000001
35.6359 56.129000000000005
36.1543 56.417000000000016
36.6802 56.69500000000001
37.2137 56.908
37.755 57.10799999999999
38.3041 57.36399999999999
38.8613 57.70399999999999
39.4265 58.00099999999999
40.0 58.245999999999995
40.5818 58.48200000000001
41.1721 58.70485159118344
41.771 58.96072699365372
42.3785 59.277423458687295
42.9949 59.622084152758006
43.6203 59.92742941209191
44.2548 60.20028758703539
44.8985 60.58869625891744
45.5515 60.99464443902305
46.2141 61.2270239530868
46.8863 61.3274910995425
47.5683 61.33716924056013
48.2602 61.47988049419804
48.9621 61.73432195522031
49.6743 61.92685090209561
50.3968 62.140421246238915
51.1299 62.3795348581652
51.8736 62.656809662937505
52.6281 62.95144462070019
53.3936 63.201956950577795
54.1702 63.43165151752817
54.9581 63.68274852912248
55.7575 63.946008774322735
56.5685 64.24281134156355
57.3914 64.56781116716083
58.2261 64.87006996216823
59.073 65.06789462011155
59.9323 65.27429566503946
60.804 65.51080661167809
61.6884 65.80601638351314
62.5857 66.08426074693064
63.496 66.33024440346246
64.4196 66.58805343692627
65.3566 66.88039004932314
66.3073 67.18318299232568
67.2717 67.44323734095224
68.2502 67.61531960814635
69.2429 67.73836555436642
70.2501 67.9157736427296
71.2719 68.13414170812169
72.3086 68.39241054164644
73.3603 68.67206004793532
74.4274 68.94352641315874
75.5099 69.21433654668927
76.6083 69.5044695270077
77.7226 69.80062482298199
78.8531 70.06039539638205
80.0 70.2749056352251
81.1636 70.47223252515651
82.3442 70.6095886345425
83.5419 70.76108545185312
84.757 70.91887661091
85.9899 71.08357513392687
87.2406 71.30065314904594
88.5096 71.55844486284339
89.797 71.84852178012905
91.1031 72.1110903350893
92.4282 72.3572159786499
93.7726 72.60160465260134
95.1366 72.8374085513643
96.5204 73.08597993375881
97.9243 73.34946146926102
99.3486 73.59782190766123
100.794 73.85104012497105
102.26 74.1050966377626
103.747 74.33465115200944
105.256 74.54709358476548
106.787 74.76702982337972
108.34 74.9904066446143
109.916 75.21300905871966
111.515 75.4465134834365
113.137 75.6839325921767
114.783 75.89384144797262
116.452 76.03647399632936
118.146 76.16330945052327
119.865 76.30704655505919
121.608 76.47345649114561
123.377 76.65154715554233
125.171 76.82143932055658
126.992 76.99969115923412
128.839 77.22178078720094
130.713 77.47290352867284
132.615 77.73414672052954
134.543 77.99468592152348
136.5 78.23814348375993
138.486 78.4472450022278
140.5 78.61027519559396
142.544 78.75505013654094
144.617 78.92277833333678
146.721 79.07344572372781
148.855 79.18486981428919
151.02 79.28596796294346
153.217 79.41338654589127
155.445 79.58087488455762
157.706 79.77770898648166
160.0 79.99033141318057
162.327 80.17327076607215
164.688 80.28636814355099
167.084 80.35045181547964
169.514 80.41947539291255
171.98 80.52140570094093
174.481 80.65050624246543
177.019 80.79418438394453
179.594 80.9455288936658
182.206 81.10504489628768
184.856 81.26032158426148
187.545 81.38271147253856
190.273 81.45898983286313
193.041 81.5111424980805
195.849 81.60082094606739
198.697 81.74887731677343
201.587 81.92218566619674
204.52 82.07012242611243
207.494 82.15619507250928
210.512 82.17499692823019
213.574 82.1562251309556
216.681 82.1385230755887
219.833 82.11600824001361
223.03 82.11370235175454
226.274 82.16964940267991
229.565 82.2777396365838
232.905 82.42039749948982
236.292 82.57384289904287
239.729 82.66993133639788
243.216 82.72678749526354
246.754 82.72955133865271
250.343 82.58456823127875
253.984 82.40932021984266
257.678 82.37320741011074
261.426 82.31486283472195
265.229 82.23822127733568
269.087 82.26949951285145
273.001 82.30903018705042
276.972 82.22950257170824
281.0 82.07748371967276
285.088 81.94335702375002
289.234 81.91650623642158
293.441 81.97858565796113
297.709 82.07580395515764
302.04 82.14682868314007
306.433 82.15673648988019
310.89 82.15065221165992
315.412 82.12554289457006
320.0 82.11380491832283
324.655 82.21378365771777
329.377 82.32177572367779
334.168 82.36781043436703
339.028 82.33222024923474
343.959 82.20635714952333
348.962 82.05303221755659
354.038 81.90278547560465
359.188 81.78860260495642
364.412 81.71018138532017
369.713 81.63966232986186
375.09 81.61356665643024
380.546 81.57876544761653
386.081 81.48877489132803
391.697 81.29926115628652
397.394 81.10576815242814
403.175 80.95972202319076
409.039 80.88046894927423
414.989 80.82496926485341
421.025 80.7565492923197
427.149 80.6724154161407
433.362 80.57854232352243
439.665 80.48917104458144
446.06 80.41027592144471
452.548 80.34322753162441
459.131 80.2962726683737
465.809 80.26168041110427
472.584 80.2318492362756
479.458 80.20716830704285
486.432 80.18399355504971
493.507 80.16226838929249
500.686 80.14259589089758
507.968 80.12468367465785
515.357 80.10927684187853
522.853 80.0965102914263
530.458 80.08674256950852
538.174 80.07995602738582
546.002 80.07664148148297
553.943 80.07637072134632
562.001 80.07966658700764
570.175 80.08575599720052
578.469 80.09574860271111
586.883 80.10854124770765
595.419 80.12406304833127
604.08 80.14187927092324
612.866 80.16190667880241
621.78 80.18355761029572
630.824 80.20696548141105
640.0 80.2309548374388
649.309 80.25521342015405
658.753 80.27933185498858
668.335 80.30257541179635
678.056 80.32430584884317
687.919 80.34412313510843
697.925 80.36137602989184
708.077 80.37577073273319
718.376 80.38658639147285
728.825 80.39315125975432
739.426 80.39525445253726
750.181 80.39265554652194
761.093 80.38418783637671
772.163 80.36957845419182
783.394 80.34926781970054
794.789 80.3230217928001
806.349 80.29038003253572
818.078 80.25106690276955
829.977 80.20536214555014
842.05 80.15345187813126
854.298 80.09518819221756
866.724 80.03116596710376
879.33 79.96211290369911
892.12 79.88806077572455
905.097 79.8109227495596
918.262 79.73098345938625
931.618 79.64995730477814
945.169 79.56911518445186
958.917 79.49040119417892
972.864 79.415371111587
987.015 79.34602320864697
1001.37 79.28447623576214
1015.94 79.23192722191665
1030.71 79.19029290985725
1045.71 79.16091539530667
1060.92 79.14353739308892
1076.35 79.13913769159552
1092.0 79.14704037997383
1107.89 79.16524800664813
1124.0 79.19294047454918
1140.35 79.22687216075698
1156.94 79.26550153478954
1173.77 79.30554211783408
1190.84 79.3435880812119
1208.16 79.38051534151008
1225.73 79.40982527630285
1243.56 79.43425563575082
1261.65 79.44999074117398
1280.0 79.45956190075906
1298.62 79.46011270157986
1317.51 79.4625283602424
1336.67 79.46226085420078
1356.11 79.46674054447779
1375.84 79.48043967316974
1395.85 79.5084104473165
1416.15 79.5587948648885
1436.75 79.62569504752582
1457.65 79.72113649341748
1478.85 79.83935270207473
1500.36 79.97969484501246
1522.19 80.14094477134418
1544.33 80.31374189497753
1566.79 80.49133276354841
1589.58 80.66705350199074
1612.7 80.83443404548579
1636.16 80.9879257055183
1659.95 81.12319177660854
1684.1 81.23755476212946
1708.6 81.33018261678937
1733.45 81.40196464961836
1758.66 81.45639480202833
1784.24 81.49719350237486
1810.19 81.52982290472302
1836.52 81.55938858485528
1863.24 81.59023667316247
1890.34 81.6248575920384
1917.83 81.66351602893062
1945.73 81.70407878398173
1974.03 81.7431316814773
2002.74 81.77394617568052
2031.87 81.7932674506272
2061.43 81.79852095704857
2091.41 81.79122638104266
2121.83 81.77975296859931
2152.69 81.78099868539213
2184.01 81.80447049064117
2215.77 81.89195765809528
2248.0 82.03407861088466
2280.7 82.26407650610768
2313.87 82.57248329774471
2347.53 82.94441001124709
2381.68 83.35546324405632
2416.32 83.778819634437
2451.46 84.17984204234817
2487.12 84.5478776044845
2523.3 84.84529735611032
2560.0 85.07275407487184
2597.24 85.21748030911526
2635.01 85.27992452383123
2673.34 85.2435530248536
2712.23 85.13880876759711
2751.68 84.95811034519708
2791.7 84.73446224991957
2832.31 84.49301170683495
2873.5 84.27142710343311
2915.3 84.0970551131861
2957.7 84.00028463085003
3000.72 84.00842399412281
3044.37 84.15636717242815
3088.65 84.43473382901671
3133.58 84.8075799008454
3179.16 85.24377000601666
3225.4 85.68909728082652
3272.31 86.1004232025041
3319.91 86.44286158177272
3368.2 86.6988954723107
3417.19 86.87153511450009
3466.89 86.98307890768858
3517.32 87.06716695332837
3568.48 87.15566583062258
3620.39 87.26641968457996
3673.05 87.39411863534943
3726.47 87.51591769001456
3780.67 87.59410852114583
3835.67 87.62390749950181
3891.46 87.55644319491894
3948.06 87.43043347950425
4005.49 87.21754617428422
4063.75 86.95478957689278
4122.86 86.6615225581759
4182.82 86.35197244048148
4243.66 86.0313550942788
4305.39 85.70346524427713
4368.01 85.37429490390085
4431.55 85.0568160618593
4496.01 84.75917294973543
4561.4 84.49266258326715
4627.75 84.26522693130335
4695.06 84.1032103411081
4763.35 84.00602244071727
4832.64 83.96015276831126
4902.93 83.93518371265866
4974.24 83.91087125859033
5046.6 83.87896874687078
5120.0 83.8369726982158
5194.47 83.78165118068996
5270.03 83.71768048448052
5346.68 83.65095246438021
5424.45 83.57552511357791
5503.35 83.48411533285322
5583.4 83.38421656423326
5664.61 83.28312300730732
5747.01 83.17259474095269
5830.6 83.04430163032214
5915.41 82.89231582539536
6001.45 82.71228496007569
6088.74 82.48772851916283
6177.3 82.23388612372891
6267.15 81.9728829646976
6358.31 81.72188682892786
6450.8 81.50555818837192
6544.62 81.34495700633009
6639.82 81.24127968327718
6736.4 81.18556912098742
6834.38 81.17288762278484
6933.79 81.18397018816289
7034.64 81.1830901239348
7136.96 81.15196106707567
7240.77 81.10641676503512
7346.09 81.07818807532578
7452.94 81.07297555265869
7561.35 81.0628465971377
7671.33 81.04913022326498
7782.91 81.0487996504268
7896.12 81.06862052085201
8010.97 81.09462617466268
8127.49 81.11491434067456
8245.71 81.11084227667315
8365.65 81.05813723753909
8487.33 80.94621430809201
8610.78 80.79296231698356
8736.03 80.64606060178308
8863.09 80.52728230290681
8992.01 80.41960226625616
9122.8 80.26201367022846
9255.5 80.06971397902956
9390.12 79.93313000796479
9526.7 79.89251327355818
9665.27 79.87264838155522
9805.86 79.78593003157003
9948.49 79.60246371818995
10093.2 79.35699392765709
10240.0 79.11153962397098
10388.9 78.88657609491935
10540.1 78.71498860388056
10693.4 78.63810837044886
10848.9 78.63709921351591
11006.7 78.62474943044501
11166.8 78.56565117119463
11329.2 78.41383866809356
11494.0 78.11510554753005
11661.2 77.57780822151538
11830.8 77.0824689072118
12002.9 76.76451420445518
12177.5 76.61878215431842
12354.6 76.69437018248628
12534.3 76.78493222263077
12716.6 76.69712044087274
12901.6 76.3854602668607
13089.2 76.01614226226668
13279.6 75.80774756243468
13472.8 75.83862123695549
13668.8 76.0201359591979
13867.6 76.06516899815011
14069.3 75.70256893349217
14273.9 75.040447710495
14481.5 74.31602497684572
14692.2 73.8599608498459
14905.9 73.68430036563663
15122.7 73.52897245266907
15342.7 73.2664166558838
15565.8 72.96247771146182
15792.2 72.74578985893459
16021.9 72.56912767634965
16255.0 72.37738503169076
16491.4 72.11039864890019
16731.3 71.80778264804836
16974.7 71.47364196643998
17221.6 71.2012154190221
17472.1 71.20134650011268
17726.2 71.40269470194228
17984.0 71.4848252896689
18245.6 71.20774008399182
18511.0 70.72389946840164
18780.2 70.56026070599361
19053.4 70.82550258173202
19330.5 71.0693566523361
19611.7 71.01634662341615
19897.0 70.85134592534298
