Freq "Floor Bounce"
22.4 60.99589008545071
23.0 61.16307943956859
23.6 61.32845470672383
24.0 61.49589008545071
25.0 61.6958900854507
25.8 61.795890085450694
26.5 61.92845470672383
27.2 62.06152698812649
28.0 62.16152698812648
29.0 62.29589008545072
30.0 62.3615269881265
30.7 62.39589008545069
31.5 62.49589008545071
32.5 62.595890085450705
33.5 62.595890085450705
34.5 62.6958900854507
35.5 62.72845470672384
36.5 62.76152698812648
37.5 62.8615269881265
38.7 62.89589008545069
40.0 63.06152698812649
41.2 63.3615269881265
42.5 63.9284547067238
43.7 64.7615269881265
45.0 65.8615269881265
46.2 67.1615269881265
47.5 68.56152698812649
48.7 69.99589008545071
50.0 71.4292103317252
51.5 72.79511090235589
53.0 74.16152698812648
54.5 75.36152698812649
56.0 76.42768134483138
58.0 77.3615269881265
60.0 78.06152698812649
61.5 78.6615269881265
63.0 79.26152698812649
65.0 79.8951109023559
67.0 80.56152698812649
69.0 81.32768134483136
71.0 82.0951109023559
73.0 82.82768134483136
75.0 83.52768134483136
77.5 84.0951109023559
80.0 84.52768134483138
82.5 84.9615269881265
85.0 85.39511090235591
87.5 85.9615269881265
90.0 86.4951109023559
92.5 87.0615269881265
95.0 87.59511090235591
97.5 88.0292103317252
100.0 88.36152698812649
103.0 88.6292103317252
106.0 88.8615269881265
109.0 89.0958900854507
112.0 89.29589008545071
115.0 89.46382906471338
118.0 89.6292103317252
122.0 89.76382906471339
125.0 89.8292103317252
128.0 89.76382906471339
132.0 89.6638290647134
136.0 89.59739525034274
140.0 89.56382906471339
145.0 89.56382906471339
150.0 89.6638290647134
155.0 89.83226750154024
160.0 89.93226750154027
165.0 90.03226750154026
170.0 90.03226750154026
175.0 90.06766450402546
180.0 90.06766450402546
185.0 90.06766450402546
190.0 90.06766450402546
195.0 90.03685124816309
200.0 89.93685124816308
206.0 89.8368512481631
212.0 89.73685124816308
218.0 89.53685124816309
224.0 89.37303127682705
230.0 89.23685124816308
236.0 89.10652668805558
240.0 89.10652668805558
250.0 89.14295916699392
258.0 89.24295916699393
265.0 89.30652668805557
272.0 89.34295916699391
280.0 89.24295916699393
290.0 89.14295916699392
300.0 88.9505880604056
307.0 88.6505880604056
315.0 88.3217246360427
325.0 87.95973394498013
335.0 87.63158919651384
345.0 87.27039206048708
355.0 86.97039206048709
365.0 86.78255688055982
375.0 86.58255688055982
387.0 86.58255688055982
400.0 86.58255688055982
412.0 86.58255688055982
425.0 86.60974308517929
437.0 86.60974308517929
450.0 86.57039206048708
462.0 86.5097430851793
475.0 86.47039206048709
487.0 86.38255688055983
500.0 86.25582407402916
515.0 86.17018197793108
530.0 86.05313848176887
545.0 85.97058804923843
560.0 85.92802508226698
580.0 85.95313848176887
600.0 86.05313848176887
615.0 86.13717579099239
630.0 86.20467674228726
650.0 86.26341399707428
670.0 86.19010026808743
690.0 86.09010026808743
710.0 86.0496449652209
730.0 86.0373874762099
750.0 86.22664795426776
775.0 86.61743205297137
800.0 87.24295916699394
825.0 87.91336902569306
850.0 88.39002626246507
875.0 88.6109287243731
900.0 88.62359566368623
925.0 88.56337105262453
950.0 88.56337105262453
975.0 88.60369928727279
1000.0 88.65524818299377
1030.0 88.4441941039664
1060.0 87.88687558534099
1090.0 86.63286975166424
1120.0 84.57502358245479
1150.0 81.64334118411078
1180.0 78.92010623573279
1220.0 77.55011287846956
1250.0 77.24001208698255
1280.0 77.3772822699844
1320.0 78.00436598920186
1360.0 79.21018931118796
1400.0 80.80640458019012
1450.0 82.4021836344113
1500.0 83.85171239629328
1550.0 85.12037983567198
1600.0 85.84649553231293
1650.0 86.16015220360204
1700.0 86.48850580494884
1750.0 86.67733404213409
1800.0 86.79207690922841
1850.0 86.95341704858082
1900.0 86.93377158611497
1950.0 86.80001701900659
2000.0 86.81806099025019
2060.0 86.62137994517799
2120.0 86.46407499295735
2180.0 86.03064812349432
2240.0 85.36573966892853
2300.0 84.62778311576406
2360.0 83.9755047518709
2400.0 83.49040444722651
2500.0 82.77824429170447
2580.0 82.1743187931274
2650.0 81.41895970705211
2720.0 80.82829443984905
2800.0 80.48406867186098
2900.0 80.32686529137428
3000.0 80.23582221597906
3070.0 80.34921130172157
3150.0 80.70408255983446
3250.0 81.23772097722669
3350.0 81.60730504607618
3450.0 81.86248766219238
3550.0 82.09285534681635
3650.0 82.27921203896778
3750.0 82.41207708947913
3870.0 82.38361934634842
4000.0 82.23897620575073
4120.0 81.82649774966096
4250.0 81.44199053657424
4370.0 81.23773738990181
4500.0 81.2438987364501
4620.0 81.43608000860722
4750.0 81.35663823957363
4870.0 81.47284407435869
5000.0 81.4723969174846
5150.0 81.42125742115017
5300.0 81.6104455574626
5450.0 81.4797180253638
5600.0 81.05750814519372
5800.0 80.74468988350311
6000.0 80.49088411234067
6150.0 80.31757107909091
6300.0 80.39296437695421
6500.0 80.24835995656011
6700.0 79.83017935733817
6900.0 79.61626376395206
7100.0 79.71432740812139
7300.0 80.08732451172169
7500.0 80.5749911579865
7750.0 81.03820550186711
8000.0 81.07971802536379
8250.0 80.45140790939708
8500.0 79.70542475052463
8750.0 79.34744392485982
9000.0 79.51541850557267
9250.0 80.2064564893503
9500.0 80.52188148153093
9750.0 80.51944312100842
10000.0 80.02680063942724
10300.0 78.59359354175213
10600.0 78.38370312083086
10900.0 78.41583653721476
11200.0 78.72125742115017
11500.0 80.18999997837152
11800.0 81.52807647238076
12200.0 82.47913330134405
12500.0 83.22764289692135
12800.0 83.6401328054165
13200.0 83.26873027024963
13600.0 83.92542263528549
14000.0 84.16102640909685
14500.0 83.52627857839782
15000.0 82.90639984240728
15500.0 80.07751502853897
16000.0 76.26107259517538
16500.0 73.90369698720704
17000.0 72.59174974627574
17500.0 73.93400929656116
18000.0 75.33689613149197
18500.0 77.3039747571547
19000.0 78.66426931183027
19500.0 77.71502470046732
