Freq "Floor Bounce"
22.4 60.73513059177982
23.0 60.90231994589776
23.6 61.06769521305297
24.0 61.23513059177982
25.0 61.43513059177981
25.8 61.53513059177983
26.5 61.66769521305294
27.2 61.80076749445563
28.0 61.90076749445562
29.0 62.03513059177983
30.0 62.10076749445564
30.7 62.135130591779856
31.5 62.23513059177982
32.5 62.335130591779844
33.5 62.335130591779844
34.5 62.43513059177984
35.5 62.46769521305295
36.5 62.500767494455616
37.5 62.60076749445564
38.7 62.63513059177983
40.0 62.8007674944556
41.2 63.10076749445561
42.5 63.667695213052966
43.7 64.50076749445562
45.0 65.60076749445561
46.2 66.90076749445561
47.5 68.30076749445561
48.7 69.73513059177982
50.0 71.16845083805434
51.5 72.53435140868503
53.0 73.90076749445562
54.5 75.10076749445561
56.0 76.16692185116051
58.0 77.10076749445561
60.0 77.80076749445563
61.5 78.40076749445562
63.0 79.00076749445562
65.0 79.63435140868503
67.0 80.30076749445563
69.0 81.0669218511605
71.0 81.83435140868504
73.0 82.5669218511605
75.0 83.2669218511605
77.5 83.83435140868504
80.0 84.26692185116049
82.5 84.70076749445562
85.0 85.13435140868502
87.5 85.70076749445562
90.0 86.23435140868501
92.5 86.80076749445561
95.0 87.33435140868502
97.5 87.76845083805433
100.0 88.10076749445562
103.0 88.36845083805433
106.0 88.60076749445561
109.0 88.83513059177982
112.0 89.03513059177983
115.0 89.20306957104252
118.0 89.36845083805433
122.0 89.50306957104252
125.0 89.56845083805433
128.0 89.50306957104252
132.0 89.40306957104251
136.0 89.33663575667187
140.0 89.30306957104251
145.0 89.30306957104251
150.0 89.40306957104251
155.0 89.57150800786938
160.0 89.67150800786939
165.0 89.77150800786937
170.0 89.77150800786937
175.0 89.8069050103546
180.0 89.8069050103546
185.0 89.8069050103546
190.0 89.8069050103546
195.0 89.77609175449223
200.0 89.6760917544922
206.0 89.57609175449221
212.0 89.47609175449222
218.0 89.27609175449221
224.0 89.11227178315619
230.0 88.9760917544922
236.0 88.84576719438469
240.0 88.84576719438469
250.0 88.88219967332304
258.0 88.98219967332304
265.0 89.04576719438471
272.0 89.08219967332305
280.0 88.98219967332304
290.0 88.88219967332304
300.0 88.68982856673473
307.0 88.38982856673472
315.0 88.06096514237183
325.0 87.69897445130924
335.0 87.37082970284298
345.0 87.0096325668162
355.0 86.70963256681621
365.0 86.52179738688895
375.0 86.32179738688896
387.0 86.32179738688896
400.0 86.32179738688896
412.0 86.32179738688896
425.0 86.34898359150843
437.0 86.34898359150843
450.0 86.30963256681619
462.0 86.24898359150842
475.0 86.20963256681621
487.0 86.12179738688896
500.0 85.99506458035829
515.0 85.90942248426019
530.0 85.792378988098
545.0 85.70982855556755
560.0 85.6672655885961
580.0 85.69237898809799
600.0 85.792378988098
615.0 85.87641629732153
630.0 85.94391724861637
650.0 86.00265450340339
670.0 85.92934077441656
690.0 85.82934077441656
710.0 85.78888547155003
730.0 85.77662798253905
750.0 85.96588846059687
775.0 86.3566725593005
800.0 86.98219967332305
825.0 87.65260953202217
850.0 88.12926676879421
875.0 88.3501692307022
900.0 88.36283617001536
925.0 88.30261155895364
950.0 88.30261155895364
975.0 88.3429397936019
1000.0 88.3944886893229
1030.0 88.1834346102955
1060.0 87.6261160916701
1090.0 86.37211025799337
1120.0 84.3142640887839
1150.0 81.38258169043992
1180.0 78.65934674206193
1220.0 77.28935338479867
1250.0 76.97925259331167
1280.0 77.11652277631352
1320.0 77.74360649553098
1360.0 78.9494298175171
1400.0 80.54564508651923
1450.0 82.14142414074041
1500.0 83.5909529026224
1550.0 84.8596203420011
1600.0 85.58573603864205
1650.0 85.89939270993118
1700.0 86.22774631127797
1750.0 86.41657454846323
1800.0 86.53131741555754
1850.0 86.69265755490996
1900.0 86.6730120924441
1950.0 86.53925752533571
2000.0 86.55730149657931
2060.0 86.36062045150713
2120.0 86.20331549928646
2180.0 85.76988862982346
2240.0 85.10498017525764
2300.0 84.36702362209317
2360.0 83.71474525820004
2400.0 83.22964495355563
2500.0 82.5174847980336
2580.0 81.91355929945651
2650.0 81.15820021338124
2720.0 80.56753494617817
2800.0 80.2233091781901
2900.0 80.0661057977034
3000.0 79.97506272230817
3070.0 80.08845180805068
3150.0 80.44332306616359
3250.0 80.97696148355581
3350.0 81.34654555240529
3450.0 81.60172816852149
3550.0 81.83209585314547
3650.0 82.01845254529692
3750.0 82.15131759580827
3870.0 82.12285985267755
4000.0 81.97821671207986
4120.0 81.56573825599007
4250.0 81.18123104290335
4370.0 80.97697789623093
4500.0 80.98313924277925
4620.0 81.17532051493635
4750.0 81.09587874590275
4870.0 81.21208458068783
5000.0 81.21163742381371
5150.0 81.16049792747928
5300.0 81.34968606379171
5450.0 81.21895853169292
5600.0 80.79674865152283
5800.0 80.48393038983222
6000.0 80.23012461866979
6150.0 80.05681158542004
6300.0 80.13220488328335
6500.0 79.98760046288922
6700.0 79.56941986366729
6900.0 79.35550427028119
7100.0 79.45356791445052
7300.0 79.82656501805081
7500.0 80.31423166431561
7750.0 80.77744600819622
8000.0 80.81895853169293
8250.0 80.1906484157262
8500.0 79.44466525685375
8750.0 79.08668443118894
9000.0 79.2546590119018
9250.0 79.94569699567943
9500.0 80.26112198786004
9750.0 80.25868362733755
10000.0 79.76604114575635
10300.0 78.33283404808127
10600.0 78.12294362715997
10900.0 78.15507704354388
11200.0 78.46049792747928
11500.0 79.92924048470066
11800.0 81.26731697870989
12200.0 82.21837380767319
12500.0 82.96688340325048
12800.0 83.3793733117456
13200.0 83.00797077657876
13600.0 83.66466314161462
14000.0 83.90026691542597
14500.0 83.26551908472695
15000.0 82.64564034873639
15500.0 79.81675553486808
16000.0 76.0003131015045
16500.0 73.64293749353617
17000.0 72.33099025260486
17500.0 73.67324980289028
18000.0 75.0761366378211
18500.0 77.04321526348382
19000.0 78.40350981815938
19500.0 77.45426520679645
