Freq "Total Early Reflection"
22.4 60.69002085162249
23.0 60.863979492024626
23.6 61.057015335123666
24.0 61.21117894370441
25.0 61.369382721146806
25.8 61.49626018456043
26.5 61.64490274793651
27.2 61.75157226735827
28.0 61.86267246216717
29.0 61.96996963100058
30.0 62.06169049303584
30.7 62.1198376625167
31.5 62.1897800356614
32.5 62.26897105871093
33.5 62.3098935627841
34.5 62.3631785894752
35.5 62.40410434111568
36.5 62.44578743480709
37.5 62.50450786639429
38.7 62.58189969055691
40.0 62.72823165457477
41.2 63.02460402140956
42.5 63.59477667873536
43.7 64.42743335816364
45.0 65.53194257136103
46.2 66.82526724595702
47.5 68.22762210859987
48.7 69.63102352091445
50.0 71.05054948458601
51.5 72.42612763122098
53.0 73.755736028861
54.5 74.95852518146135
56.0 76.04003504893166
58.0 76.94317282425241
60.0 77.65080532996583
61.5 78.26708634232759
63.0 78.85174317509637
65.0 79.47373809237662
67.0 80.11155399377643
69.0 80.85567660249339
71.0 81.62515706770982
73.0 82.36292754148715
75.0 83.03133393167619
77.5 83.56959151910634
80.0 84.01331730680192
82.5 84.42725049042589
85.0 84.85170481378267
87.5 85.37328429978922
90.0 85.92430403060425
92.5 86.47954857116376
95.0 86.98097479013322
97.5 87.41798920585829
100.0 87.72617964723655
103.0 87.99008593304029
106.0 88.1960943766638
109.0 88.38990204895572
112.0 88.5661429670496
115.0 88.73710199682728
118.0 88.87797324381475
122.0 89.00244478760436
125.0 89.02819010410418
128.0 88.96708631190317
132.0 88.85523660641752
136.0 88.74530481146195
140.0 88.65742275908681
145.0 88.6684451618912
150.0 88.74091884602728
155.0 88.85335588741317
160.0 88.93648333428844
165.0 89.00686373898343
170.0 89.01026837489958
175.0 89.0058791819994
180.0 88.97830137935196
185.0 88.95484757243958
190.0 88.91254652905042
195.0 88.8378815436411
200.0 88.73996022903849
206.0 88.62012200111774
212.0 88.46546808318854
218.0 88.28392379909546
224.0 88.06923830451159
230.0 87.8970525477644
236.0 87.75944201145096
240.0 87.72790905178164
250.0 87.76037653561109
258.0 87.8504667935215
265.0 87.94120456975106
272.0 87.98527304864962
280.0 87.96397022530748
290.0 87.87647899852534
300.0 87.73835201346016
307.0 87.5329964451023
315.0 87.27991465467183
325.0 87.01831724071218
335.0 86.75516481655313
345.0 86.47540140736035
355.0 86.19490789786462
365.0 85.97931896786572
375.0 85.82172645969068
387.0 85.73419496857659
400.0 85.72824716383884
412.0 85.72534066549615
425.0 85.72817591473874
437.0 85.7057708480203
450.0 85.68622537555348
462.0 85.69742599029473
475.0 85.72689047566308
487.0 85.78096671432927
500.0 85.8466235002679
515.0 85.85881026614926
530.0 85.8097811880416
545.0 85.71539443079351
560.0 85.62860918296865
580.0 85.55392896278214
600.0 85.53435033469883
615.0 85.55904964303947
630.0 85.6002443602588
650.0 85.64346637072576
670.0 85.58071204094789
690.0 85.45531334842308
710.0 85.30991038406155
730.0 85.22273229757766
750.0 85.21960691316693
775.0 85.31602628835422
800.0 85.46432464067841
825.0 85.55846730234673
850.0 85.51845458443218
875.0 85.41632258688986
900.0 85.34918435716502
925.0 85.41046643762597
950.0 85.56973637014265
975.0 85.81381568792898
1000.0 85.96292988861244
1030.0 85.93386814929373
1060.0 85.7957565356162
1090.0 85.4705678916793
1120.0 84.97327314124377
1150.0 84.39184000681358
1180.0 83.71566857301724
1220.0 83.03846167503457
1250.0 82.51162197040655
1280.0 82.2941392455317
1320.0 82.32769904193127
1360.0 82.56035626590624
1400.0 82.9330945340938
1450.0 83.36856043702241
1500.0 83.85334164252397
1550.0 84.33276832768713
1600.0 84.6740539296505
1650.0 84.81618373307319
1700.0 84.82787960065531
1750.0 84.65246124783397
1800.0 84.49625657800468
1850.0 84.51073398596402
1900.0 84.49674069574176
1950.0 84.56038010958919
2000.0 84.70268192233588
2060.0 84.66713879944663
2120.0 84.57963189027402
2180.0 84.21973965127897
2240.0 83.6819689653089
2300.0 83.21958616421956
2360.0 82.84913876624927
2400.0 82.57948556395078
2500.0 82.24342476654223
2580.0 81.86164443112786
2650.0 81.48265913968676
2720.0 81.14338455294892
2800.0 80.93846242626968
2900.0 80.84997596340837
3000.0 80.8948190376592
3070.0 81.1223367541658
3150.0 81.38566159357059
3250.0 81.54359380158516
3350.0 81.59420239820797
3450.0 81.60011113312417
3550.0 81.73207119579926
3650.0 81.9967767255397
3750.0 82.26094283494022
3870.0 82.46806768653826
4000.0 82.5635208587175
4120.0 82.44502372353266
4250.0 82.17586108298897
4370.0 81.83377494215934
4500.0 81.55073458881104
4620.0 81.37368968591261
4750.0 81.14487927067835
4870.0 81.09623779585898
5000.0 81.05236144724253
5150.0 81.09442642541646
5300.0 81.33809623750084
5450.0 81.23664959572248
5600.0 80.85768909445427
5800.0 80.4564178434687
6000.0 80.17923134324688
6150.0 80.26211455976815
6300.0 80.79398407854461
6500.0 81.08954049492827
6700.0 80.84862744995588
6900.0 80.51183887743362
7100.0 80.1990879985641
7300.0 80.29132627986186
7500.0 81.07767561592973
7750.0 82.16530224974652
8000.0 82.92070459051801
8250.0 82.7528944026299
8500.0 82.24136060353096
8750.0 81.93016295866059
9000.0 81.99996147103245
9250.0 82.6456628164443
9500.0 82.8475023329069
9750.0 82.81276940238438
10000.0 82.67181302275357
10300.0 82.01623370417376
10600.0 81.76077945347835
10900.0 81.49399073890152
11200.0 81.4670987580059
11500.0 81.63586644835392
11800.0 81.79552063072127
12200.0 81.77120400476804
12500.0 81.55383004552705
12800.0 81.39781142629424
13200.0 81.40901636215196
13600.0 81.78262996970113
14000.0 81.43385840546196
14500.0 81.19808419094107
15000.0 80.86331703283412
15500.0 79.73120852132972
16000.0 79.26472088111946
16500.0 78.32306179008965
17000.0 77.254352162812
17500.0 76.80009817790723
18000.0 76.24729676612448
18500.0 76.89449357412111
19000.0 76.88970184013456
19500.0 76.26449311718758
