Freq "Ceiling Bounce"
23.6 79.44395446458206
24.3 79.69034729668154
25.0 79.92975786945125
25.8 80.19527215225676
26.5 80.42092816717673
27.2 80.6407335315475
28.0 80.88507618946868
29.0 81.18092875363848
30.0 81.46871636931878
30.7 81.66506512811618
31.5 81.88403072941188
32.5 82.15015483187474
33.5 82.40816265497085
34.5 82.65855001788428
35.5 82.90232316267675
36.5 83.1400883134464
37.5 83.37146180072881
38.7 83.6411149911627
40.0 83.92393389243925
41.2 84.17711721561983
42.5 84.44386554547943
43.7 84.6829730425052
45.0 84.93471629593043
46.2 85.16068156909978
47.5 85.39917984128827
48.7 85.6137305436219
50.0 85.84031543591277
51.5 86.09453177916846
53.0 86.34149348830822
54.5 86.58166466393816
56.0 86.81528690011152
58.0 87.11726773072488
60.0 87.40886984812114
61.5 87.6213046370295
63.0 87.82855111185101
65.0 88.09728045574265
67.0 88.35756622628543
69.0 88.61023946627431
71.0 88.85550510024798
73.0 89.09352870785096
75.0 89.32524180309362
77.5 89.60578418544435
80.0 89.87703287526924
82.5 90.1397163513209
85.0 90.39367629383128
87.5 90.64029957628921
90.0 90.87890129242486
92.5 91.11076380641907
95.0 91.33572951642414
97.5 91.55416642464327
100.0 91.76679236771976
103.0 92.01343379620182
106.0 92.2525750358706
109.0 92.48335610313733
112.0 92.70733598521961
115.0 92.92357681083259
118.0 93.13364163133106
122.0 93.40310274025789
125.0 93.59770088547405
128.0 93.78681505289106
132.0 94.02921316790636
136.0 94.26230640060152
140.0 94.48591994644053
145.0 94.75207272216015
150.0 95.00466656480047
155.0 95.24445974552545
160.0 95.47186485840898
165.0 95.6874746939319
170.0 95.89164662289987
175.0 96.0839349299785
180.0 96.2655028408232
185.0 96.4368340905112
190.0 96.59834857775697
195.0 96.75037090319769
200.0 96.89319859453038
206.0 97.05225936054829
212.0 97.19899074807431
218.0 97.33368695109469
224.0 97.45694263656092
230.0 97.56939151000157
236.0 97.67138507238417
243.0 97.77807387341794
250.0 97.8726163034597
258.0 97.96704516719902
265.0 98.03739583461136
272.0 98.09828617134212
280.0 98.15792525453135
290.0 98.21749567665124
300.0 98.26539888935729
307.0 98.29201714859347
315.0 98.31820985937826
325.0 98.34524989354308
335.0 98.3680023553073
345.0 98.38931123179582
355.0 98.41030645520809
365.0 98.43240190963219
375.0 98.45606170942936
387.0 98.48863311449126
400.0 98.52745345934231
412.0 98.56660801009092
425.0 98.61043821094596
437.0 98.6505541188102
450.0 98.69299097261795
462.0 98.72806304841862
475.0 98.76163807883547
487.0 98.78743654706365
500.0 98.80947725421159
515.0 98.82913120128154
530.0 98.84413067201534
545.0 98.85742776539215
560.0 98.87269302146812
580.0 98.90183341521917
600.0 98.94365308078032
615.0 98.98377014755447
630.0 99.02978001366493
650.0 99.09421535856669
670.0 99.15217565191277
690.0 99.19274747710476
710.0 99.20702552594928
730.0 99.18941139215539
750.0 99.13901993930543
775.0 99.03869627760946
800.0 98.91713155176042
825.0 98.80306508510546
850.0 98.72595944836083
875.0 98.69962488396791
900.0 98.7230475261489
925.0 98.77819584547797
950.0 98.83800729760449
975.0 98.87602204046414
1000.0 98.87558723110247
1030.0 98.81774787409523
1060.0 98.70900503430623
1090.0 98.57534377748888
1120.0 98.44011503129944
1150.0 98.31185579445491
1180.0 98.17990242336333
1220.0 97.95678977319665
1250.0 97.72454282543282
1280.0 97.42849522516697
1320.0 96.95786603386146
1360.0 96.45801554128847
1400.0 95.98133252185063
1450.0 95.41330847279077
1500.0 94.7987800208085
1550.0 94.10535099247508
1600.0 93.428963888371
1650.0 92.90355071546915
1700.0 92.55512994664164
1750.0 92.31993978284824
1800.0 92.20675053380951
1850.0 92.38691337828666
1900.0 93.04543479955517
1950.0 94.09638898004094
2000.0 95.21914633715969
2060.0 96.3278512106862
2120.0 97.14391960206608
2180.0 97.83375146458765
2240.0 98.45552360156188
2300.0 98.91641250906149
2360.0 99.25057712017617
2430.0 99.768153139799
2500.0 100.44320125966611
2580.0 100.99342941696248
2650.0 101.30304454450292
2720.0 101.59189177362892
2800.0 101.63581296118706
2900.0 101.31688850808911
3000.0 101.21992461357809
3070.0 101.06118268504115
3150.0 100.96087852789
3250.0 100.99914829615393
3350.0 100.72089035111152
3450.0 100.60631155538114
3550.0 100.22753091257248
3650.0 100.16413591154144
3750.0 100.23822660792767
3870.0 100.27628618629599
4000.0 100.4135061357671
4120.0 100.66453401089889
4250.0 100.72024131758656
4370.0 100.77990394068784
4500.0 100.68066925907479
4620.0 100.9364579427946
4750.0 100.90992965027871
4870.0 101.05473618442822
5000.0 100.86573648752069
5150.0 100.84070658035272
5300.0 100.62656258432052
5450.0 100.34860192146847
5600.0 100.49716937417605
5800.0 101.142616113475
6000.0 101.09910719494216
6150.0 101.02883050032662
6300.0 101.23595212310312
6500.0 101.37379708417141
6700.0 101.4685000419356
6900.0 101.4544162906125
7100.0 101.1372092006816
7300.0 100.8460878265542
7500.0 100.70030226469576
7750.0 100.30932207289023
8000.0 99.94514715857608
8250.0 99.58514051014122
8500.0 99.53843859368311
8750.0 99.30409548403098
9000.0 98.7523705956447
9250.0 98.59817478191151
9500.0 98.70588074553841
9750.0 98.19069064629149
10000.0 97.90024403415924
10300.0 97.99328252481648
10600.0 97.71241351269997
10900.0 97.27401612428606
11200.0 97.72672105217809
11500.0 97.73389007395856
11800.0 97.65241732972552
12200.0 97.60614205661268
12500.0 97.69591606295013
12800.0 97.76841568234087
13200.0 99.01802467294976
13600.0 98.81229868947499
14000.0 99.22645633140596
14500.0 99.3323468453176
15000.0 99.75720451780454
15500.0 99.5373532270894
16000.0 99.06856986456478
16500.0 97.70965895116069
17000.0 96.07278368519565
17500.0 94.6195858758461
18000.0 92.86908799578397
18500.0 91.28123166682236
19000.0 90.11116701568977
19500.0 88.57626523900369
