Freq "Rear Wall Bounce"
23.6 81.67787451332833
24.3 81.82267575817687
25.0 81.96359170491971
25.8 82.12014246594268
26.5 82.2533649517379
27.2 82.38328260656627
28.0 82.52798780257362
29.0 82.70340225435396
30.0 82.89110804142311
30.7 83.02416110208394
31.5 83.17270215761046
32.5 83.35332389236135
33.5 83.52869977531029
34.5 83.6990980378059
35.5 83.8701205285731
36.5 84.04659895060594
37.5 84.21845892147924
38.7 84.41885592612442
40.0 84.62924249778098
41.2 84.81936445092121
42.5 85.02979932746831
43.7 85.21849878192972
45.0 85.41726792486618
46.2 85.59577280495651
47.5 85.78790381375742
48.7 85.96439682839186
50.0 86.15084649221876
51.5 86.36010993729113
53.0 86.56444394571197
54.5 86.76782181647539
56.0 86.96573635427967
58.0 87.22158747922408
60.0 87.47219272572286
61.5 87.65579362213987
63.0 87.83501594967055
65.0 88.06827371900059
67.0 88.29657103652036
69.0 88.51814436959978
71.0 88.73396348238495
73.0 88.9448178411131
75.0 89.14997651342475
77.5 89.39928950956244
80.0 89.6410627225186
82.5 89.87535205652233
85.0 90.10256638171455
87.5 90.32321739745927
90.0 90.53697111274005
92.5 90.74475398589126
95.0 90.94630509601367
97.5 91.14200753728929
100.0 91.3324611710407
103.0 91.55308762000341
106.0 91.76693851497956
109.0 91.9727950063582
112.0 92.17242793658377
115.0 92.36458059872832
118.0 92.55095679484289
122.0 92.78923733326712
125.0 92.9606941754483
128.0 93.12695106530371
132.0 93.33902276936675
136.0 93.5421905043334
140.0 93.73609944953512
145.0 93.9652952369597
150.0 94.181369485502
155.0 94.38488076457031
160.0 94.57635468996517
165.0 94.75637494989812
170.0 94.92534838584974
175.0 95.08264773876294
180.0 95.22965557240468
185.0 95.36693034464878
190.0 95.49483690288704
195.0 95.61375046889339
200.0 95.72405565699783
206.0 95.84480648071172
212.0 95.95398272525075
218.0 96.05221080899926
224.0 96.13996505072336
230.0 96.2178101482007
236.0 96.28635100515356
243.0 96.35499763641593
250.0 96.41262369210446
258.0 96.46621966259247
265.0 96.50177676765233
272.0 96.52868417889002
280.0 96.54977695928993
290.0 96.5620788376068
300.0 96.56126773589851
307.0 96.55327419293863
315.0 96.53804545158971
325.0 96.5102496018649
335.0 96.47453512309446
345.0 96.43168354202746
355.0 96.38276538930853
365.0 96.32917870032924
375.0 96.27173936497282
387.0 96.19835725910136
400.0 96.11498432469982
412.0 96.03570330491851
425.0 95.94814068732619
437.0 95.8665113944038
450.0 95.77775726875569
462.0 95.69578929595181
475.0 95.60709852663419
487.0 95.525212141704
500.0 95.43625623550359
515.0 95.33285252601688
530.0 95.22759564427939
545.0 95.11972396291479
560.0 95.00772103128485
580.0 94.85089152051597
600.0 94.68266471516283
615.0 94.5486444237723
630.0 94.40674472701755
650.0 94.20650769139529
670.0 93.99367808024746
690.0 93.77078879949832
710.0 93.54053809547158
730.0 93.30621724158648
750.0 93.07163089214485
775.0 92.78236799884299
800.0 92.50192091893112
825.0 92.23238540944118
850.0 91.97361768434202
875.0 91.72270329658305
900.0 91.47682448042917
925.0 91.23311474243867
950.0 90.99012117667387
975.0 90.74901675471554
1000.0 90.51375608466407
1030.0 90.24746937958302
1060.0 90.00959512091855
1090.0 89.80865490250731
1120.0 89.64607934829507
1150.0 89.5140773766129
1180.0 89.3979143295201
1220.0 89.23946716763109
1250.0 89.10262953595333
1280.0 88.94729861111642
1320.0 88.72300405456073
1360.0 88.50511607703143
1400.0 88.3181686416327
1450.0 88.1290163409987
1500.0 87.93854937997546
1550.0 87.67114751611822
1600.0 87.2858901244086
1650.0 86.8126334781586
1700.0 86.36304448648862
1750.0 86.0887121209144
1800.0 86.08141746883109
1850.0 86.30428274169284
1900.0 86.63846737786659
1950.0 86.97856504810063
2000.0 87.2739586891447
2060.0 87.55735641858038
2120.0 87.76630858864621
2180.0 87.89922157299003
2240.0 87.96729356145993
2300.0 88.00219074238501
2360.0 88.03514238338988
2430.0 88.09434404530568
2500.0 88.19516530339666
2580.0 88.37074683142487
2650.0 88.53079195269943
2720.0 88.62495473409345
2800.0 88.60779994493728
2900.0 88.43337235623495
3000.0 88.23891111835788
3070.0 88.17945240041854
3150.0 88.1924320831084
3250.0 88.22981993188907
3350.0 88.10497431298388
3450.0 87.62386516620036
3550.0 86.83604365350536
3650.0 86.12770974483351
3750.0 85.82955222310937
3870.0 85.82244634537847
4000.0 85.80762276264342
4120.0 85.7552728191923
4250.0 85.9034540473609
4370.0 86.15551149973899
4500.0 86.11559745556302
4620.0 85.79201806578038
4750.0 85.63795009876193
4870.0 85.62884283659345
5000.0 85.34040048070906
5150.0 83.85508965942682
5300.0 82.24505805458764
5450.0 82.3111064418301
5600.0 83.12434178850123
5800.0 83.33250071980426
6000.0 83.12746618704817
6150.0 83.01897908916929
6300.0 83.02656118613862
6500.0 82.88818729494552
6700.0 82.19616413010927
6900.0 81.28074772809308
7100.0 81.11718872905564
7300.0 80.81468194974838
7500.0 80.14875311175663
7750.0 80.00840707831958
8000.0 80.06326793710227
8250.0 79.82934353651558
8500.0 77.86183801710575
8750.0 77.72837399644962
9000.0 77.85214553536159
9250.0 77.78499277580369
9500.0 77.69717828046524
9750.0 77.8559304959839
10000.0 77.30518162797054
10300.0 76.08846647593325
10600.0 74.57754728674004
10900.0 75.55565385968123
11200.0 76.78986615041674
11500.0 76.33315011003953
11800.0 74.5980420444765
12200.0 75.2659387369404
12500.0 73.80750173820797
12800.0 75.55096754291088
13200.0 77.1211587138828
13600.0 75.80146472020368
14000.0 76.8648089741557
14500.0 75.11009609230553
15000.0 73.38690098370759
15500.0 71.77197640674717
16000.0 67.69847749599575
16500.0 62.37591366335215
17000.0 59.19308354179958
17500.0 63.068553945137324
18000.0 65.99568848792157
18500.0 67.70278114374051
19000.0 68.63733687663702
19500.0 67.6263729935286
