Freq,Floor Bounce,Ceiling Bounce,Front Wall Bounce,Side Wall Bounce,Rear Wall Bounce,Total Early Reflection
22.4,56.33358982687996,55.10076749445561,55.773579285685074,55.45226959352625,54.999079368268994,55.55945733694905
23.0,57.43358982687995,56.234351408685015,56.87357928568507,56.54956775128413,56.05521033154032,56.657323877538815
23.6,58.40076749445562,57.3022846139602,57.87357928568507,57.5495677512841,57.06467968186281,57.66357294058675
24.0,59.200767494455604,58.06845083805432,58.63028342910938,58.28717399212586,57.807083126332074,58.42612879313542
25.0,60.10076749445561,59.036635756671856,59.57357928568506,59.18581938546741,58.72887785504993,59.35136167922305
25.8,61.03513059177983,60.07150800786938,60.53028342910939,60.146420413694315,59.68113750632138,60.3174128029181
26.5,62.000767494455616,61.07150800786938,61.4994191949945,61.104711345342025,60.64082670606534,61.287864307314734
27.2,63.168450838054326,62.371508007869394,62.69941919499452,62.32441663477411,61.843548608347305,62.503752013290594
28.0,64.03513059177982,63.305318067664714,63.63028342910938,63.223425183843034,62.728484559963675,63.406306226477994
29.0,64.83513059177984,64.17150800786938,64.45638145466508,64.00416503127339,63.54574213770054,64.22408856690565
30.0,65.63513059177983,64.97150800786939,65.20992195267189,64.82479938922849,64.32062186300051,65.01397390523067
30.7,66.23513059177982,65.6053180676647,65.9099219526719,65.42479938922848,64.93196300066573,65.64369615820675
31.5,66.83513059177983,66.23663575667186,66.53675112070228,66.08388342144039,65.56969252663058,66.27329457816803
32.5,67.53513059177983,66.93663575667186,67.2367511207023,66.80368322499002,66.26969252663058,66.97709253667577
33.5,68.26845083805432,67.7022846139602,68.07595803166798,67.5630532742558,67.05878570712544,67.7539421262997
34.5,69.10076749445561,68.56845083805433,68.91871865150549,68.40371538515213,67.88910317326211,68.59647326283485
35.5,69.73513059177982,69.16845083805433,69.57397253892371,69.10371538515213,68.52391014616909,69.24126145477514
36.5,70.33513059177983,69.76769521305295,70.22979499755905,69.72342518384303,69.13307677065134,69.85859301883572
37.5,70.80076749445561,70.20231994589774,70.72979499755904,70.18390520653757,69.60706648075369,70.32610848371503
38.7,71.33513059177982,70.73513059177982,71.2861845050195,70.7649119959506,70.13408011518032,70.87283127443588
40.0,72.00076749445562,71.33821129888743,71.91508314243885,71.4041650312734,70.78884659142325,71.51133908213585
41.2,72.50076749445562,71.87150800786938,72.50065786069426,71.92523667270711,71.30002287603574,72.0426350659396
42.5,73.00076749445562,72.27150800786937,72.94313939533784,72.38619527951268,71.75722628610635,72.495933786133
43.7,73.40076749445562,72.64044167945491,73.37232492078934,72.7676451375008,72.12935812545189,72.88824315877396
45.0,73.66769521305294,72.87449351030438,73.61508314243885,73.0676451375008,72.40319054871455,73.15121146774912
46.2,74.06769521305294,73.2441577493485,74.01508314243884,73.42795368958642,72.75399254479284,73.52949692137828
47.5,74.40076749445561,73.5098662867233,74.28684446163055,73.7082644787565,73.03911715612035,73.81798265892736
48.7,74.60076749445562,73.74415774934852,74.51508314243883,73.92795368958643,73.2384287702002,74.03441076533575
50.0,74.83358982687997,73.91430637862281,74.71508314243884,74.10826447875651,73.44849668701707,74.23419732146162
51.5,75.00076749445562,74.04415774934851,74.82979499755905,74.22795368958641,73.5587750109896,74.36404768375034
53.0,75.2007674944556,74.1797774579057,74.9726636771097,74.34624855237013,73.68402440819925,74.51121520221926
54.5,75.33358982687996,74.34415774934853,75.07266367710969,74.50826447875652,73.78353215083644,74.6427873602864
56.0,75.50076749445562,74.47977745790568,75.21609718937366,74.64624855237012,73.90922151060268,74.78638427083645
58.0,75.70076749445562,74.6797774579057,75.41609718937367,74.8252366727071,74.09858263642103,74.98058477605574
60.0,75.96692185116049,74.84415774934853,75.64414691320782,75.02523667270712,74.29858263642103,75.19589636177717
61.5,76.20076749445563,75.10986628672329,75.94414691320783,75.28526041028543,74.56074152280664,75.45998634099648
63.0,76.5669218511605,75.4098662867233,76.25944832726678,75.66537624439827,74.90379257758327,75.80159414064497
65.0,77.10076749445562,75.9098662867233,76.78786512280335,76.1649119959506,75.40379257758326,76.31592156946563
67.0,77.53435140868503,76.3098662867233,77.28786512280337,76.66491199595059,75.90379257758327,76.78198941594088
69.0,78.16845083805433,76.90986628672329,77.9726636771097,77.3069588335115,76.53440203256166,77.42242867175266
71.0,79.00076749445562,77.6457671943847,78.8577566746453,78.1867120680812,77.36550272513335,78.25894055904243
73.0,79.66845083805433,78.27977745790568,79.5577566746453,78.9069588335115,78.06550272513336,78.94389411174173
75.0,80.36845083805433,78.94576719438469,80.31508314243885,79.62576944165728,78.79227619662315,79.65947100137461
77.5,80.96845083805432,79.48219967332305,80.94313939533782,80.3069588335115,79.43427899230606,80.27844521599063
80.0,81.23663575667187,79.71592692226706,81.32880715674527,80.64956775128412,79.75536277777438,80.59230704324142
82.5,81.46845083805432,79.85260953202219,81.6147553152921,80.8903234694019,79.98219587023625,80.8226415367261
85.0,81.56845083805432,79.95260953202218,81.78651449586094,81.06952426187775,80.09239484115416,80.95778486496904
87.5,81.70306957104252,79.98982856673473,81.94346508697897,81.21250022107085,80.21419433570266,81.08214690527258
90.0,82.00306957104252,80.28982856673473,82.28651449586096,81.51564374029256,80.4662473319764,81.38553532465451
92.5,82.37150800786937,80.58982856673472,82.68651449586095,81.8944829039731,80.7817146160455,81.74483275187589
95.0,82.87150800786938,81.02758719283592,83.18651449586095,82.31564374029256,81.19315767797788,82.20495863419158
97.5,83.33663575667187,81.42758719283592,83.60065786069426,82.77955067777731,81.54043281437673,82.62865169711517
100.0,83.67150800786938,81.76588846059687,83.95873795327732,83.0795506777773,81.80864509754977,82.95236138345027
103.0,84.04044167945491,81.99897445130924,84.27297191737702,83.34222438693197,81.99848426201746,83.23785372635334
106.0,84.2404416794549,82.13752777300026,84.44445718403786,83.48505351870533,82.07860089319148,83.391808982105
109.0,84.4404416794549,82.30473530118577,84.64445718403786,83.68505351870533,82.15858124261008,83.56935879280536
112.0,84.74044167945492,82.43752777300027,84.88748929892041,83.88505351870533,82.33799929106974,83.7921669557034
115.0,84.9404416794549,82.50963256681621,85.08748929892042,84.0499316079587,82.43799929106976,83.95223912134432
118.0,85.0404416794549,82.44898359150842,85.18748929892041,84.11313953999233,82.43799929106976,84.00794095305382
122.0,85.0404416794549,82.24898359150842,85.18748929892041,84.11313953999233,82.39576174662027,83.97465489235971
125.0,85.14044167945491,82.08888547155004,85.18748929892041,84.11313953999233,82.37011987087902,83.97583086744456
128.0,85.14044167945491,81.86194867563765,85.18748929892041,84.11313953999233,82.3845862078068,83.94911319001407
132.0,85.2404416794549,81.63546263134683,85.21704993328868,84.11313953999233,82.42419526241481,83.96185796113134
136.0,85.37150800786938,81.4179278976485,85.2874892989204,84.11313953999233,82.48816147518515,84.00057907819254
140.0,85.47150800786937,81.1179278976485,85.31704993328867,84.07862990826222,82.50280106291547,83.99932729141067
145.0,85.40531806766471,80.63469773360899,85.18748929892041,83.90245227663603,82.35752795376878,83.84093464764035
150.0,85.27150800786937,80.02875610128315,85.03175513861906,83.58636069648989,82.11238376428318,83.60538048300329
155.0,85.2404416794549,79.57269145322594,84.90489499373622,83.41069317386166,81.91988816898912,83.46018141783703
160.0,85.2404416794549,79.2165581917717,84.90489499373622,83.2243861571818,81.72817412981225,83.36892119665494
165.0,85.3404416794549,78.97245249207644,84.9500063401707,83.15690409354568,81.5702768396009,83.3605042297307
170.0,85.4760917544922,78.89780984381858,85.09366590096782,83.1508253968645,81.37183346849497,83.41353965255641
175.0,85.50986628672328,78.84520516099381,85.16528715999551,83.12208770262139,81.08643806727657,83.40208042784666
180.0,85.44576719438469,78.82457993687898,85.19366590096782,83.04102466843933,80.71271127508018,83.33084814380776
185.0,85.38219967332304,78.79317487506891,85.19366590096782,82.97790048898341,80.29175598421324,83.2517399714024
190.0,85.25260953202216,78.77277674488687,85.16528715999551,82.96475106144106,79.90372217370295,83.15872289988125
195.0,85.06096514237181,78.62457993687897,85.0652871599955,82.86475106144104,79.44494299296062,82.9928110398044
200.0,84.79485705883171,78.42457993687897,84.89366590096783,82.71415025910565,78.9735764855523,82.76719132262079
206.0,84.53257218046558,78.17277674488686,84.75000634017073,82.61415025910566,78.58087630176378,82.56642939527178
212.0,84.30464502318536,77.82154865751023,84.51998423401443,82.45778973918216,78.22225363119111,82.33327201956996
218.0,84.07717895989803,77.45274994214361,84.37848478147016,82.37096022893886,77.92968944767149,82.14888482697214
224.0,84.11592538879982,77.27089600007291,84.4048949937362,82.48748430179782,77.90552985077801,82.18071082135141
230.0,84.28219812790054,77.15131759580827,84.60489499373621,82.70086940526012,78.02401098059075,82.34703588555332
236.0,84.31592538879983,76.90146480937388,84.70489499373622,82.80086940526012,78.07003179927254,82.40197708583104
240.0,84.28915630129643,76.48246753146329,84.60489499373621,82.75130410818514,77.97443819145109,82.31900617620086
250.0,84.1552196930838,76.10146480937388,84.47525122642456,82.65130410818514,77.81703127448802,82.17979757199184
258.0,83.9552196930838,75.70146480937387,84.27525122642457,82.45130410818514,77.6456810758176,81.97225211805598
265.0,83.66283617001535,75.32081894554055,84.03175513861906,82.25130410818515,77.36949410125025,81.71436793981286
272.0,83.40261155895364,74.94053501177822,83.83175513861906,82.03126350338631,77.09688406470235,81.47755401490079
280.0,82.9429397936019,74.51115315731633,83.40489499373622,81.60813918489505,76.63711899639911,81.038839790767
290.0,82.31753803239934,74.00449239072294,82.83175513861906,81.02208770262138,76.02512687587654,80.44678496581858
300.0,81.89257011413608,73.70091389014041,82.37525122642457,80.56511489611381,75.51681833876751,80.00323457740171
307.0,81.56803106656234,73.60049345838576,82.11998423401444,80.29607828419951,75.14658774813783,79.72284082884364
315.0,81.38573781157955,73.57882682230878,81.91998423401444,80.19607828419952,74.83611398833038,79.55253858456551
325.0,81.18573781157956,73.53392657477244,81.80489499373621,80.04759378799852,74.57628076490202,79.39786949635618
335.0,80.9281210048995,73.30330511748406,81.60489499373621,79.87940338926876,74.25992718178945,79.17881829842541
345.0,80.40488091921368,72.90330511748404,81.21998423401443,79.57940338926875,73.91948474561067,78.77538503214414
355.0,79.82545123408708,72.3788268223088,80.91998423401444,79.28681951076163,73.60201678556182,78.38500945820878
365.0,79.39220047151572,72.05477168396807,80.85000634017072,79.23991755247818,73.63741154027318,78.2172337425448
375.0,79.14197022557482,71.85412591517941,81.0652871599955,79.35509814013882,73.85054727133706,78.26938438352524
387.0,78.74577223479652,71.47436617787406,81.1677916354448,79.3350750757341,73.87741360073794,78.19588802615753
400.0,78.15872457742296,70.98107327382878,81.2136394060688,79.06702684154727,73.6964439501754,77.98389022369244
412.0,77.8022520696168,70.93088003414321,81.28847217927515,78.84067910830288,73.50446987985946,77.87032748987791
425.0,77.88201452057557,71.29380864002827,81.7351604799582,78.94888981152184,73.5297280735862,78.12957115066918
437.0,78.10586825843147,71.73769907478449,82.21068966302632,79.09671504524555,73.5912510117715,78.45128575183885
450.0,78.16049414662606,71.98760046288923,82.51068966302631,79.11711276487283,73.36481641851543,78.6075240546637
462.0,78.03712108259995,72.1731706389689,82.6268345531296,79.01602643153647,72.98858557511137,78.60763938056219
475.0,77.91545526234326,72.43999927958744,82.78664191481758,78.95255962235414,72.61096089406122,78.6473868096107
487.0,77.81772155339539,72.62812233674838,82.88664191481759,78.90584207706202,72.30300769404118,78.6679119561254
500.0,77.73212708628678,72.5599996174499,82.98664191481758,78.9163695399623,72.12288126101662,78.69802789674073
515.0,77.67669377617153,72.292378988098,83.08664191481759,78.95535937584356,71.97016833708666,78.73238730090192
530.0,77.39389321192753,71.8944886893229,83.058217088195,78.91386987055016,71.7800925911247,78.63921752589026
545.0,76.97477325204103,71.36941986366729,82.88664191481759,78.68309908338253,71.35885509241723,78.39399926629801
560.0,76.48725165402637,70.82180052683974,82.658217088195,78.45322778323994,70.90898290765784,78.10784495226197
580.0,76.18902574866155,70.15519220018268,82.458217088195,78.22423187996952,70.51287570483262,77.86415403629768
600.0,75.95906826280388,69.14528993868244,82.2268345531296,77.97275844857262,70.06424674165875,77.59650199458467
615.0,75.6370348018459,67.76959103308046,81.90287628300402,77.63066610092547,69.50957091737088,77.23407234188423
630.0,75.3941417920329,66.54471937410109,81.65086213388186,77.33066610092548,68.96728364598702,76.94349206993626
650.0,75.27327204284624,65.61476097345947,81.45086213388187,77.09561316106098,68.44997768364279,76.72498636772075
670.0,75.23779418216368,65.04610042237148,81.37640057047572,76.92394988286316,68.0760108672161,76.61923608063312
690.0,75.33201596535106,64.82115962436552,81.57640057047573,77.03213896228478,68.03724852553466,76.77215194098217
710.0,75.52510548174459,65.11117002597231,81.95378373474547,77.27519676191982,68.10102118372468,77.08588103786809
730.0,75.39780270165296,65.89393943395051,82.15378373474546,77.33122328430092,68.04301363352573,77.21326090961362
750.0,75.15913749969137,66.78214278682027,82.35378373474548,77.33665211417701,67.9966828345197,77.32350857597922
775.0,74.9294858624009,67.69071920437909,82.55378373474548,77.45267757109177,67.99247246462333,77.46566616120752
800.0,74.54657309382738,68.63694224118284,82.70343598990847,77.43307206635289,67.81767592117056,77.5369697308185
825.0,73.98519705890897,69.56301553270809,82.68147278830732,77.28902370521318,67.53110173361789,77.46203810088842
850.0,73.44577649534529,70.64765672599421,82.78147278830731,77.21815132136527,67.25185717038863,77.50453227703757
875.0,72.9876278950487,71.72966772555958,82.9319538584431,77.2429016260155,67.02052591727502,77.62303472142983
900.0,72.30140722559901,72.31806369484937,82.81063265137014,77.00775343166849,66.57330970281218,77.47886188849405
925.0,71.51998655717314,72.70851015494075,82.51063265137014,76.65087776378668,65.96463190632072,77.18182702476189
950.0,70.8094245587272,73.34933017157829,82.31063265137016,76.28524541270734,65.30198632936965,76.9865116016798
975.0,69.8441578869413,73.93969464565387,81.92833223333885,75.85292616946738,64.53166986342963,76.65842583446768
1000.0,68.92499878869693,74.42264734397968,81.7074800989159,75.50545142136892,63.92009227235852,76.46700435139684
1030.0,68.1812384704215,74.74258273663015,81.34124799874557,74.98029240415342,63.11235467171282,76.1509132015443
1060.0,67.8301246186698,74.88910480561007,81.02093228243581,74.40848224833758,62.22543752473008,75.85820014768566
1090.0,67.71655779034886,74.72869245367797,80.51913795500015,73.56176579360574,60.986425112496875,75.37262070405764
1120.0,68.47691451983918,74.9764039486485,80.5063028369637,73.00978667299626,60.228772922259836,75.36330836301478
1150.0,69.58274334736863,75.25638566828012,80.58844499392839,72.73134458594079,60.112694362956105,75.48812078886625
1180.0,70.30699206786123,75.24095559035176,80.52561608974064,72.43212264702578,60.35788010226922,75.45598619700499
1220.0,70.96640980126064,75.12873790694023,80.40125067607755,72.13733938968961,60.71100083883603,75.3726959770871
1250.0,71.62067914588752,74.88013829070435,80.20125067607756,71.9572287684894,60.70538078176101,75.23481944976945
1280.0,72.60449239072294,75.05327412490554,80.30125067607754,72.26734501810279,61.110292097500675,75.4545121288647
1320.0,73.6586572401787,75.3028509576118,80.52561608974064,72.62251751646843,61.6963212029291,75.79239052980587
1360.0,74.82699787697726,75.67473140136792,80.73416418708972,73.14822072913519,62.223382557242914,76.19213056957719
1400.0,75.64680047887707,75.65836287927837,80.70630283696369,73.38279637737722,62.40900504239448,76.3284813689863
1450.0,76.48656646311247,75.69363934264024,80.7719469475759,73.59055087479044,62.17195256186166,76.5434924885922
1500.0,77.64136150423587,76.14027530866603,81.2996394049785,74.1686298727437,62.27947610752082,77.19167034958441
1550.0,78.71916705502754,76.7142640887839,81.9471681095725,74.68331184767571,62.3604317072965,77.91101223400905
1600.0,79.37717895989802,76.97822079791517,82.40098676922553,74.99005478545693,62.41274913948152,78.37109480565488
1650.0,79.56839968904114,76.84412887807498,82.4471681095725,74.7888314389109,62.02828457956333,78.404657970002
1700.0,79.48633240679167,76.58436202808595,82.28140637079007,74.41225060770306,61.49756769767771,78.22848102975144
1750.0,79.37567604030066,76.23878621388877,82.06218600819972,73.99551257567003,60.8673614391095,78.00386875937498
1800.0,79.15550427028118,75.8978137962719,81.88049974400134,73.5843406516688,60.30374224691376,77.771366122906
1850.0,78.83610968287977,75.41178284407282,81.56171390791921,72.98780260452305,59.903994178237596,77.4100831037431
1900.0,78.2151200681775,74.63966428643985,80.95051165087547,72.05248452894864,59.176196998636655,76.75301013008995
1950.0,77.37432484332773,73.59868001632911,80.23366852750853,71.02816915175835,58.3478814571251,75.94203370049405
2000.0,76.6001832490481,72.64558383151338,79.53844289944954,69.98984684898183,57.713724428454825,75.17419268799584
2060.0,76.1437874106414,71.91753359992249,79.13590871152218,69.42650509783634,57.530177212457616,74.71258817913147
2120.0,75.86911763667254,71.59980341180723,79.12570433439127,69.55345825296713,57.75790672275458,74.60801044072119
2180.0,75.87937331174562,71.72297870459896,79.32839496623625,69.96067375589709,58.254993004656924,74.76660120348944
2240.0,75.84412887807498,72.0231203439938,79.49551134284543,70.5097912204781,58.40381144270741,74.92234241815794
2300.0,75.96597134844477,72.58509485802377,79.75601300285676,71.20426699748249,58.80715220433321,75.21469976859053
2360.0,76.4311382742918,73.4586572401787,80.33930140957945,72.06522595405465,59.30134746336758,75.82533679348145
2400.0,76.69983306661128,74.06001642302817,80.65043531879247,72.66642726916523,59.51867775443672,76.18611143549562
2500.0,77.14852142053365,74.70901938277,81.01702532263155,73.18983249150853,59.660285248420664,76.61986162684902
2580.0,77.71192126753355,75.32637355670792,81.52160631149708,73.8423359463686,59.91379574330908,77.16502406776485
2650.0,78.14413052381576,75.7380832135172,81.8354220068962,74.13702728713038,60.05629183984483,77.51646026437665
2720.0,78.32402487026023,75.81101842217598,81.86646083107608,74.34875813380442,60.00101385901725,77.60435281449362
2800.0,78.64608461666676,75.91923785438674,81.95493294116706,74.54917426277612,60.19954782450422,77.76263177434024
2900.0,78.8489851487955,75.96946044792391,81.86676275716735,74.71976845451412,60.30206583597537,77.79119493136399
3000.0,78.8948570588317,75.66882143514853,81.53307732856847,74.5689270876503,60.17952400264274,77.58050312638703
3070.0,79.09749950966174,75.72664543441657,81.51059809101157,74.61670984869528,60.27953186661237,77.63780215037775
3150.0,79.4552233498861,75.81178284407282,81.70516073463672,74.79766871790864,60.356112047102684,77.8630926087999
3250.0,79.69470218621025,75.93980936753104,81.7678888935895,74.82004261523586,60.28531430626474,77.9812929415253
3350.0,80.03174271310296,76.11116081759258,81.86955890952815,74.93908694161306,60.28849851850909,78.16410080962966
