Freq "Floor Bounce"
22.4 56.33358982687997
23.0 57.43358982687997
23.6 58.40076749445561
24.0 59.20076749445562
25.0 60.100767494455624
25.8 61.03513059177983
26.5 62.000767494455616
27.2 63.168450838054326
28.0 64.03513059177985
29.0 64.83513059177983
30.0 65.63513059177983
30.7 66.23513059177984
31.5 66.83513059177983
32.5 67.53513059177983
33.5 68.26845083805432
34.5 69.10076749445562
35.5 69.73513059177982
36.5 70.33513059177983
37.5 70.80076749445561
38.7 71.33513059177983
40.0 72.00076749445562
41.2 72.50076749445562
42.5 73.0007674944556
43.7 73.40076749445562
45.0 73.66769521305294
46.2 74.06769521305296
47.5 74.40076749445561
48.7 74.60076749445561
50.0 74.83358982687996
51.5 75.00076749445562
53.0 75.20076749445562
54.5 75.33358982687999
56.0 75.5007674944556
58.0 75.70076749445562
60.0 75.96692185116049
61.5 76.20076749445562
63.0 76.56692185116049
65.0 77.10076749445561
67.0 77.53435140868503
69.0 78.16845083805433
71.0 79.00076749445563
73.0 79.66845083805433
75.0 80.36845083805434
77.5 80.96845083805432
80.0 81.23663575667186
82.5 81.46845083805434
85.0 81.56845083805433
87.5 81.70306957104252
90.0 82.00306957104252
92.5 82.37150800786938
95.0 82.87150800786938
97.5 83.33663575667187
100.0 83.67150800786938
103.0 84.0404416794549
106.0 84.2404416794549
109.0 84.4404416794549
112.0 84.7404416794549
115.0 84.94044167945492
118.0 85.04044167945491
122.0 85.04044167945491
125.0 85.14044167945491
128.0 85.14044167945491
132.0 85.2404416794549
136.0 85.37150800786938
140.0 85.47150800786937
145.0 85.40531806766471
150.0 85.27150800786939
155.0 85.2404416794549
160.0 85.2404416794549
165.0 85.3404416794549
170.0 85.47609175449222
175.0 85.50986628672328
180.0 85.4457671943847
185.0 85.38219967332304
190.0 85.25260953202218
195.0 85.06096514237183
200.0 84.7948570588317
206.0 84.53257218046558
212.0 84.30464502318536
218.0 84.07717895989803
224.0 84.11592538879981
230.0 84.28219812790056
236.0 84.31592538879983
240.0 84.28915630129642
250.0 84.1552196930838
258.0 83.95521969308379
265.0 83.66283617001535
272.0 83.40261155895365
280.0 82.9429397936019
290.0 82.31753803239934
300.0 81.89257011413608
307.0 81.56803106656234
315.0 81.38573781157956
325.0 81.18573781157956
335.0 80.92812100489948
345.0 80.40488091921367
355.0 79.8254512340871
365.0 79.39220047151572
375.0 79.14197022557482
387.0 78.74577223479652
400.0 78.15872457742296
412.0 77.8022520696168
425.0 77.88201452057557
437.0 78.10586825843149
450.0 78.16049414662606
462.0 78.03712108259995
475.0 77.91545526234327
487.0 77.81772155339539
500.0 77.7321270862868
515.0 77.67669377617153
530.0 77.39389321192752
545.0 76.97477325204103
560.0 76.48725165402637
580.0 76.18902574866155
600.0 75.95906826280388
615.0 75.6370348018459
630.0 75.3941417920329
650.0 75.27327204284626
670.0 75.23779418216367
690.0 75.33201596535106
710.0 75.52510548174459
730.0 75.39780270165295
750.0 75.15913749969135
775.0 74.9294858624009
800.0 74.54657309382738
825.0 73.98519705890897
850.0 73.44577649534529
875.0 72.98762789504869
900.0 72.30140722559901
925.0 71.51998655717313
950.0 70.8094245587272
975.0 69.8441578869413
1000.0 68.92499878869693
1030.0 68.1812384704215
1060.0 67.8301246186698
1090.0 67.71655779034886
1120.0 68.47691451983918
1150.0 69.58274334736863
1180.0 70.30699206786123
1220.0 70.96640980126065
1250.0 71.62067914588752
1280.0 72.60449239072295
1320.0 73.6586572401787
1360.0 74.82699787697726
1400.0 75.64680047887708
1450.0 76.48656646311247
1500.0 77.64136150423587
1550.0 78.71916705502754
1600.0 79.37717895989803
1650.0 79.56839968904114
1700.0 79.48633240679169
1750.0 79.37567604030068
1800.0 79.15550427028117
1850.0 78.83610968287977
1900.0 78.2151200681775
1950.0 77.37432484332774
2000.0 76.6001832490481
2060.0 76.14378741064141
2120.0 75.86911763667254
2180.0 75.87937331174561
2240.0 75.844128878075
2300.0 75.96597134844477
2360.0 76.4311382742918
2400.0 76.69983306661128
2500.0 77.14852142053365
2580.0 77.71192126753355
2650.0 78.14413052381576
2720.0 78.32402487026023
2800.0 78.64608461666676
2900.0 78.8489851487955
3000.0 78.89485705883172
3070.0 79.09749950966176
3150.0 79.4552233498861
3250.0 79.69470218621025
3350.0 80.03174271310297
3450.0 80.52129830443603
3550.0 80.59561715933444
3650.0 80.61755713588666
3750.0 80.50225206961679
3870.0 80.55038609828259
4000.0 80.44885135917306
4120.0 80.40146480937388
4250.0 80.24520516099383
4370.0 80.11395652088274
4500.0 80.07245431186857
4620.0 80.00191445428936
4750.0 80.03012365263648
4870.0 80.01281348208468
5000.0 80.02235821714527
5150.0 79.80255084073482
5300.0 79.49242058227307
5450.0 79.05327412490556
5600.0 78.70285095761179
5800.0 78.91399508116126
6000.0 79.62348556532604
6150.0 79.89500059240535
6300.0 79.78354649534126
6500.0 79.6200526472089
6700.0 79.4990151873486
6900.0 79.47882898990247
7100.0 79.6594633371358
7300.0 79.62362620002669
7500.0 79.17287052325149
7750.0 78.79540175394476
8000.0 78.451699326782
8250.0 78.11655979241947
8500.0 77.81544344341653
8750.0 77.59059140787745
9000.0 77.30444813709062
9250.0 76.99751749841198
9500.0 76.72406634433557
9750.0 76.60704003632972
10000.0 76.8752717407642
10300.0 77.08796868418942
10600.0 77.1202409964892
10900.0 77.2387808527516
11200.0 77.64205313523954
11500.0 77.69996104206953
11800.0 77.70962289982695
12200.0 77.5187023295529
12500.0 77.07979693268615
12800.0 76.6511361883388
13200.0 76.03465076516198
13600.0 75.06282222339671
14000.0 73.84609975902819
14500.0 72.83027184731849
15000.0 71.60906430015983
15500.0 70.22909084157254
16000.0 68.80076749445563
16500.0 67.62102614963504
17000.0 68.28256065499535
17500.0 66.4171946831857
18000.0 65.36194729184086
18500.0 65.45521969308379
19000.0 62.6026335053877
19500.0 61.62812233674836
