Freq "Rear Wall Bounce"
22.4 56.22186417839559
23.0 57.27799514166689
23.6 58.28746449198941
24.0 59.02986793645867
25.0 59.95166266517653
25.8 60.903922316447975
26.5 61.86361151619191
27.2 63.06633341847389
28.0 63.95126937009026
29.0 64.76852694782711
30.0 65.54340667312708
30.7 66.15474781079233
31.5 66.79247733675716
32.5 67.49247733675716
33.5 68.281570517252
34.5 69.1118879833887
35.5 69.74669495629568
36.5 70.35586158077791
37.5 70.82985129088028
38.7 71.35686492530691
40.0 72.01163140154983
41.2 72.52280768616232
42.5 72.98001109623293
43.7 73.35214293557847
45.0 73.62597535884113
46.2 73.97677735491943
47.5 74.26190196624692
48.7 74.46121358032678
50.0 74.67128149714365
51.5 74.7815598211162
53.0 74.90680921832583
54.5 75.00631696096302
56.0 75.13200632072927
58.0 75.3213674465476
60.0 75.52136744654761
61.5 75.78352633293322
63.0 76.12657738770986
65.0 76.62657738770984
67.0 77.12657738770986
69.0 77.75718684268824
71.0 78.58828753525992
73.0 79.28828753525993
75.0 80.01506100674972
77.5 80.65706380243265
80.0 80.97814758790098
82.5 81.20498068036284
85.0 81.31517965128074
87.5 81.43697914582924
90.0 81.68903214210299
92.5 82.0044994261721
95.0 82.41594248810448
97.5 82.7632176245033
100.0 83.03142990767635
103.0 83.22126907214404
106.0 83.30138570331806
109.0 83.38136605273667
112.0 83.56078410119632
115.0 83.66078410119633
118.0 83.66078410119633
122.0 83.61854655674684
125.0 83.5929046810056
128.0 83.60737101793339
132.0 83.6469800725414
136.0 83.71094628531173
140.0 83.72558587304205
145.0 83.58031276389538
150.0 83.33516857440976
155.0 83.1426729791157
160.0 82.95095893993881
165.0 82.79306164972746
170.0 82.59461827862154
175.0 82.30922287740317
180.0 81.93549608520676
185.0 81.51454079433982
190.0 81.12650698382954
195.0 80.6677278030872
200.0 80.19636129567887
206.0 79.80366111189036
212.0 79.44503844131768
218.0 79.15247425779809
224.0 79.12831466090458
230.0 79.24679579071731
236.0 79.29281660939913
240.0 79.19722300157767
250.0 79.0398160846146
258.0 78.86846588594419
265.0 78.59227891137682
272.0 78.31966887482893
280.0 77.8599038065257
290.0 77.24791168600312
300.0 76.73960314889409
307.0 76.36937255826443
315.0 76.05889879845697
325.0 75.7990655750286
335.0 75.48271199191603
345.0 75.14226955573724
355.0 74.82480159568841
365.0 74.86019635039976
375.0 75.07333208146365
387.0 75.10019841086452
400.0 74.91922876030196
412.0 74.72725468998603
425.0 74.75251288371278
437.0 74.81403582189809
450.0 74.58760122864201
462.0 74.21137038523796
475.0 73.83374570418779
487.0 73.52579250416777
500.0 73.3456660711432
515.0 73.19295314721325
530.0 73.00287740125128
545.0 72.58163990254381
560.0 72.13176771778443
580.0 71.7356605149592
600.0 71.28703155178533
615.0 70.73235572749746
630.0 70.19006845611362
650.0 69.67276249376937
670.0 69.29879567734268
690.0 69.26003333566125
710.0 69.32380599385127
730.0 69.26579844365232
750.0 69.21946764464627
775.0 69.21525727474992
800.0 69.04046073129715
825.0 68.75388654374447
850.0 68.4746419805152
875.0 68.2433107274016
900.0 67.79609451293878
925.0 67.1874167164473
950.0 66.52477113949624
975.0 65.75445467355621
1000.0 65.1428770824851
1030.0 64.33513948183942
1060.0 63.448222334856666
1090.0 62.20920992262346
1120.0 61.45155773238643
1150.0 61.33547917308269
1180.0 61.580664912395804
1220.0 61.933785648962626
1250.0 61.928165591887606
1280.0 62.333076907627245
1320.0 62.91910601305568
1360.0 63.44616736736951
1400.0 63.63178985252107
1450.0 63.39473737198824
1500.0 63.50226091764739
1550.0 63.58321651742308
1600.0 63.63553394960809
1650.0 63.25106938968992
1700.0 62.72035250780429
1750.0 62.0901462492361
1800.0 61.52652705704034
1850.0 61.126778988364165
1900.0 60.39898180876325
1950.0 59.570666267251696
2000.0 58.93650923858142
2060.0 58.752962022584185
2120.0 58.98069153288115
2180.0 59.477777814783494
2240.0 59.62659625283398
2300.0 60.029937014459776
2360.0 60.524132273494146
2400.0 60.74146256456331
2500.0 60.88307005854725
2580.0 61.13658055343565
2650.0 61.2790766499714
2720.0 61.22379866914382
2800.0 61.42233263463078
2900.0 61.52485064610195
3000.0 61.402308812769334
3070.0 61.50231667673894
3150.0 61.578896857229296
3250.0 61.508099116391335
3350.0 61.511283328635656
3450.0 61.809063046349294
3550.0 62.00442717445556
3650.0 62.07914322941585
3750.0 61.871198101714285
3870.0 61.64509168633704
4000.0 61.329095776195615
4120.0 61.109706911577234
4250.0 60.69052069560901
4370.0 59.896819777915525
4500.0 58.46915999298902
4620.0 57.38126368963343
4750.0 57.342336878684776
4870.0 57.29088358763026
5000.0 57.20104975230795
5150.0 56.725194382401966
5300.0 56.21514350087476
5450.0 55.9093097536565
5600.0 55.80167794604354
5800.0 56.06726275074412
6000.0 56.85905672516658
6150.0 57.20926461838518
6300.0 57.05645459128617
6500.0 57.103322043430026
6700.0 57.31763963289218
6900.0 57.077881762565355
7100.0 56.891026214979334
7300.0 56.49180169726141
7500.0 55.55785047154659
7750.0 54.62839383695409
8000.0 54.03892417957768
8250.0 53.284720552066474
8500.0 52.217258226095524
8750.0 51.57080388842674
9000.0 51.32188241342304
9250.0 51.00402461810093
9500.0 50.82182576642971
9750.0 50.31008766233204
10000.0 49.84913901670258
10300.0 49.793536818387864
10600.0 50.320652708398725
10900.0 51.19160670747566
11200.0 52.00989676228322
11500.0 52.10643402564234
11800.0 51.966798554529376
12200.0 52.057644253941035
12500.0 52.36645994349432
12800.0 52.17902591727001
13200.0 51.619734758732235
13600.0 50.27487113756517
14000.0 48.89632292246496
14500.0 48.20038453365201
15000.0 46.998188054990734
15500.0 45.69167233963147
16000.0 44.81448463015671
16500.0 45.74658305659635
17000.0 46.63007949149214
17500.0 46.40537097616571
18000.0 46.30614515711359
18500.0 47.481786889004965
19000.0 47.30384652079029
19500.0 47.10710142936851
