Freq "Rear Wall Bounce"
20.5078 50.669264871893546
21.9727 53.90273938192743
23.4375 54.30765547773106
24.9023 57.03782347270496
26.3672 58.810451868313095
27.832 59.97579399106351
29.2969 60.4350776186165
30.7617 62.678148601036455
32.2266 63.636264321956304
33.6914 65.36080980750202
35.1562 67.35926099552375
36.6211 68.85018472238568
38.0859 70.46699893426145
39.5508 72.06789074622853
41.0156 73.73930172009418
42.4805 75.51231075234637
43.9453 76.97510146603814
45.4102 78.71589655686984
46.875 80.19871073130656
48.3398 81.55088049271029
51.2695 83.58215499528218
52.7344 84.13215920535885
54.1992 84.49875887004707
55.6641 84.62752097440764
58.5938 84.45643932527727
60.0586 84.29171101291044
62.9883 83.92130904295627
64.4531 83.7362561127173
67.3828 83.53015967204132
68.8477 83.50838513243431
71.7773 83.45457659026272
74.707 83.3462618130439
77.6367 83.3284619012988
79.1016 83.3719850097185
82.0312 83.41995195844117
84.9609 83.36284766232991
87.8906 83.5326716235365
90.8203 83.7315497004936
95.2148 83.7651629650569
98.1445 83.80243552434789
101.074 83.93245889632693
105.469 83.90207686180668
108.398 84.01992066802524
112.793 84.13825856773214
117.188 84.13825977740618
120.117 84.36836999532426
124.512 84.40210674952931
128.906 84.40311296059676
133.301 84.38443174660995
139.16 84.29200677275495
143.555 84.27725724743358
147.949 84.39489424711913
153.809 84.10540634795893
159.668 83.97335133653621
165.527 83.51791928952535
171.387 83.91021573691759
177.246 83.74131842887385
183.105 83.83583406689657
188.965 83.68742599476025
196.289 83.3570380676309
203.613 82.89424550187437
210.938 82.53892810598046
218.262 82.95612373602698
225.586 82.57303875641011
232.91 82.1008177856485
241.699 81.62976452534716
250.488 81.61755455159825
259.277 81.30421568693515
268.066 82.22485863159473
276.855 81.14797155086003
287.109 80.88427238964574
297.363 80.89496276168025
307.617 81.36775763376689
319.336 80.31845628470474
329.59 80.32449913936935
341.309 79.91067107107715
353.027 79.11449813540165
366.211 79.7260811791939
379.395 79.2260236809388
392.578 79.35070492797753
405.762 79.33058444867405
420.41 78.98469089050297
435.059 79.21923490606459
451.172 78.74407040208578
465.82 78.5652813195388
483.398 78.29213155737061
499.512 78.88981831828917
517.09 77.76382684336187
536.133 77.76085855345475
555.176 77.85941502837218
574.219 77.05047485988683
594.727 77.96610033629591
615.234 77.5892855587459
637.207 76.72800764168922
659.18 77.71213758554697
682.617 77.83963844566159
707.52 77.67819298291538
732.422 78.07504403989282
757.324 77.96885245328436
785.156 77.49466973846921
811.523 77.563576039645
840.82 77.94324166064432
870.117 77.16301491153476
900.879 77.27342448233
933.105 76.27515459012163
965.332 75.6155571077297
1000.49 75.47790526815652
1035.64 74.2649061451747
1072.27 74.68612585850269
1108.89 74.89026519153927
1148.44 76.85247376005242
1189.45 76.48435099155311
1230.47 76.80358138348477
1274.41 76.20823097800559
1319.82 76.78762333186793
1366.7 75.78809001477254
1413.57 74.92345974199675
1463.38 74.84491739426275
1516.11 73.57832634718885
1568.85 72.0563646445467
1624.51 72.10758653626775
1681.64 72.40122710336681
1741.7 71.08578423740012
1803.22 70.78752038910679
1866.21 71.40940473697344
1932.13 70.40681050959404
1999.51 69.81816931738837
2069.82 69.73950860820078
2143.07 69.36574451319463
2219.24 67.68363340872995
2296.88 67.13765597129063
2378.91 67.22828817108662
2462.4 66.84874219770042
2548.83 66.26492762021016
2639.65 66.31416224738243
2731.93 66.32719484237565
2828.61 65.8421471788331
2928.22 65.95777075589477
3030.76 65.1168041253029
3137.7 65.02226384857057
3249.02 64.34381663357024
3363.28 64.35131415525572
3481.93 63.79458056052526
3604.98 63.49370378074572
3732.42 63.24924796258671
3864.26 63.08628102018969
4000.49 62.80209102064197
4141.11 61.47416438877211
4287.6 62.7027680809542
4438.48 63.052726149661254
4595.21 63.12595388559478
4756.35 62.82320567610728
4924.8 63.11488534688152
5097.66 62.60502292398881
5277.83 62.22593197574592
5463.87 62.378092149907175
5657.23 62.68160592234116
5856.45 63.39229354551183
6062.99 63.36341491292775
6276.86 64.24942842800039
6498.05 64.3590225616539
6726.56 64.32257878698275
6963.87 64.21419818029474
7209.96 63.802981486890474
7464.84 63.19948791710917
7727.05 63.80043576436225
7999.51 64.11437762677731
8282.23 62.339915273552464
8573.73 60.71574520419924
8876.95 60.33239831869108
9188.96 60.78720909423808
9514.16 59.78759858828474
9849.61 59.79524030907521
10196.8 60.456347381978475
10555.7 60.40163749385209
10927.7 60.47989028166057
11313.0 60.542718326482856
11712.9 60.22246758111956
12126.0 60.64402320672252
12553.7 60.53984517915666
12996.1 60.78904380929296
13454.6 60.538194650154054
13929.2 60.58199063996173
14419.9 59.81380805772284
14928.2 59.278001169045694
15455.6 58.89764574473875
16000.5 58.2881698113201
16564.5 55.791757863998896
17148.9 55.56320450909786
17752.4 57.15858826850953
18379.4 55.471940953091405
19026.9 53.52525016982179
19697.8 55.02574498694261
19999.5 56.60215803258163
