Freq "Floor Bounce"
20.5078 51.35112728143993
21.9727 60.31630860703483
23.4375 61.84856446123358
24.9023 63.31872786669392
26.3672 65.51301732760534
27.832 68.25801560319395
29.2969 70.18203958254055
30.7617 72.44851945019158
32.2266 74.21698325321849
33.6914 75.85476464700467
35.1562 77.2961519871056
36.6211 78.5005669970535
38.0859 79.49645588575972
39.5508 80.2612689339285
41.0156 80.98765911428202
42.4805 81.52599064211223
43.9453 81.97059812681198
45.4102 82.39271912777889
46.875 82.74458398558042
48.3398 83.09127498397046
51.2695 83.63808536617786
52.7344 83.84761225449255
54.1992 84.0448803654671
55.6641 84.25061053778424
58.5938 84.65295721982636
60.0586 84.84254181809948
62.9883 85.27487073623622
64.4531 85.4074758316749
67.3828 85.6616056273101
68.8477 85.79103392174498
71.7773 86.02867100202808
74.707 86.22696150500447
77.6367 86.31899563048813
79.1016 86.34919640048919
82.0312 86.52930965205395
84.9609 86.658241280046
87.8906 86.8035703595603
90.8203 86.98994811321947
95.2148 87.0559744079002
98.1445 87.01910808857278
101.074 86.99178995492908
105.469 87.07056985621912
108.398 87.01895073651315
112.793 86.9116070025178
117.188 86.7874170305859
120.117 86.70291698866687
124.512 86.66453075244357
128.906 86.52747861846716
133.301 86.32033056297841
139.16 86.29649388357302
143.555 85.91660082936535
147.949 85.85061821016298
153.809 85.66580991952694
159.668 85.44073268542503
165.527 85.60060374586891
171.387 85.89114000293851
177.246 86.11701814627135
183.105 86.20008239027443
188.965 86.8863676088018
196.289 87.91773567228228
203.613 87.97998603341662
210.938 87.93246831239681
218.262 88.59113129589271
225.586 88.41874575506
232.91 88.39194376637863
241.699 89.5271817410085
250.488 89.19239883936949
259.277 88.91845731487491
268.066 88.16475216817163
276.855 87.9151019409095
287.109 90.41703076993115
297.363 89.90514127356329
307.617 90.24228792998578
319.336 90.1174027723189
329.59 89.73841000877161
341.309 89.08415930294065
353.027 89.38394303409761
366.211 89.56848865324403
379.395 89.6931781648918
392.578 90.23486627022372
405.762 90.18136122127689
420.41 90.25015002647423
435.059 89.23810730764053
451.172 88.84335498948694
465.82 88.59319232168028
483.398 88.69750106625932
499.512 90.00840051321121
517.09 88.90027327989453
536.133 88.94399318727612
555.176 88.65755540590429
574.219 87.92683142978039
594.727 88.70812275768581
615.234 89.25004246693219
637.207 89.86761502012662
659.18 90.68909828344616
682.617 90.8411669204565
707.52 91.7279188300955
732.422 91.03067137299207
757.324 90.78557182645501
785.156 91.28873595168601
811.523 89.7900257131598
840.82 89.02766477101743
870.117 88.58392180465475
900.879 87.95761741562112
933.105 87.05095094435278
965.332 86.99064311849212
1000.49 85.93636152148532
1035.64 85.67181507244051
1072.27 85.98816745618218
1108.89 87.24202102206989
1148.44 86.198761503172
1189.45 86.70268539004248
1230.47 85.43273506292837
1274.41 84.60662657319554
1319.82 85.27459909716374
1366.7 85.05784179250831
1413.57 85.11005665995297
1463.38 84.36541897112735
1516.11 83.79565351158
1568.85 83.03023299008693
1624.51 84.43000279783178
1681.64 84.32273513550753
1741.7 83.50827298876645
1803.22 83.85008345350126
1866.21 82.86014448065538
1932.13 83.66501729897664
1999.51 82.66407380842028
2069.82 82.9891596067827
2143.07 83.16377011402182
2219.24 83.46672159953754
2296.88 83.80095153115234
2378.91 83.91099866107511
2462.4 84.06939859655613
2548.83 83.92115981282576
2639.65 83.88812919731274
2731.93 82.97272994032072
2828.61 81.56125683701138
2928.22 80.71120486673009
3030.76 78.69372585682989
3137.7 77.6204243918842
3249.02 77.02900905550824
3363.28 76.44840386592236
3481.93 76.59713970782126
3604.98 77.38935162947173
3732.42 78.67888646045878
3864.26 80.60024675277778
4000.49 82.14735961432989
4141.11 83.06542910323063
4287.6 85.31403656799016
4438.48 86.53437688529773
4595.21 87.27286364927677
4756.35 87.82443584045703
4924.8 88.4426128080559
5097.66 89.16910969947952
5277.83 89.7360799710329
5463.87 90.12313721164952
5657.23 90.34015420543564
5856.45 90.38990526254503
6062.99 90.20234295538376
6276.86 90.30416107437455
6498.05 90.58194506649191
6726.56 90.81489338804444
6963.87 90.57500552306028
7209.96 90.29891419460465
7464.84 89.90097355625439
7727.05 89.92202651222048
7999.51 89.72893549120101
8282.23 89.73833333511169
8573.73 89.91284423283957
8876.95 89.74532683811928
9188.96 89.94087352368854
9514.16 90.05647324072906
9849.61 89.88798083453659
10196.8 89.67558614877554
10555.7 89.50892674259792
10927.7 89.13358716437709
11313.0 88.58231328385169
11712.9 88.0425333699849
12126.0 87.21256081239879
12553.7 86.82184648790086
12996.1 86.50319881045306
13454.6 86.26173917326976
13929.2 86.29151633633742
14419.9 86.26115167107046
14928.2 86.38170967923803
15455.6 86.56223668070778
16000.5 86.7869313418728
16564.5 86.69467704593018
17148.9 86.62852509106584
17752.4 86.7782650806631
18379.4 87.27004981844665
19026.9 87.47268389484817
19697.8 87.38092736120687
19999.5 87.33168000687927
