Freq "Front Wall Bounce"
20.5078 50.06150158712363
21.9727 56.09669682940957
23.4375 59.57815315905394
24.9023 60.730312059729684
26.3672 62.828238988366294
27.832 65.52704725178377
29.2969 67.40836256318265
30.7617 69.59054205857669
32.2266 71.37606531679558
33.6914 73.00118646619472
35.1562 74.4407083739624
36.6211 75.64461665695585
38.0859 76.63950848160108
39.5508 77.4073004508879
41.0156 78.13465577561615
42.4805 78.68088332132406
43.9453 79.12472419379588
45.4102 79.54789171506624
46.875 79.91041017593692
48.3398 80.2634750876507
51.2695 80.821764745882
52.7344 81.03442011434316
54.1992 81.23787572661494
55.6641 81.45484229146031
58.5938 81.86946771587587
60.0586 82.06773889516376
62.9883 82.50234133358525
64.4531 82.64922678696509
67.3828 82.91014167533557
68.8477 83.03840810105176
71.7773 83.2714522506363
74.707 83.46509520125826
77.6367 83.56724609323426
79.1016 83.60894530459555
82.0312 83.8042756828019
84.9609 83.94129796802174
87.8906 84.0960008906343
90.8203 84.2603982906791
95.2148 84.32034927034316
98.1445 84.28085131774147
101.074 84.27228833250352
105.469 84.33648022462232
108.398 84.23285248343426
112.793 84.07213849221891
117.188 83.93775093869819
120.117 83.85245973732431
124.512 83.79389350757874
128.906 83.61386803819967
133.301 83.4055305377757
139.16 83.32317215616378
143.555 82.9600068329782
147.949 82.97702918119776
153.809 82.77950390214139
159.668 82.78702297857345
165.527 83.1495653743489
171.387 83.6168056482246
177.246 83.99511636344216
183.105 84.44920381895331
188.965 85.32569091739389
196.289 86.18697820271599
203.613 86.12487261677586
210.938 86.42496273037617
218.262 87.09475263397428
225.586 86.8354355147286
232.91 86.92221447718694
241.699 87.68955855203545
250.488 87.17720583804153
259.277 87.06453059782807
268.066 86.4510523270411
276.855 86.88056226484605
287.109 88.60408658773915
297.363 88.30884261742361
307.617 88.31385628237267
319.336 87.73637495331083
329.59 87.21635133758387
341.309 87.14783038926039
353.027 87.68525047886699
366.211 87.58609442350051
379.395 88.22684621311096
392.578 88.49703136344043
405.762 87.99867819236634
420.41 87.84988548942296
435.059 87.08240007245698
451.172 87.36568860621625
465.82 87.98665848523133
483.398 88.70434261102706
499.512 88.72056122856952
517.09 87.87600748537535
536.133 87.65463656378978
555.176 88.3103074779516
574.219 87.57949153991315
594.727 87.64716705199652
615.234 88.36525049566391
637.207 89.66993981922674
659.18 90.33323080850418
682.617 90.62003004995367
707.52 90.52215044046572
732.422 90.95487327906964
757.324 91.31754715781553
785.156 90.06877092416111
811.523 89.02621051828653
840.82 89.45839608499519
870.117 89.03847427132712
900.879 88.64206511732384
933.105 88.71636696209394
965.332 88.5815730874495
1000.49 88.7438990487693
1035.64 88.39637173768593
1072.27 88.88995381493316
1108.89 89.08976962481664
1148.44 89.39723082212723
1189.45 88.63417043302034
1230.47 89.32889629937979
1274.41 89.47606782113361
1319.82 89.93714895553316
1366.7 89.92163440764307
1413.57 89.59492888484391
1463.38 89.99075286622512
1516.11 89.61690390871419
1568.85 89.85309370116813
1624.51 89.88167906106013
1681.64 90.21485217135108
1741.7 89.64164807166375
1803.22 88.95095292453541
1866.21 89.34017535865654
1932.13 89.91225287172915
1999.51 89.64075902674557
2069.82 88.66191126659471
2143.07 87.94768910226514
2219.24 88.65354025575199
2296.88 88.87490162268563
2378.91 88.18174900249592
2462.4 88.0021807322917
2548.83 88.65683905244678
2639.65 88.60774303425562
2731.93 88.3485480533633
2828.61 89.05042176242559
2928.22 88.39870387070144
3030.76 87.88962518019424
3137.7 88.05041468795356
3249.02 88.28285136151271
3363.28 87.56714933786135
3481.93 87.64079118845181
3604.98 87.765135336618
3732.42 88.10950060937212
3864.26 88.5196789821383
4000.49 88.67447450538704
4141.11 89.01889756232075
4287.6 88.71354746900674
4438.48 88.87612782802266
4595.21 89.11735711786952
4756.35 89.57457191038918
4924.8 89.5133901340318
5097.66 89.42965405816095
5277.83 88.76579824760437
5463.87 87.73453230661096
5657.23 87.29661481120839
5856.45 86.37819962209984
6062.99 87.35298883307087
6276.86 88.16971453103046
6498.05 89.3452805584316
6726.56 89.60998518400514
6963.87 90.26375412829523
7209.96 89.60370832614629
7464.84 89.34415517109862
7727.05 88.73332658049426
7999.51 88.56463662093141
8282.23 89.3370817074674
8573.73 89.4480972046125
8876.95 89.65892360193641
9188.96 89.56144732024374
9514.16 88.68405894409436
9849.61 87.97111593065692
10196.8 87.6518222081065
10555.7 87.31269323965401
10927.7 87.47044363447615
11313.0 87.61985365878802
11712.9 87.2238780396463
12126.0 86.83439086842574
12553.7 86.92627206282168
12996.1 86.8046903362647
13454.6 86.6210404388984
13929.2 86.39909506100386
14419.9 86.38586206655519
14928.2 86.59395445130394
15455.6 86.82525569135963
16000.5 87.0816760427481
16564.5 87.26400535383839
17148.9 87.49407843791724
17752.4 87.99287433368663
18379.4 88.32503093669384
19026.9 88.71230735869871
19697.8 88.86642888295094
19999.5 88.66053342537049
