Freq "Rear Wall Bounce"
20.5078 60.27988918298324
21.9727 64.71526128619759
23.4375 64.836913740051
24.9023 66.36208165241369
26.3672 68.0361345321708
27.832 69.95098859002549
29.2969 71.46339972363332
30.7617 73.26554712788251
32.2266 74.68638069631548
33.6914 76.05211361997247
35.1562 77.2380048503822
36.6211 78.23889502229066
38.0859 79.04674124542429
39.5508 79.67359226581806
41.0156 80.23761043111968
42.4805 80.66043300009687
43.9453 80.99098653839307
45.4102 81.33195990458168
46.875 81.63574918231299
48.3398 81.90268582230729
51.2695 82.26369663023208
52.7344 82.43567616362114
54.1992 82.61181822693557
55.6641 82.76377442956131
58.5938 83.06521813450311
60.0586 83.23123219690943
62.9883 83.56592858449336
64.4531 83.62228147406016
67.3828 83.75963900419843
68.8477 83.85541761525043
71.7773 84.12348062162522
74.707 84.28397394685668
77.6367 84.38136425939801
79.1016 84.39452189106983
82.0312 84.48809735487863
84.9609 84.54041846814202
87.8906 84.65817207830872
90.8203 84.80254631154324
95.2148 84.89286424628604
98.1445 84.90011304534782
101.074 84.89147618595423
105.469 84.91106683852593
108.398 84.8270790114882
112.793 84.71111631000424
117.188 84.58203194417585
120.117 84.51832609670508
124.512 84.48931844861129
128.906 84.44852441317622
133.301 84.43689763611582
139.16 84.43771399293065
143.555 84.3933430602416
147.949 84.58135454403349
153.809 84.61925581733969
159.668 84.41969077555905
165.527 84.45615573657572
171.387 84.73084698435153
177.246 84.6987089056278
183.105 84.37354844212923
188.965 84.49481226253626
196.289 84.79947817827794
203.613 84.6695415576326
210.938 84.54857691416636
218.262 84.2657241691912
225.586 84.79698132384698
232.91 84.61439456243843
241.699 84.72322317893055
250.488 84.12370034812433
259.277 85.04393142279591
268.066 85.11877813301406
276.855 85.15176042643945
287.109 85.04825715768968
297.363 83.46615146115184
307.617 84.20305679977828
319.336 84.41534357196268
329.59 84.15486838197522
341.309 83.58903162482297
353.027 84.06248493571373
366.211 83.77482758315188
379.395 83.93121489925997
392.578 84.49469781404892
405.762 83.14129062151844
420.41 82.64627992637544
435.059 83.85705342102999
451.172 84.04587275444243
465.82 83.79627796259058
483.398 82.88383024023787
499.512 83.0099902305649
517.09 83.58650147205036
536.133 83.90719213291044
555.176 81.93534735889419
574.219 82.16510301633902
594.727 81.38819504964128
615.234 83.22324223243929
637.207 84.01417478612318
659.18 83.7174246960014
682.617 83.73645775247945
707.52 83.76794213604389
732.422 84.63226317617107
757.324 83.36425394012915
785.156 82.465909176224
811.523 81.82725500332756
840.82 81.41081843755502
870.117 80.88586805367959
900.879 80.37776923664676
933.105 79.5325694604366
965.332 79.45782274151541
1000.49 79.94518707900924
1035.64 80.25364054203375
1072.27 80.22718647126477
1108.89 79.8280781291463
1148.44 78.98661956650051
1189.45 78.77998298732783
1230.47 78.50499929651708
1274.41 78.237216259851
1319.82 78.35701873884015
1366.7 77.79407624889429
1413.57 77.89277210367098
1463.38 77.70567140301088
1516.11 76.4468698333378
1568.85 76.9675388516555
1624.51 76.6162306651917
1681.64 76.78033173011536
1741.7 75.73067669755181
1803.22 75.57966925125744
1866.21 74.80683450165564
1932.13 74.96459102761771
1999.51 74.85074611806665
2069.82 73.83838863963882
2143.07 73.78241091263696
2219.24 72.92783572390788
2296.88 73.02904960505109
2378.91 73.04760545702644
2462.4 72.5278181705667
2548.83 72.86996817549088
2639.65 72.63775716420257
2731.93 71.85403754482843
2828.61 72.86066739998468
2928.22 72.48243148902786
3030.76 71.50804213420088
3137.7 71.56221842405573
3249.02 71.70348569883883
3363.28 71.39967840948374
3481.93 70.72393865297447
3604.98 70.87960378910593
3732.42 71.38569377259238
3864.26 71.03342818603569
4000.49 71.21738437039913
4141.11 71.97239839010724
4287.6 73.45675514696264
4438.48 73.37522258640368
4595.21 74.42179665359232
4756.35 73.75213905250192
4924.8 73.96697666728384
5097.66 72.88578696524742
5277.83 72.79363639685451
5463.87 72.97774921298468
5657.23 73.46437540496046
5856.45 74.83931241086627
6062.99 75.2419901253578
6276.86 75.36217971022087
6498.05 74.64661468300362
6726.56 73.11034834181429
6963.87 71.55619636654309
7209.96 70.55636849420318
7464.84 70.82034459197435
7727.05 70.64953633277129
7999.51 70.96178256252334
8282.23 69.47523560683933
8573.73 68.79784941588319
8876.95 69.39736139011642
9188.96 69.15331055902651
9514.16 68.78959706453735
9849.61 68.77754481656842
10196.8 68.36929793559652
10555.7 67.84188674277978
10927.7 68.00308509879339
11313.0 67.36839044799224
11712.9 66.75184785756097
12126.0 65.99593247469117
12553.7 65.17322405381104
12996.1 64.55590693507436
13454.6 63.243398592810095
13929.2 62.85025889519922
14419.9 61.97046421794788
14928.2 60.42739862261136
15455.6 60.06587618267976
16000.5 59.76560396175013
16564.5 59.70366283605087
17148.9 59.55129864569163
17752.4 59.565922400595625
18379.4 58.935838533834996
19026.9 58.03860080347435
19697.8 56.65883884257072
19999.5 55.42374215092114
