Freq "Total Early Reflection"
20.5078 54.744069897155626
21.9727 60.04963575961345
23.4375 61.304300205839596
24.9023 62.75782971047563
26.3672 64.6259338074697
27.832 66.99604527842027
29.2969 68.71800874757601
30.7617 70.76587233043256
32.2266 72.4102115486888
33.6914 73.94381481572036
35.1562 75.29531525771189
36.6211 76.43053173558592
38.0859 77.36487968816668
39.5508 78.0872155667837
41.0156 78.76231594579146
42.4805 79.27026402533845
43.9453 79.67865595228488
45.4102 80.0773237669291
46.875 80.42389926536372
48.3398 80.75130361639934
51.2695 81.2487803010777
52.7344 81.45048527775803
54.1992 81.64775733780719
55.6641 81.84475083779718
58.5938 82.22441229612447
60.0586 82.41337638760531
62.9883 82.81709667185542
64.4531 82.93733163028666
67.3828 83.15856689044709
68.8477 83.27761494609979
71.7773 83.5236868202751
74.707 83.70837147451786
77.6367 83.80968293615078
79.1016 83.84144074906108
82.0312 84.00335968424015
84.9609 84.11566283810429
87.8906 84.2547409813014
90.8203 84.41171104173145
95.2148 84.48233277733603
98.1445 84.4554530750093
101.074 84.44218873163395
105.469 84.4837880025654
108.398 84.38929943273884
112.793 84.24295033289629
117.188 84.10668025940944
120.117 84.0217443132865
124.512 83.96113755790714
128.906 83.82850622185056
133.301 83.68139852341436
139.16 83.60074352432746
143.555 83.35352089305378
147.949 83.38833166677134
153.809 83.25240433412901
159.668 83.13335139146737
165.527 83.30298535075777
171.387 83.66328298606552
177.246 83.86931723204322
183.105 84.0158072868934
188.965 84.64654376635598
196.289 85.37833197478234
203.613 85.41655564955619
210.938 85.55541732685761
218.262 86.03041837980994
225.586 85.91214660083395
232.91 85.92776159788413
241.699 86.58758225468978
250.488 86.20140612494532
259.277 86.22411278867175
268.066 85.71817123220812
276.855 85.74829819917751
287.109 87.16158965300089
297.363 86.81697488205369
307.617 86.99263075589825
319.336 86.67883740578593
329.59 86.26828555628241
341.309 85.99082909007203
353.027 86.36495282362587
366.211 86.3187955150292
379.395 86.74947683677136
392.578 86.99962224440328
405.762 86.50634665896256
420.41 86.48583092750614
435.059 86.0497355683123
451.172 85.94883620947364
465.82 86.01526150360668
483.398 86.29917966164058
499.512 86.81788822811315
517.09 86.12027864324881
536.133 85.94107365052439
555.176 85.7452050769966
574.219 85.16937722560101
594.727 85.19125544556573
615.234 86.18759006467991
637.207 87.00972605210283
659.18 87.45095826606088
682.617 87.73061323929788
707.52 87.88256444274728
732.422 87.89778649386729
757.324 87.86045674048212
785.156 87.2651238172044
811.523 86.11513671014927
840.82 86.03662809515356
870.117 85.68015557200421
900.879 85.16875207135628
933.105 84.94117692960921
965.332 84.67890927984337
1000.49 84.59755850745134
1035.64 84.6381298228829
1072.27 85.00123082039819
1108.89 85.23304656942692
1148.44 85.02079677234063
1189.45 84.3921882246329
1230.47 84.80482798325212
1274.41 84.75626448113287
1319.82 85.3559662773904
1366.7 85.24022015264131
1413.57 85.04634850057192
1463.38 85.39486606328842
1516.11 85.0615271655334
1568.85 85.1169137795929
1624.51 85.52046674271644
1681.64 85.61523678975837
1741.7 85.25934535907118
1803.22 84.85658340770476
1866.21 85.00887377988283
1932.13 85.38839996089303
1999.51 85.07801420134149
2069.82 84.49980573560315
2143.07 83.88115895264227
2219.24 84.24379178538311
2296.88 84.30246503736527
2378.91 83.91998710351594
2462.4 83.6039949506455
2548.83 84.04359814481582
2639.65 83.96532601203732
2731.93 83.65212316344643
2828.61 84.19020484351283
2928.22 83.57567405108284
3030.76 83.07948530490587
3137.7 83.34680686397867
3249.02 83.54495885920186
3363.28 82.95423338817788
3481.93 82.98544018113073
3604.98 83.06652609524922
3732.42 83.48213564553211
3864.26 83.6616262638584
4000.49 83.86492172267415
4141.11 84.32489982370706
4287.6 84.5495120657528
4438.48 85.02738973457832
4595.21 85.40743820565928
4756.35 85.87646289934834
4924.8 85.83237315264121
5097.66 86.10331609267676
5277.83 85.87785764857999
5463.87 85.63660541408653
5657.23 85.57691254948215
5856.45 85.44505488000804
6062.99 85.90900906119225
6276.86 86.27005412554459
6498.05 86.8439968434647
6726.56 86.8979626686404
6963.87 87.06701834209797
7209.96 86.48965323453274
7464.84 86.33864552875526
7727.05 86.02319301090141
7999.51 85.86501949561458
8282.23 86.14755792413825
8573.73 86.11107670148944
8876.95 86.05329828572376
9188.96 86.00434886126992
9514.16 85.58715245000128
9849.61 85.10004366337436
10196.8 84.78945385745466
10555.7 84.53669759741994
10927.7 84.35347894426069
11313.0 84.15658993020871
11712.9 83.77272033631151
12126.0 83.18724067841747
12553.7 83.07864090590832
12996.1 82.90762762885512
13454.6 82.67430550652638
13929.2 82.53078950887168
14419.9 82.42108015969178
14928.2 82.50917778637239
15455.6 82.57674474352278
16000.5 82.65630293583995
16564.5 82.70505182489492
17148.9 82.8248421163344
17752.4 83.14199477247921
18379.4 83.4039162221717
19026.9 83.6219642262822
19697.8 83.61164430630274
19999.5 83.42975470709654
