Freq "Estimated In-Room Response"
20.5078 46.60651424987681
21.9727 47.80936280914865
23.4375 48.6897852279083
24.9023 49.58892603871824
26.3672 51.01529223968457
27.832 52.50734483541372
29.2969 53.514281413054775
30.7617 54.821399498543215
32.2266 56.42307559813703
33.6914 57.342569563612315
35.1562 58.703050308591614
36.6211 60.28397102736115
38.0859 61.3945213599835
39.5508 62.690736956374465
41.0156 63.84559069215773
42.4805 65.18341870099334
43.9453 66.436627443411
45.4102 67.5973703383501
46.875 68.85122277572579
48.3398 69.88646293793106
51.2695 72.06831895273938
52.7344 73.16281543538494
54.1992 74.1851520464005
55.6641 75.12387871995483
58.5938 76.82788648650562
60.0586 77.61992068622794
62.9883 78.9629539130493
64.4531 79.46393347192105
67.3828 80.21979003316024
68.8477 80.47551397528976
71.7773 80.95835833403352
74.707 81.22421946947021
77.6367 81.30783395834105
79.1016 81.34108885286676
82.0312 81.42717330172682
84.9609 81.44825546083992
87.8906 81.42467351693783
90.8203 81.4643742528736
95.2148 81.51559655913174
98.1445 81.49428514290351
101.074 81.46375588668255
105.469 81.55718725155849
108.398 81.67516620867055
112.793 81.92837690376702
117.188 81.96524771204376
120.117 82.06604649230822
124.512 82.16511495859125
128.906 82.25708487910155
133.301 82.33840145145575
139.16 82.47565881440433
143.555 82.57262902377876
147.949 82.62545200044727
153.809 82.72525013691775
159.668 82.85531253900562
165.527 83.09008231112995
171.387 83.15701700962789
177.246 83.24881048885811
183.105 83.19341151890082
188.965 83.2282120017852
196.289 83.35509568663129
203.613 83.30815024020238
210.938 83.47600785320137
218.262 83.45681811213306
225.586 83.49258563662126
232.91 83.47936375745951
241.699 83.41448508451303
250.488 83.35494267953912
259.277 83.63001678290883
268.066 83.45166919330656
276.855 83.3299469337881
287.109 83.40778577957231
297.363 83.30354998146827
307.617 83.19040854226829
319.336 82.54449744757663
329.59 82.8742732617366
341.309 83.03369850748966
353.027 82.6986666426257
366.211 83.19965441736358
379.395 83.67131829867448
392.578 83.3830646012727
405.762 83.11300241949819
420.41 83.35801284011316
435.059 82.80344919602784
451.172 83.1227529306599
465.82 82.915206066647
483.398 82.9800480928708
499.512 82.63963005037209
517.09 82.87815395521032
536.133 82.23924840086688
555.176 82.36777252889358
574.219 82.68410403938643
594.727 81.9737105768996
615.234 81.99644013068833
637.207 82.5272210674468
659.18 82.66371257275826
682.617 83.136916684928
707.52 83.44711411906569
732.422 83.11178031815484
757.324 82.50354338591976
785.156 82.67078183640962
811.523 81.9805718058268
840.82 82.37624386253256
870.117 83.30822960033004
900.879 84.38793361107084
933.105 84.73345934441993
965.332 84.75694690377658
1000.49 84.27963439068928
1035.64 84.164775569238
1072.27 83.79610571497206
1108.89 83.9051988713413
1148.44 83.64646202565986
1189.45 83.54196878120403
1230.47 83.78446712903668
1274.41 84.71749025146863
1319.82 85.43658942164926
1366.7 85.73909347030798
1413.57 85.46017236236968
1463.38 84.19094440707649
1516.11 83.46124835240671
1568.85 82.58652137354328
1624.51 82.34412385239689
1681.64 82.11967509969632
1741.7 82.31801293608207
1803.22 82.14627633326769
1866.21 81.69025580861236
1932.13 81.29450832889164
1999.51 81.09355589926874
2069.82 80.33429402751638
2143.07 80.522488831685
2219.24 80.50996016970181
2296.88 80.149979943008
2378.91 80.21622570653493
2462.4 80.91036106147733
2548.83 81.88044251712398
2639.65 82.56970554552056
2731.93 82.25791832288378
2828.61 81.8140731399538
2928.22 81.38737999884673
3030.76 80.91411480417308
3137.7 80.78638886676612
3249.02 80.91414457359379
3363.28 80.95481794518936
3481.93 81.07705843507681
3604.98 80.92149027397942
3732.42 80.63924717456199
3864.26 80.8769771551924
4000.49 80.52558043716918
4141.11 81.2822875338578
4287.6 82.17308298545306
4438.48 83.14084283149641
4595.21 83.52734870280678
4756.35 82.82353181259275
4924.8 81.1214183472572
5097.66 80.30742435076759
5277.83 80.52541020437792
5463.87 80.88070038431623
5657.23 80.94795653157458
5856.45 81.1995938112063
6062.99 81.44799251604219
6276.86 81.29497315534998
6498.05 81.04073639483025
6726.56 81.5819227513336
6963.87 81.6321389585435
7209.96 81.89764421498283
7464.84 81.63232281185515
7727.05 81.26119859751974
7999.51 81.4974713656972
8282.23 81.02247793781977
8573.73 80.69700917883607
8876.95 80.17943287550017
9188.96 80.17450696664456
9514.16 79.91271983715124
9849.61 79.5792973559674
10196.8 79.3582190000522
10555.7 79.20446415063279
10927.7 78.92451568201386
11313.0 79.21671255335681
11712.9 79.84863375627255
12126.0 80.1030280152376
12553.7 80.2070246455854
12996.1 80.17136365236162
13454.6 79.89570013492617
13929.2 79.47565583377853
14419.9 79.28551617132773
14928.2 79.12188114668326
15455.6 79.36959217414592
16000.5 79.92183273532865
16564.5 79.97442233781054
17148.9 79.89562023532342
17752.4 80.01809473696781
18379.4 79.67056496205207
19026.9 79.51318631077903
19697.8 79.42201526907857
19999.5 79.48065158970381
