Freq,On Axis,Listening Window,Sound Power,Early Reflections,Early Reflections DI,Sound Power DI,DI offset
20.0,53.632999999999996,53.6333303557321,53.64352722331638,53.618775932302285,40.014554423429814,39.989803132415716,40
20.2909,53.790000000000006,53.79021756326513,53.80041417234311,53.775775932302295,40.014441630962835,39.98980339092202,40
20.586,54.016000000000005,54.01621756326513,54.02624016476163,54.001573466510266,40.014644096754864,39.9899773985035,40
20.8855,54.3,54.300108094250575,54.310026646792736,54.285377928236315,40.01473016601426,39.99008144745784,40
21.1893,54.588999999999984,54.58921756326514,54.599224279470846,54.57457346651027,40.014644096754864,39.98999328379429,40
21.4975,54.89999999999999,54.900330355732095,54.91052722331638,54.88577593230228,40.014554423429814,39.989803132415716,40
21.8102,55.24900000000001,55.24910809425056,55.25902664679272,55.2343779282363,40.01473016601426,39.99008144745784,40
22.1274,55.61399999999999,55.61421756326514,55.62444098357166,55.59977593230228,40.014441630962864,39.98977657969348,40
22.4492,56.07100000000001,56.07110809425056,56.08102664679272,56.0563779282363,40.01473016601426,39.99008144745784,40
22.7758,56.581,56.58110809425055,56.59102664679271,56.56637792823632,40.01473016601423,39.99008144745784,40
23.1071,57.17100000000001,57.17133035573211,57.18149200125514,57.156775932302295,40.014554423429814,39.98983835447697,40
23.4432,57.85799999999999,57.858217563265114,57.868405461625585,57.84377593230228,40.014441630962835,39.98981210163953,40
23.7841,58.643000000000015,58.64321756326514,58.65340546162561,58.628775932302304,40.014441630962835,39.98981210163953,40
24.1301,59.489999999999995,59.49021756326512,59.500319134805,59.47564426073912,40.014573302526,39.98989842846012,40
24.4811,60.414,60.41410809425055,60.42402664679274,60.39937792823629,40.01473016601426,39.99008144745781,40
24.8372,61.396,61.396330355732104,61.40649200125513,61.38177593230229,40.014554423429814,39.98983835447697,40
25.1984,62.428,62.42821756326512,62.43840546162558,62.41377593230227,40.01444163096285,39.989812101639544,40
25.5649,63.44199999999999,63.44221756326512,63.45208592693268,63.427441317802476,40.01477624546264,39.990131636332436,40
25.9368,64.487,64.48721756326512,64.49748238540386,64.47277593230227,40.01444163096285,39.98973517786126,40
26.3141,65.482,65.48221756326512,65.49231913480499,65.46764426073912,40.014573302526,39.98989842846014,40
26.6968,66.443,66.44321756326512,66.45308592693269,66.42844131780248,40.01477624546264,39.990131636332436,40
27.0851,67.283,67.28310809425055,67.29302664679273,67.26837792823629,40.01473016601426,39.990081447457825,40
27.4791,67.982,67.98221756326512,67.99225604999431,67.96764426073912,40.014573302526,39.98996151327081,40
27.8788,68.557,68.55721756326514,68.5674054616256,68.54277593230229,40.01444163096285,39.989812101639544,40
28.2843,69.025,69.02510809425057,69.03504814640901,69.0103779282363,40.014730166014274,39.99005994784156,40
28.6957,69.416,69.41610809425056,69.42602664679272,69.4013779282363,40.01473016601426,39.99008144745784,40
29.1131,69.874,69.87410809425056,69.88402664679272,69.8593779282363,40.01473016601426,39.99008144745784,40
29.5365,70.44700000000002,70.44733035573212,70.45752722331639,70.43277593230229,40.01455442342983,39.98980313241573,40
29.9661,71.186,71.18633035573211,71.19652722331638,71.1717759323023,40.014554423429814,39.98980313241573,40
30.402,72.027,72.02710809425056,72.03702664679271,72.0123779282363,40.01473016601426,39.990081447457854,40
30.8442,72.94700000000002,72.94721756326514,72.95744098357167,72.93277593230229,40.01444163096285,39.98977657969347,40
31.2929,73.859,73.85910809425056,73.86902664679273,73.8443779282363,40.01473016601426,39.990081447457825,40
31.748,74.688,74.68821756326513,74.6981623956791,74.6735035781438,40.01471398512133,39.99005516758602,40
32.2098,75.522,75.52221756326514,75.53235345763831,75.50771317210695,40.0145043911582,39.989864105626836,40
32.6783,76.27899999999998,76.27933035573209,76.28949200125514,76.26477593230227,40.014554423429814,39.989838354476944,40
33.1536,76.936,76.93610809425057,76.94604814640901,76.9213779282363,40.014730166014274,39.99005994784156,40
33.6359,77.513,77.51321756326514,77.5230859269327,77.49844131780249,40.014776245462656,39.99013163633245,40
34.1251,77.966,77.96621756326513,77.9760859269327,77.95144131780248,40.014776245462656,39.990131636332436,40
34.6215,78.34500000000001,78.34521756326514,78.3554054616256,78.33077593230229,40.01444163096285,39.989812101639544,40
35.125,78.675,78.6753303557321,78.68549200125513,78.66077593230229,40.014554423429814,39.98983835447697,40
35.6359,78.992,78.99210809425057,79.00202664679271,78.97737792823631,40.01473016601426,39.990081447457854,40
36.1543,79.277,79.2773303557321,79.28752722331639,79.26277593230229,40.014554423429814,39.989803132415716,40
36.6802,79.54099999999998,79.54121756326512,79.55108592693269,79.52644131780247,40.014776245462656,39.990131636332436,40
37.2137,79.758,79.75821756326512,79.76767393020893,79.74339264657182,40.0148249166933,39.99054363305619,40
37.755,79.924,79.92421756326513,79.93349918377196,79.9093788987166,40.014838664548535,39.990718379493174,40
38.3041,80.052,80.05221756326513,80.06047366544522,80.03672014904326,40.01549741422187,39.991743897819916,40
38.8613,80.14899999999999,80.14866368929462,80.15574838968418,80.13249129896688,40.01617239032774,39.992915299610445,40
39.4265,80.223,80.22277316951138,80.22862463774935,80.20587391816397,40.01689925134741,39.994148531762036,40
40.0,80.281,80.28099537207237,80.28576307373221,80.26363310200246,40.01736227006991,39.995232298340156,40
40.5818,80.339,80.33877316951138,80.34192645352839,80.32060235807559,40.018170811435795,39.996846715983,40
41.1721,80.40000000000002,80.39955100674311,80.40084408343245,80.38043432143665,40.01911668530646,39.998706923310664,40
41.771,80.469,80.46855100674311,80.46810093758477,80.4485074943254,40.020043512417715,40.00045006915835,40
42.3785,80.542,80.5407749476073,80.53828561152757,80.51970443987217,40.02107050773513,40.002489336079734,40
42.9949,80.619,80.61755265769875,80.61254054509205,80.59510247227877,40.022450185419984,40.00501211260671,40
43.6203,80.69500000000001,80.69355283608026,80.68619898245684,80.66992714432195,40.02362569175831,40.007353853623414,40
44.2548,80.778,80.7769972012459,80.76655279803639,80.75171509049123,40.025282110754674,40.01044440320952,40
44.8985,80.856,80.85499743079524,80.84173629108444,80.82821122858296,40.02678620221228,40.01326113971079,40
45.5515,80.94499999999998,80.94355304070487,80.92704142862887,80.9153097487241,40.02824329198077,40.016511612076,40
46.2141,81.022,81.02033086667538,81.00076645065386,80.99040112422641,40.02992974244897,40.019564416021524,40
46.8863,81.107,81.1052183541298,81.08221551407594,81.07336672378811,40.03185163034169,40.02300284005386,40
47.5683,81.18,81.17744236372006,81.1506832827556,81.14371388118634,40.03372848253372,40.02675908096447,40
48.2602,81.24899999999998,81.24622000559214,81.21566149828617,81.21056203591021,40.03565796968192,40.03055850730597,40
48.9621,81.313,81.30977586781475,81.27495163635344,81.27187647269675,40.037899395118004,40.034824231461315,40
49.6743,81.377,81.37377630194855,81.33487307487236,81.3336989480765,40.04007735387205,40.03890322707619,40
50.3968,81.452,81.44844485880974,81.40531312275341,81.40624073596405,40.04220412284569,40.043131736056324,40
51.1299,81.521,81.5166656056528,81.46931131005394,81.47238400559182,40.044281600060984,40.047354295598865,40
51.8736,81.57700000000001,81.57211207108979,81.51981099463669,81.5252614451861,40.04685062590369,40.052301076453105,40
52.6281,81.636,81.63089023235895,81.57341723682072,81.5811554576522,40.04973477470675,40.057472995538234,40
53.3936,81.693,81.68789023235894,81.62575349216979,81.63585599137156,40.05203424098738,40.062136740189146,40
54.1702,81.74400000000001,81.73811500132948,81.67023248956251,81.68308665714659,40.05502834418289,40.06788251176697,40
54.9581,81.8,81.79411500132947,81.72107945711082,81.73644092014243,40.057674081187045,40.073035544218655,40
55.7575,81.85,81.84311409100088,81.7645783961414,81.78258875021766,40.06052534078323,40.07853569485948,40
56.5685,81.891,81.8836703000451,81.79964473893286,81.82034517865543,40.06332512138967,40.08402556111224,40
57.3914,81.935,81.9276703000451,81.83761524637784,81.86136228104782,40.066308018997276,40.09005505366726,40
58.2261,81.987,81.97933997383223,81.8830081392315,81.90962201945517,40.069717954377055,40.09633183460072,40
59.073,82.046,82.03767376749111,81.93496958974843,81.96474129438955,40.07293247310156,40.10270417774268,40
59.9323,82.104,82.09500763804996,81.98609344566516,82.01886762433034,40.07614001371962,40.1089141923848,40
60.804,82.157,82.1482301357871,82.03290605806306,82.0689836150903,40.0792465206968,40.11532407772404,40
61.6884,82.209,82.19934253105235,82.07740869243116,82.1165891174217,40.082753413630655,40.12193383862119,40
62.5857,82.257,82.24645497435058,82.11771619726022,82.16022726545806,40.08622770889252,40.12873877709036,40
63.496,82.294,82.2835679686007,82.14772191799726,82.19363250869743,40.08993545990327,40.13584605060345,40
64.4196,82.336,82.32567875295915,82.1825521344381,82.23199320271019,40.09368555024896,40.14312661852105,40
65.3566,82.379,82.36756879493062,82.21699198015634,82.27005537968189,40.09751341524873,40.15057681477428,40
66.3073,82.43,82.41734991126143,82.25948085438571,82.31604439806856,40.10130551319287,40.15786905687571,40
67.2717,82.483,82.4710172163306,82.30569743164679,82.36608812986842,40.10492908646218,40.1653197846838,40
68.2502,82.53600000000002,82.52268541759109,82.3495862575049,82.41376268924711,40.108922728343984,40.173099160086196,40
69.2429,82.60000000000001,82.58557568955455,82.40466299126224,82.47260732037749,40.112968369177054,40.1809126982923,40
70.2501,82.66199999999999,82.64746761244605,82.45863006751478,82.53046519263988,40.11700241980617,40.188837544931275,40
71.2719,82.721,82.70635612141047,82.50910850653702,82.58510041143884,40.12125570997162,40.19724761487345,40
72.3086,82.785,82.76946930573266,82.56407097940522,82.64410140606626,40.1253678996664,40.20539832632744,40
73.3603,82.839,82.8229166402363,82.60908667123097,82.69323870670817,40.12967793352813,40.21382996900533,40
74.4274,82.888,82.87169565825036,82.64942777069,82.7377705820078,40.13392507624256,40.22226788756036,40
75.5099,82.93400000000001,82.91569867668562,82.684786349972,82.77728938266982,40.1384092940158,40.23091232671362,40
76.6083,82.979,82.96114338588795,82.72127064166786,82.81822910496165,40.142914280926306,40.239872744220094,40
77.7226,83.01100000000001,82.99247972620118,82.74340855951014,82.84484439130821,40.14763533489297,40.24907116669104,40
78.8531,83.045,83.02637208101712,82.76869724256727,82.8744380665575,40.15193401445961,40.257674838449844,40
80.0,83.076,83.05582027683197,82.78906871930018,82.8993752903683,40.15644498646367,40.26675155753179,40
81.1636,83.112,83.0915995950442,82.81563317492014,82.93061904714986,40.16098054789434,40.275966420124064,40
82.3442,83.151,83.12982668323072,82.84394948832116,82.96365439004865,40.16617229318207,40.28587719490956,40
83.5419,83.19100000000002,83.16849586463961,82.87325032960084,82.99767063901594,40.17082522562367,40.295245535038774,40
84.757,83.233,83.21038506117513,82.90558780359916,83.03484135870221,40.17554370247292,40.30479725757597,40
85.9899,83.276,83.25272220091469,82.93790972139654,83.07202229001632,40.18069991089837,40.31481247951815,40
87.2406,83.323,83.29839162922914,82.97363074075243,83.11275079268043,40.185640836548714,40.32476088847672,40
88.5096,83.372,83.34728449249396,83.01265860480372,83.15658844095378,40.19069605154017,40.33462588769024,40
89.797,83.427,83.40162197251158,83.05711215346217,83.20616353419648,40.1954584383151,40.34450981904941,40
91.1031,83.48799999999999,83.4617365022127,83.10696842992604,83.26116120312619,40.20057529908651,40.35476807228666,40
92.4282,83.54799999999999,83.52074137759648,83.15509628911249,83.31459466752246,40.20614671007402,40.36564508848399,40
93.7726,83.607,83.5794078912547,83.20327332206756,83.3680850498637,40.21132284139101,40.376134569187144,40
95.1366,83.654,83.62585912120689,83.23935737242421,83.40928001372534,40.21657910748155,40.38650174878268,40
96.5204,83.68899999999998,83.66019719591533,83.26262417311504,83.43816378978276,40.22203340613257,40.39757302280029,40
97.9243,83.707,83.67742558375497,83.26868951407296,83.44991359274658,40.227511991008384,40.40873606968201,40
99.3486,83.71899999999998,83.68887048567431,83.26909807575105,83.45581356141093,40.23305692426338,40.41977240992327,40
100.794,83.725,83.69365597881408,83.26318189836009,83.45538932784731,40.238266650966764,40.43047408045399,40
102.26,83.74499999999999,83.71321437977377,83.27173760764641,83.46957866202702,40.243635717746756,40.44147677212736,40
103.747,83.767,83.7344396544046,83.28107547933577,83.48482236602669,40.249617288377905,40.45336417506883,40
105.256,83.8,83.7664452956367,83.30187062598952,83.51140805537966,40.25503724025704,40.46457466964718,40
106.787,83.829,83.79467433549208,83.3181693905404,83.5335692115227,40.26110512396937,40.47650494495167,40
108.34,83.847,83.81212329614334,83.32420138987614,83.54550534233219,40.26661795381115,40.487921906267204,40
109.916,83.865,83.82912924390804,83.32959877902259,83.55684908420245,40.27228015970559,40.49953046488545,40
111.515,83.873,83.83646688126537,83.32500097186508,83.5585253402756,40.27794154098977,40.511465909400286,40
113.137,83.88000000000001,83.84236120923053,83.31851526392816,83.55817920273492,40.28418200649561,40.52384594530237,40
114.783,83.88599999999998,83.84770077798265,83.31198438925641,83.55781255073471,40.28988822724794,40.53571638872624,40
116.452,83.90600000000002,83.86693054591844,83.31823682474992,83.57053964136186,40.296390904556574,40.54869372116852,40
118.146,83.938,83.89738254693384,83.33642375056884,83.59513914323612,40.302243403697716,40.560958796365,40
119.865,84.00000000000001,83.95961041318337,83.38588433726578,83.65118085763694,40.308429555546425,40.57372607591759,40
121.608,84.067,84.02584059465048,83.43929030478255,83.71124754702491,40.314593047625564,40.58655028986793,40
123.377,84.147,84.10451470466313,83.50517222700874,83.78375992900466,40.32075477565847,40.59934247765439,40
125.171,84.209,84.16540995175454,83.55323029751304,83.83844049645059,40.32696945530395,40.6121796542415,40
126.992,84.266,84.22219575844706,83.59639636687756,83.88861068803776,40.3335850704093,40.6257993915695,40
128.839,84.302,84.2570891719755,83.61845673913348,83.91740721921349,40.33968195276201,40.638632432842016,40
130.713,84.339,84.29354368562083,83.64108850706867,83.94720078920257,40.346342896418264,40.65245517855216,40
132.615,84.363,84.31622073552869,83.64996184717889,83.96322102171355,40.35299971381514,40.6662588883498,40
134.543,84.385,84.33733818377725,83.6574962229155,83.97792224659169,40.35941593718556,40.67984196086175,40
136.5,84.391,84.34179188142402,83.64785119905298,83.97572492313718,40.36606695828684,40.693940682371036,40
138.486,84.401,84.3511333827804,83.6424948319477,83.97778426194385,40.37334912083655,40.7086385508327,40
140.5,84.406,84.35536494206069,83.63270185858573,83.97546674285613,40.37989819920456,40.722663083474956,40
142.544,84.415,84.36304065926379,83.62567310277642,83.97630287653372,40.386737782730066,40.73736755648737,40
144.617,84.42400000000002,84.37172031785313,83.61940233764143,83.97784551417625,40.39387480367688,40.7523179802117,40
146.721,84.463,84.40962036248825,83.64249407031404,84.0088185318659,40.400801830622356,40.76712629217421,40
148.855,84.506,84.45085123123509,83.66834173181782,84.0427844970355,40.40806673419959,40.78250949941727,40
151.02,84.53100000000002,84.47585972867657,83.67784641706264,84.0604788364078,40.41538089226877,40.79801331161393,40
153.217,84.52,84.46353631560906,83.65010756472832,84.04105658782443,40.42247972778463,40.813428750880746,40
155.445,84.466,84.4083269937812,83.57876610225972,83.97831315450517,40.43001383927603,40.82956089152148,40
157.706,84.383,84.32489404231616,83.47873237641008,83.8869517032122,40.437942339103955,40.84616166590608,40
160.0,84.326,84.26590797843637,83.40319661577075,83.82023371075665,40.44567426767972,40.86271136266562,40
162.327,84.32,84.25947548888797,83.37955445796479,83.8056915055813,40.45378398330668,40.879921030923185,40
164.688,84.371,84.30982572072354,83.41300048985904,83.8482828133685,40.46154290735504,40.89682523086449,40
167.084,84.433,84.37017195251468,83.45593680360572,83.9004835228371,40.469688429677575,40.91423514890896,40
169.514,84.476,84.41229855395525,83.48038738944892,83.9344717971263,40.47782675682895,40.93191116450633,40
171.98,84.493,84.42786953278085,83.47725997419204,83.94133045657631,40.48653907620454,40.95060955858881,40
174.481,84.487,84.42099672475489,83.45175953124615,83.92587868588541,40.49511803886948,40.96923719350873,40
177.019,84.469,84.40145411070189,83.41342584589601,83.89784518950368,40.50360892119821,40.98802826480588,40
179.594,84.46,84.39091922617835,83.38341681090692,83.87842219018552,40.51249703599284,41.00750241527143,40
182.206,84.449,84.3791615341918,83.35131417003278,83.85717915280648,40.521982381385314,41.027847364159015,40
184.856,84.43399999999998,84.36240298136885,83.3140378102564,83.83095494670766,40.53144803466118,41.04836517111245,40
187.545,84.418,84.34563807064812,83.2767208668678,83.8049961317386,40.540641938909516,41.068917203780316,40
190.273,84.39999999999999,84.32676711596316,83.23598257774866,83.77596053503952,40.55080658092365,41.09078453821451,40
193.041,84.395,84.32001784876375,83.20706168310267,83.75907276297374,40.56094508579001,41.11295616566109,40
195.849,84.395,84.31892295013658,83.18356469326731,83.7478750739897,40.57104787614688,41.13535825686927,40
198.697,84.402,84.3247214794961,83.16584108123939,83.74306713665132,40.581654342844786,41.15888039825671,40
201.587,84.419,84.33907824100876,83.15615146675934,83.74664295740412,40.592435283604644,41.182926774249424,40
204.52,84.45,84.36954833320472,83.16199893198544,83.76586683166285,40.60368150154187,41.20754940121928,40
207.494,84.476,84.39368746326173,83.1608347763126,83.77860947734005,40.61507798592167,41.23285268694913,40
210.512,84.479,84.39517068110672,83.13586685851512,83.76809237405048,40.62707830705624,41.259303822591605,40
213.574,84.463,84.37664011267127,83.09077405185731,83.73778878079791,40.638851331873354,41.28586606081396,40
216.681,84.42400000000002,84.33601040809242,83.02223618038936,83.68458148733009,40.65142892076233,41.313774227703064,40
219.833,84.393,84.30370733094968,82.9610840914252,83.63923065900168,40.664476671947995,41.34262323952447,40
223.03,84.397,84.30574328175324,82.93349245244339,83.62816745166617,40.677575830087065,41.37225082930985,40
226.274,84.443,84.34956542096064,82.94684140575428,83.65830801777724,40.6912574031834,41.40272401520636,40
229.565,84.485,84.38992829442793,82.95576016982479,83.68471021650177,40.70521807792616,41.43416812460315,40
232.905,84.509,84.41152681577283,82.94455276935393,83.69160309907458,40.71992371669825,41.4669740464189,40
236.292,84.54,84.44012634989069,82.93936927553243,83.70524868878141,40.73487766110928,41.50075707435826,40
239.729,84.51,84.40895360826285,82.87335301968868,83.65849521225819,40.75045839600466,41.53560058857417,40
243.216,84.442,84.33788984538698,82.76627765646182,83.57148425095656,40.766405594430424,41.57161218892516,40
246.754,84.40399999999998,84.29760737660813,82.68922926847254,83.51517852437934,40.78242885222879,41.60837810813558,40
250.343,84.36,84.25155190450552,82.60489059212068,83.4522875110816,40.799264393423925,41.646661312384836,40
253.984,84.352,84.24137747705582,82.55514859082449,83.42467123529033,40.81670624176549,41.68622888623133,40
257.678,84.39800000000001,84.2842251929291,82.55720339060808,83.44971166999811,40.83451352293099,41.72702180232102,40
261.426,84.44,84.32373444686677,82.55507199424439,83.47100880009707,40.8527256467697,41.76866245262238,40
