Freq,On Axis,Listening Window,Sound Power,Early Reflections,Early Reflections DI,Sound Power DI,DI offset
22.4,44.29873417721518,43.74551446936164,39.61521519176918,42.12879840140931,51.616716067952325,54.13029927759246,50
23.0,45.69873417721519,45.08285671463557,40.9847350921973,43.461085576146075,51.62177113848949,54.09812162243827,50
23.6,46.99873417721517,46.43826245589372,42.36253456523531,44.82342199709973,51.61484045879399,54.07572789065841,50
24.0,48.398734177215175,47.78643917958817,43.70812619548116,46.14151676624812,51.644922413340055,54.078312984107015,50
25.0,49.69873417721519,49.11144208637239,45.0728091609825,47.468126556036566,51.643315530335826,54.03863292538989,50
25.8,50.99873417721517,50.426225913934104,46.42785207155313,48.79615690581298,51.630069008121126,53.99837384238097,50
26.5,52.398734177215175,51.770819224505914,47.77334803459817,50.13001743880952,51.6408017856964,53.99747118990774,50
27.2,53.69873417721519,53.1027717429229,49.130628976158874,51.45620334987066,51.646568393052235,53.97214276676402,50
28.0,54.99873417721517,54.422363407454554,50.47665185701237,52.77384078741758,51.64852262003697,53.945711550442184,50
29.0,56.29873417721518,55.74987214131687,51.816607412925265,54.07530599166168,51.67456614965519,53.933264728391606,50
30.0,57.59873417721519,57.04842892217644,53.159608953648274,55.401549024179985,51.646879897996456,53.88881996852817,50
30.7,58.99873417721517,58.422363407454554,54.523670424685605,56.731966217022034,51.69039719043252,53.89869298276895,50
31.5,60.29873417721518,59.74842892217646,55.89122172413698,58.065046242237486,51.68338267993897,53.857207198039475,50
32.5,61.59873417721519,61.08572032938298,57.248410385535465,59.40436092979482,51.68135939958816,53.837309943847515,50
33.5,62.99873417721517,62.48572032938296,58.6687656255456,60.802129434473045,51.68359089490991,53.816954703837354,50
34.5,64.39873417721518,63.84670254896423,60.07264646162821,62.17674233785007,51.66996021111416,53.77405608733602,50
35.5,65.69873417721519,65.16277922134358,61.407465696167094,63.46827312332812,51.69450609801547,53.75531352517649,50
36.5,66.8987341772152,66.32495934008648,62.59950399609846,64.65875490443855,51.66620443564793,53.72545534398802,50
37.5,67.99873417721517,67.46319099607422,63.74646966324329,65.77777057839236,51.685420417681854,53.71672133283093,50
38.7,69.09873417721518,68.59587673929084,64.93853593337161,66.92268677180266,51.673189967488184,53.65734080591923,50
40.0,70.29873417721518,69.77996020856757,66.13454779201379,68.11503020031225,51.664930008255325,53.64541241655378,50
41.2,71.3987341772152,70.87996020856758,67.30200969959586,69.24722686026261,51.63273334830497,53.577950508971725,50
42.5,72.4987341772152,72.01897467568115,68.44643212548922,70.37224232837019,51.64673234731096,53.572542550191926,50
43.7,73.59873417721519,73.04214982638587,69.47216485798441,71.3626066727735,51.67954315361237,53.56998496840146,50
45.0,74.59873417721518,74.08150390163257,70.54042173411196,72.42281112085178,51.6586927807808,53.541082167520614,50
46.2,75.59873417721518,75.05939204389054,71.54749242871378,73.40297269815052,51.65641934574002,53.51189961517676,50
47.5,76.49873417721517,75.99898809515827,72.52378028131832,74.36717926012659,51.63180883503168,53.475207813839944,50
48.7,77.39873417721519,76.89898809515827,73.44845628451617,75.27307493750051,51.62591315765776,53.450531810642104,50
50.0,78.29873417721518,77.79898809515826,74.36210533453796,76.17645908711387,51.622529008044395,53.43688276062031,50
51.5,79.09873417721518,78.63862916171212,75.24411585208874,77.03002272026495,51.608606441447165,53.39451330962338,50
53.0,79.9987341772152,79.4911859104303,76.11168190149812,77.88402912016727,51.60715679026303,53.37950400893219,50
54.5,80.79873417721518,80.32357939190128,76.96539031875747,78.72429319198373,51.59928619991754,53.358189073143805,50
56.0,81.69873417721519,81.2235793919013,77.88300881214273,79.62840321044897,51.59517618145233,53.34057057975856,50
58.0,82.4987341772152,82.04170972264924,78.74373656790002,80.47219028862726,51.569519434021984,53.29797315474923,50
60.0,83.19873417721519,82.74170972264925,79.47033523247569,81.18037078718461,51.56133893546463,53.27137449017356,50
61.5,83.8987341772152,83.42701355386004,80.15222587608133,81.85109672959194,51.57591682426809,53.274787677778704,50
63.0,84.59873417721518,84.12701355386004,80.89238275892872,82.58073278598678,51.546280767873256,53.23463079493132,50
65.0,85.39873417721518,84.98229217508012,81.77335807657857,83.4449177603445,51.53737441473562,53.208934098501544,50
67.0,86.29873417721518,85.84555066089483,82.66669906214128,84.31532972943452,51.530220931460306,53.17885159875355,50
69.0,87.19873417721519,86.78652424426312,83.62136251071158,85.26548585179034,51.521038392472775,53.16516173355154,50
71.0,88.09873417721518,87.71895238562476,84.58228561962086,86.21828977008589,51.50066261553887,53.1366667660039,50
73.0,89.09873417721518,88.67231082538855,85.54891566321893,87.18011575355587,51.49219507183268,53.123395162169615,50
75.0,89.9987341772152,89.62390968034534,86.51537386341464,88.11881966205418,51.505090018291156,53.1085358169307,50
77.5,90.99873417721518,90.64620246976804,87.59199444289578,89.18346510322287,51.46273736654517,53.05420802687226,50
80.0,91.99873417721518,91.58817338369316,88.53338776450738,90.09834232823549,51.48983105545767,53.05478561918578,50
82.5,92.4987341772152,92.17608334960286,89.14647949857496,90.70585869688372,51.47022465271914,53.0296038510279,50
85.0,92.99873417721518,92.62962372877192,89.62840989633762,91.16805658658896,51.46156714218296,53.0012138324343,50
87.5,93.29873417721518,92.94914088185287,89.9502649917921,91.47813309733979,51.47100778451308,52.99887589006077,50
90.0,93.29873417721518,92.96890002366348,90.01106983731063,91.53410628304752,51.43479374061596,52.95783018635285,50
92.5,93.39873417721519,93.06671337326931,90.12573387679328,91.63461742410266,51.43209594916665,52.94097949647603,50
95.0,93.39873417721519,93.12167936734362,90.20621371412318,91.69605965833668,51.42561970900694,52.91546565322044,50
97.5,93.39873417721519,93.11976796607345,90.21649408794946,91.69084943623923,51.42891852983422,52.903273878124,50
100.0,93.39873417721519,93.17339562203327,90.29327320199667,91.76261233192398,51.41078329010929,52.8801224200366,50
103.0,93.39873417721519,93.09488132863885,90.24664525535891,91.70918974416065,51.385691584478195,52.848236073279935,50
106.0,93.29873417721518,93.04881526676645,90.18615199075875,91.64269373627512,51.40612153049133,52.86266327600771,50
109.0,93.19873417721519,92.97044774927905,90.13916042145316,91.59537291839767,51.375074830881374,52.83128732782589,50
112.0,93.09873417721518,92.90254187126246,90.06644232009627,91.50097578807771,51.40156608318475,52.836099551166186,50
115.0,92.99873417721518,92.79103488651546,89.94788602139364,91.38528146739944,51.405753419116024,52.84314886512182,50
118.0,92.99873417721518,92.7797603000637,89.93972663363257,91.38589706706651,51.39386323299719,52.840033666431125,50
122.0,93.09873417721518,92.88054924793963,90.02257241819413,91.47389417423432,51.40665507370531,52.857976829745496,50
125.0,93.09873417721518,92.88186430725528,90.0224001529391,91.48526053211562,51.39660377513967,52.859464154316186,50
128.0,93.09873417721518,92.93750750255052,90.02382428910629,91.49509420554517,51.442413297005345,52.91368321344423,50
132.0,93.19873417721519,93.00470715440149,90.05612969396002,91.55549575460216,51.449211399799324,52.94857746044147,50
136.0,93.19873417721519,92.99445813920943,90.00894909700214,91.52232677848198,51.472131360727445,52.98550904220728,50
140.0,93.19873417721519,93.02944296685159,89.9800540114147,91.53249424754581,51.49694871930578,53.049388955436896,50
145.0,93.39873417721519,93.21948446437663,90.09574309107832,91.67827773091189,51.54120673346475,53.123741373298316,50
150.0,93.59873417721519,93.36667852884355,90.1683958863562,91.78272922429863,51.583949304544916,53.19828264248736,50
155.0,93.69873417721519,93.47965998512173,90.19359462758565,91.8516168129913,51.62804317213043,53.286065357536074,50
160.0,93.79873417721518,93.60166915063857,90.21016895363769,91.9124827453382,51.689186405300376,53.39150019700088,50
165.0,93.79873417721518,93.59209826683659,90.11142344737405,91.86808532530227,51.72401294153431,53.480674819462536,50
170.0,93.8987341772152,93.6493532834597,90.08714367768607,91.88328290323233,51.766070380227376,53.56220960577363,50
175.0,93.8987341772152,93.6493532834597,89.94329256243631,91.80171981217292,51.847633471286784,53.70606072102339,50
180.0,93.79873417721518,93.52904139194052,89.72561497112235,91.64124867768024,51.887792714260286,53.80342642081817,50
185.0,93.59873417721519,93.36201327472045,89.43340984375708,91.41565641752823,51.94635685719223,53.92860343096338,50
190.0,93.39873417721519,93.08712820516077,89.02451918208128,91.06786842924471,52.019259775916055,54.06260902307949,50
195.0,93.09873417721518,92.84222270378386,88.64598456615765,90.75098034876959,52.09124235501427,54.19623813762621,50
200.0,92.79873417721518,92.50725859550795,88.18485681435556,90.35418927172287,52.153069323785076,54.322401781152394,50
206.0,92.4987341772152,92.16400972672155,87.692425043436,89.92337509466104,52.240634632060505,54.47158468328554,50
212.0,92.19873417721519,91.83159296013122,87.22761443879249,89.53351960310249,52.29807335702873,54.60397852133873,50
218.0,91.99873417721518,91.60973530212505,86.84494848354535,89.22143918568386,52.38829611644118,54.764786818579694,50
224.0,91.89873417721519,91.49060803248284,86.58097185896784,89.03261533117524,52.4579927013076,54.909636173515,50
230.0,91.89873417721519,91.49060803248284,86.427363483243,88.94825463456937,52.54235339791347,55.06324454923984,50
236.0,91.89873417721519,91.5140455000798,86.33408929830962,88.91291421986857,52.601131280211234,55.17995620177018,50
240.0,92.09873417721518,91.67183441184923,86.3287426376483,88.98223292133474,52.68960149051449,55.34309177420093,50
250.0,92.4987341772152,92.06351270932988,86.59828893137662,89.2886716300749,52.77484107925498,55.46522377795327,50
258.0,92.69873417721519,92.24859010996329,86.66736269464243,89.40839527935132,52.84019483061196,55.58122741532085,50
265.0,92.89873417721518,92.41474236025674,86.70723125388675,89.49396259830657,52.92077976195017,55.70751110636999,50
272.0,92.99873417721518,92.52486913734086,86.67325455752295,89.51208565613291,53.01278348120795,55.851614579817905,50
280.0,93.09873417721518,92.56632787099221,86.59580994368993,89.45754297972995,53.10878489126226,55.97051792730228,50
290.0,93.09873417721518,92.55423944609447,86.47283095050557,89.35274579488079,53.20149365121368,56.0814084955889,50
300.0,93.09873417721518,92.47302832231969,86.31414843844891,89.20779824250016,53.26523007981953,56.15887988387078,50
307.0,92.99873417721518,92.38670984237633,86.12714150961338,89.01651346141163,53.3701963809647,56.25956833276295,50
315.0,92.99873417721518,92.26903808520811,85.97423873801587,88.85098629779722,53.41805178741089,56.29479934719224,50
325.0,92.89873417721518,92.1690380852081,85.80854423907523,88.6839530505761,53.48508503463201,56.36049384613287,50
335.0,92.79873417721518,92.06899924291864,85.69404832557713,88.56801441503217,53.50098482788647,56.37495091734151,50
345.0,92.69873417721519,91.96040574092018,85.57379384554471,88.47892486659057,53.481480874329606,56.38661189537547,50
355.0,92.59873417721516,91.86899924291862,85.47699692655519,88.42204988883351,53.446949354085106,56.39200231636343,50
365.0,92.39873417721519,91.72338421742778,85.35239737976556,88.34028916624658,53.3830950511812,56.370986837662215,50
375.0,92.29873417721518,91.64838304068843,85.28067880891504,88.33340756685715,53.31497547383128,56.36770423177339,50
387.0,92.19873417721519,91.54134762986845,85.19925892102768,88.30474448628783,53.23660314358062,56.34208870884078,50
400.0,92.09873417721518,91.45059553278996,85.12613088442782,88.27090001133237,53.17969552145759,56.32446464836214,50
412.0,91.99873417721518,91.28342531431173,84.99364326844001,88.1646795156645,53.118745798647225,56.28978204587172,50
425.0,91.79873417721518,91.14860067178947,84.8254393759859,88.01320485207066,53.13539581971881,56.32316129580357,50
437.0,91.79873417721518,91.067130951289,84.67703232933998,87.86938886499246,53.19774208629654,56.39009862194902,50
450.0,91.79873417721518,91.03269088433291,84.4977274090893,87.71219171086939,53.32049917346352,56.534963475243615,50
462.0,91.79873417721518,91.03621573775773,84.271882715608,87.54941805242944,53.486797685328284,56.76433302214973,50
475.0,91.89873417721519,91.09639756618036,84.08333394690203,87.46913562299648,53.62726194318388,57.01306361927833,50
487.0,92.09873417721518,91.19131761994713,83.94983434572381,87.51104553596858,53.68027208397855,57.24148327422331,50
500.0,92.29873417721518,91.37850538426285,83.99329212830759,87.80382167748738,53.574683706775474,57.385213255955264,50
515.0,92.4987341772152,91.55925955472964,84.17662256555678,88.19911371843382,53.360145836295814,57.38263698917285,50
530.0,92.59873417721516,91.72028692715342,84.41969050106023,88.57230965580389,53.14797727134953,57.30059642609319,50
545.0,92.69873417721519,91.81033021549744,84.63210292870959,88.88572741700565,52.92460279849179,57.17822728678786,50
560.0,92.69873417721519,91.90785946937204,84.80168858602218,89.081524207108,52.82633526226404,57.10617088334986,50
580.0,92.79873417721518,91.9003703122226,84.79731319832976,89.09688809685068,52.80348221537193,57.103057113892845,50
600.0,92.79873417721518,91.86175336920485,84.6281398214981,88.90390558139264,52.95784778781221,57.23361354770675,50
615.0,92.79873417721518,91.82824869544129,84.33050690182056,88.62482158885392,53.20342710658737,57.49774179362073,50
630.0,92.79873417721518,91.75471057421431,83.98687936323358,88.31799092558109,53.43671964863323,57.76783121098073,50
650.0,92.79873417721518,91.72217220059322,83.64574385249786,88.0413920082124,53.68078019238082,58.07642834809536,50
670.0,92.79873417721518,91.61023057961484,83.32004163159911,87.8002007998797,53.81002977973513,58.290188948015725,50
690.0,92.59873417721516,91.42486197094142,82.97271702787339,87.53821575456394,53.886646216377486,58.452144943068035,50
710.0,92.39873417721519,91.14206100558879,82.5204985593389,87.16251895847837,53.979542047110414,58.62156244624988,50
730.0,92.19873417721519,90.85931482177432,81.95259571535527,86.68851043648016,54.17080438529416,58.90671910641905,50
750.0,91.99873417721518,90.5629025305292,81.28186634145183,86.14016157755759,54.42274095297161,59.28103618907737,50
775.0,91.99873417721518,90.41893537111616,80.87258998474488,85.86339062096006,54.5555447501561,59.546345386371286,50
800.0,92.09873417721518,90.44844596589053,80.96441233515807,86.02653872462562,54.421907241264904,59.484033630732455,50
825.0,92.19873417721519,90.56995942356119,81.35097360355681,86.40638303219015,54.16357639137104,59.21898582000438,50
850.0,92.39873417721519,90.75064223517072,81.72692004815562,86.74897639530633,54.00166583986439,59.023722187015096,50
875.0,92.59873417721516,90.88835079834601,81.74815739349391,86.77102214494722,54.117328653398786,59.1401934048521,50
900.0,92.79873417721518,90.97553305325043,81.43585494605591,86.49270294574043,54.48283010751,59.53967810719452,50
925.0,93.19873417721519,91.0753415822411,81.01835993445026,86.19211852122314,54.88322306101796,60.056981647790835,50
950.0,93.39873417721519,91.14013512958388,80.67929364679321,85.94801778968929,55.192117339894594,60.46084148279067,50
975.0,93.39873417721519,91.05807759419012,80.42452398587072,85.682695573871,55.37538202031912,60.6335536083194,50
1000.0,92.99873417721518,90.7495100142609,80.12618294537113,85.27308943435769,55.47642057990322,60.62332706888978,50
1030.0,92.39873417721519,90.29819659809581,79.66991503028073,84.7043407604468,55.593855837649016,60.62828156781508,50
1060.0,91.99873417721518,89.85920463239529,79.08249094738508,84.1194520108669,55.739752621528396,60.77671368501021,50
1090.0,91.89873417721519,89.6400079727062,78.59141122749287,83.7779933794136,55.8620145932926,61.04859674521333,50
1120.0,92.09873417721518,89.5930380793471,78.28919851823606,83.6807055662293,55.91233251311779,61.30383956111103,50
1150.0,92.19873417721519,89.61780999052593,78.2281393411044,83.7255673039021,55.89224268662383,61.38967064942153,50
1180.0,92.19873417721519,89.52916887630415,78.23230734030123,83.75029114676767,55.77887772953649,61.29686153600292,50
1220.0,92.19873417721519,89.2757784030616,78.08627580381412,83.5500038594147,55.72577454364689,61.189502599247476,50
1250.0,92.19873417721519,89.06896674969414,77.86166025033756,83.24304592091312,55.82592082878102,61.20730649935658,50
1280.0,92.19873417721519,89.10692506841039,77.88475970416633,83.17889030591115,55.92803476249924,61.22216536424406,50
1320.0,92.09873417721518,89.115629613433,78.22270877109639,83.28948256351627,55.82614704991673,60.89292084233661,50
1360.0,91.69873417721519,88.89311376579236,78.76800748540445,83.53612386833139,55.35698989746098,60.12510628038791,50
1400.0,91.19873417721519,88.70612970731318,79.30336827676646,84.01075303673103,54.69537667058215,59.40276143054672,50
1450.0,90.89873417721519,88.76278437869395,79.54360570265003,84.39890631171508,54.36387806697887,59.219178676043924,50
1500.0,91.09873417721519,88.83408201995269,79.60204478888697,84.57153162085498,54.262550399097705,59.23203723106572,50
1550.0,91.29873417721518,89.05661884845195,79.83693316161381,84.8853875938463,54.171231254605644,59.21968568683813,50
1600.0,91.69873417721519,89.51840647639207,80.0078543638972,85.15464433648468,54.363762139907394,59.51055211249488,50
1650.0,91.99873417721518,89.5005725631878,79.79108046778956,85.09142703210492,54.409145531082885,59.70949209539825,50
1700.0,91.69873417721519,89.20515118034146,79.65587187767383,84.9401994285017,54.26495175183976,59.54927930266763,50
1750.0,90.79873417721518,88.77723673143669,79.21097390949058,84.31161553340363,54.46562119803306,59.56626282194611,50
1800.0,90.29873417721518,88.09665047538765,78.32767204816923,83.27172425854428,54.824926216843366,59.768978427218414,50
1850.0,90.29873417721518,88.07564680542612,78.13146694655802,83.02354233890031,55.052104466525805,59.9441798588681,50
1900.0,90.19873417721519,88.34270232852076,78.56466563605328,83.30942366986831,55.03327865865245,59.77803669246748,50
1950.0,89.89873417721519,88.33853706859563,78.93329099455562,83.50624348102902,54.83229358756661,59.40524607404001,50
2000.0,89.29873417721518,88.11812469642098,78.80556715544705,83.34213347968944,54.77599121673154,59.31255754097393,50
2060.0,88.79873417721518,87.82078463749059,78.49861088190326,82.92286557612249,54.8979190613681,59.32217375558733,50
2120.0,88.29873417721518,87.7024499194896,78.31338835811735,82.69030606576047,55.01214385372913,59.389061561372245,50
2180.0,88.19873417721519,87.9400328428872,78.47469572954473,82.83699626871338,55.10303657417383,59.46533711334247,50
2240.0,88.59873417721519,88.32890978472531,78.92264957050229,83.22043051669523,55.10847926803008,59.406260214223025,50
2300.0,89.39873417721519,88.5185167638265,79.04608997036404,83.30263418469181,55.215882579134686,59.47242679346246,50
2360.0,90.09873417721516,88.63208367353853,78.95059534914398,83.35672264263236,55.27536103090617,59.68148832439455,50
2400.0,90.49873417721518,88.62091741778167,78.88653320253565,83.48022525031962,55.14069216746205,59.734384215246024,50
2500.0,90.39873417721518,88.15676231283838,78.29358084476294,83.06657746633641,55.09018484650197,59.86318146807544,50
2580.0,89.9987341772152,88.01039536622864,77.7916271787445,82.73323996651128,55.27715539971736,60.21876818748413,50
2650.0,90.19873417721519,88.81627047851933,78.73107694893575,83.44144770532478,55.37482277319455,60.08519352958358,50
2720.0,91.19873417721519,89.47819598164654,79.59260076630328,84.27503169963364,55.20316428201289,59.88559521534326,50
2800.0,91.99873417721518,89.46112372456895,79.60987215939184,84.55442360827104,54.90670011629791,59.85125156517711,50
2900.0,92.09873417721518,89.00368531647868,78.90218627962426,84.14465403902646,54.85903127745222,60.10149903685442,50
