Freq,On Axis,Listening Window,Sound Power,Early Reflections,Early Reflections DI,Sound Power DI,DI offset
22.4,43.30000000000001,42.74678029214647,38.61648101455398,41.130064224194115,51.61671606795235,54.130299277592485,50
23.0,44.69999999999999,44.08412253742037,39.98600091498213,42.46235139893088,51.62177113848949,54.09812162243824,50
23.6,46.0,45.43952827867855,41.36380038802014,43.82468781988456,51.61484045879399,54.07572789065841,50
24.0,47.400000000000006,46.787705002372974,42.70939201826599,45.142782589032976,51.64492241334,54.07831298410699,50
25.0,48.69999999999999,48.11270790915722,44.07407498376733,46.4693923788214,51.643315530335826,54.03863292538989,50
25.8,50.0,49.427491736718935,45.42911789433796,47.79742272859781,51.630069008121126,53.99837384238097,50
26.5,51.400000000000006,50.772085047290744,46.774613857382974,49.13128326159432,51.640801785696425,53.99747118990777,50
27.2,52.69999999999999,52.1040375657077,48.131894798943705,50.45746917265549,51.646568393052206,53.972142766763994,50
28.0,54.0,53.42362923023936,49.4779176797972,51.775106610202414,51.64852262003694,53.945711550442155,50
29.0,55.30000000000001,54.7511379641017,50.81787323571007,53.07657181444648,51.67456614965522,53.933264728391634,50
30.0,56.599999999999994,56.04969474496124,52.160874776433104,54.402814846964816,51.64687989799643,53.88881996852814,50
30.7,58.0,57.42362923023936,53.524936247470436,55.733232039806865,51.69039719043249,53.89869298276892,50
31.5,59.30000000000001,58.74969474496126,54.892487546921814,57.066312065022316,51.683382679938944,53.85720719803945,50
32.5,60.599999999999994,60.08698615216778,56.249676208320295,58.40562675257965,51.68135939958813,53.83730994384749,50
33.5,62.0,61.48698615216779,57.670031448330406,59.803395257257876,51.68359089490991,53.81695470383738,50
34.5,63.400000000000006,62.84796837174906,59.07391228441304,61.1780081606349,51.66996021111416,53.77405608733602,50
35.5,64.69999999999999,64.16404504412839,60.408731518951924,62.46953894611292,51.69450609801547,53.75531352517646,50
36.5,65.9,65.32622516287128,61.600769818883265,63.660020727223355,51.66620443564793,53.72545534398802,50
37.5,67.0,66.46445681885902,62.74773548602812,64.77903640117717,51.685420417681854,53.7167213328309,50
38.7,68.1,67.59714256207567,63.93980175615641,65.92395259458749,51.673189967488184,53.65734080591926,50
40.0,69.3,68.78122603135239,65.13581361479862,67.11629602309708,51.66493000825531,53.64541241655377,50
41.2,70.4,69.88122603135241,66.30327552238066,68.24849268304743,51.63273334830498,53.57795050897175,50
42.5,71.5,71.02024049846597,67.44769794827403,69.37350815115501,51.64673234731096,53.57254255019194,50
43.7,72.6,72.04341564917067,68.47343068076924,70.36387249555833,51.67954315361234,53.56998496840143,50
45.0,73.6,73.08276972441739,69.54168755689678,71.42407694363659,51.6586927807808,53.541082167520614,50
46.2,74.6,74.06065786667534,70.54875825149858,72.40423852093534,51.656419345740005,53.51189961517676,50
47.5,75.5,75.00025391794308,71.52504610410313,73.3684450829114,51.63180883503168,53.47520781383996,50
48.7,76.4,75.90025391794308,72.449722107301,74.27434076028533,51.62591315765775,53.450531810642076,50
50.0,77.29999999999998,76.80025391794308,73.36337115732277,75.17772490989869,51.622529008044395,53.43688276062031,50
51.5,78.1,77.63989498449693,74.24538167487356,76.03128854304977,51.608606441447165,53.39451330962338,50
53.0,79.0,78.49245173321512,75.11294772428293,76.88529494295209,51.60715679026303,53.37950400893219,50
54.5,79.79999999999998,79.32484521468609,75.96665614154227,77.72555901476855,51.59928619991754,53.35818907314382,50
56.0,80.7,80.22484521468611,76.88427463492755,78.62966903323377,51.595176181452345,53.34057057975856,50
58.0,81.5,81.04297554543406,77.74500239068482,79.47345611141208,51.569519434021984,53.29797315474924,50
60.0,82.20000000000002,81.74297554543406,78.4716010552605,80.18163660996942,51.56133893546465,53.27137449017356,50
61.5,82.9,82.42827937664485,79.15349169886615,80.85236255237677,51.57591682426808,53.274787677778704,50
63.0,83.6,83.12827937664485,79.89364858171353,81.5819986087716,51.546280767873256,53.23463079493132,50
65.0,84.4,83.98355799786493,80.77462389936338,82.44618358312931,51.53737441473562,53.20893409850156,50
67.0,85.3,84.84681648367965,81.6679648849261,83.31659555221935,51.53022093146029,53.17885159875354,50
69.0,86.19999999999999,85.78779006704795,82.62262833349641,84.26675167457516,51.52103839247279,53.16516173355154,50
71.0,87.1,86.72021820840958,83.58355144240568,85.2195555928707,51.50066261553887,53.1366667660039,50
73.0,88.1,87.67357664817337,84.55018148600377,86.18138157634068,51.49219507183268,53.1233951621696,50
75.0,89.0,88.62517550313015,85.51663968619945,87.120085484839,51.505090018291156,53.1085358169307,50
77.5,90.0,89.64746829255284,86.5932602656806,88.18473092600769,51.462737366545156,53.054208026872246,50
80.0,91.0,90.58943920647798,87.5346535872922,89.09960815102029,51.489831055457685,53.05478561918578,50
82.5,91.5,91.17734917238768,88.14774532135978,89.70712451966854,51.47022465271914,53.0296038510279,50
85.0,92.0,91.63088955155675,88.62967571912243,90.16932240937378,51.46156714218297,53.00121383243432,50
87.5,92.29999999999998,91.95040670463769,88.95153081457691,90.4793989201246,51.47100778451309,52.99887589006077,50
90.0,92.29999999999998,91.97016584644831,89.01233566009545,90.53537210583234,51.43479374061597,52.957830186352865,50
92.5,92.4,92.06797919605413,89.12699969957808,90.63588324688746,51.432095949166666,52.94097949647605,50
95.0,92.4,92.12294519012843,89.207479536908,90.6973254811215,51.42561970900694,52.91546565322044,50
97.5,92.4,92.12103378885827,89.21775991073426,90.69211525902406,51.428918529834206,52.90327387812401,50
100.0,92.4,92.17466144481808,89.29453902478149,90.76387815470879,51.41078329010929,52.8801224200366,50
103.0,92.4,92.09614715142368,89.24791107814374,90.71045556694547,51.38569158447821,52.848236073279935,50
106.0,92.29999999999998,92.05008108955127,89.18741781354356,90.64395955905994,51.40612153049133,52.86266327600771,50
109.0,92.20000000000002,91.97171357206386,89.14042624423797,90.59663874118249,51.375074830881374,52.83128732782589,50
112.0,92.1,91.90380769404729,89.06770814288109,90.50224161086253,51.40156608318476,52.8360995511662,50
115.0,92.0,91.79230070930026,88.94915184417846,90.38654729018425,51.40575341911601,52.843148865121805,50
118.0,92.0,91.78102612284852,88.94099245641739,90.38716288985133,51.39386323299719,52.840033666431125,50
122.0,92.1,91.88181507072446,89.02383824097895,90.47515999701913,51.40665507370532,52.85797682974551,50
125.0,92.1,91.8831301300401,89.0236659757239,90.48652635490043,51.39660377513967,52.8594641543162,50
128.0,92.1,91.93877332533535,89.0250901118911,90.49636002833,51.442413297005345,52.913683213444244,50
132.0,92.20000000000002,92.0059729771863,89.0573955167448,90.55676157738696,51.44921139979934,52.9485774604415,50
136.0,92.20000000000002,91.99572396199423,89.01021491978696,90.52359260126681,51.47213136072742,52.98550904220727,50
140.0,92.20000000000002,92.0307087896364,88.98131983419951,90.53376007033063,51.49694871930578,53.049388955436896,50
145.0,92.4,92.22075028716145,89.09700891386314,90.6795435536967,51.54120673346475,53.123741373298316,50
150.0,92.6,92.36794435162838,89.16966170914101,90.78399504708347,51.583949304544916,53.19828264248737,50
155.0,92.7,92.48092580790654,89.19486045037047,90.85288263577613,51.62804317213042,53.286065357536074,50
160.0,92.8,92.60293497342339,89.21143477642251,90.91374856812301,51.689186405300376,53.39150019700088,50
165.0,92.8,92.5933640896214,89.11268927015887,90.86935114808709,51.72401294153431,53.480674819462536,50
170.0,92.9,92.65061910624452,89.08840950047087,90.88454872601714,51.766070380227376,53.562209605773646,50
175.0,92.9,92.65061910624452,88.94455838522113,90.80298563495774,51.847633471286784,53.70606072102339,50
180.0,92.8,92.53030721472534,88.72688079390717,90.64251450046505,51.887792714260286,53.80342642081817,50
185.0,92.6,92.36327909750527,88.43467566654189,90.41692224031303,51.94635685719224,53.92860343096338,50
190.0,92.4,92.08839402794558,88.0257850048661,90.06913425202953,52.019259775916055,54.06260902307949,50
195.0,92.1,91.84348852656868,87.64725038894247,89.7522461715544,52.09124235501427,54.19623813762621,50
200.0,91.8,91.50852441829277,87.18612263714039,89.35545509450769,52.153069323785076,54.32240178115238,50
206.0,91.5,91.16527554950636,86.69369086622082,88.92464091744586,52.240634632060505,54.47158468328554,50
212.0,91.19999999999999,90.83285878291603,86.2288802615773,88.5347854258873,52.29807335702873,54.60397852133873,50
218.0,91.0,90.61100112490985,85.84621430633015,88.22270500846868,52.38829611644117,54.764786818579694,50
224.0,90.9,90.49187385526767,85.58223768175266,88.03388115396007,52.4579927013076,54.90963617351501,50
230.0,90.9,90.49187385526767,85.42862930602783,87.94952045735418,52.54235339791349,55.06324454923984,50
236.0,90.9,90.51531132286462,85.33535512109444,87.91418004265338,52.601131280211234,55.17995620177018,50
240.0,91.1,90.67310023463405,85.33000846043312,87.98349874411957,52.68960149051448,55.34309177420093,50
250.0,91.5,91.0647785321147,85.59955475416143,88.28993745285973,52.77484107925497,55.46522377795327,50
258.0,91.7,91.24985593274809,85.66862851742727,88.40966110213614,52.84019483061195,55.581227415320825,50
265.0,91.9,91.41600818304158,85.70849707667156,88.49522842109138,52.9207797619502,55.70751110637002,50
272.0,92.0,91.52613496012567,85.67452038030777,88.51335147891773,53.01278348120795,55.851614579817905,50
280.0,92.1,91.56759369377703,85.59707576647475,88.45880880251477,53.10878489126226,55.97051792730228,50
290.0,92.1,91.55550526887927,85.47409677329037,88.3540116176656,53.20149365121367,56.0814084955889,50
300.0,92.1,91.4742941451045,85.31541426123373,88.20906406528498,53.26523007981952,56.15887988387077,50
307.0,92.0,91.38797566516115,85.1284073323982,88.01777928419645,53.3701963809647,56.25956833276295,50
315.0,92.0,91.27030390799294,84.97550456080069,87.85225212058201,53.41805178741093,56.29479934719225,50
325.0,91.9,91.17030390799292,84.80981006186005,87.68521887336091,53.48508503463201,56.36049384613287,50
335.0,91.8,91.07026506570344,84.69531414836192,87.569280237817,53.50098482788644,56.37495091734152,50
345.0,91.7,90.96167156370501,84.57505966832953,87.4801906893754,53.481480874329606,56.38661189537548,50
355.0,91.6,90.87026506570344,84.47826274934,87.42331571161833,53.446949354085106,56.39200231636343,50
365.0,91.4,90.7246500402126,84.35366320255036,87.3415549890314,53.3830950511812,56.37098683766223,50
375.0,91.3,90.64964886347325,84.28194463169986,87.33467338964196,53.31497547383128,56.36770423177339,50
387.0,91.19999999999999,90.54261345265326,84.2005247438125,87.30601030907265,53.23660314358061,56.34208870884076,50
400.0,91.1,90.45186135557478,84.12739670721265,87.2721658341172,53.179695521457575,56.324464648362124,50
412.0,91.0,90.28469113709654,83.99490909122483,87.16594533844932,53.118745798647225,56.28978204587172,50
425.0,90.80000000000001,90.1498664945743,83.82670519877071,87.01447067485549,53.13539581971881,56.32316129580359,50
437.0,90.80000000000001,90.06839677407382,83.6782981521248,86.87065468777726,53.19774208629656,56.39009862194902,50
450.0,90.80000000000001,90.03395670711772,83.49899323187412,86.7134575336542,53.32049917346352,56.5349634752436,50
462.0,90.80000000000001,90.03748156054255,83.27314853839282,86.55068387521428,53.48679768532827,56.76433302214973,50
475.0,90.9,90.09766338896517,83.08459976968685,86.4704014457813,53.62726194318387,57.01306361927833,50
487.0,91.1,90.19258344273194,82.95110016850863,86.5123113587534,53.68027208397855,57.24148327422331,50
500.0,91.3,90.37977120704767,82.99455795109242,86.80508750027221,53.57468370677546,57.38521325595525,50
515.0,91.5,90.56052537751445,83.1778883883416,87.20037954121864,53.360145836295814,57.38263698917285,50
530.0,91.6,90.72155274993824,83.42095632384505,87.57357547858871,53.14797727134953,57.30059642609319,50
545.0,91.7,90.81159603828226,83.6333687514944,87.88699323979048,52.924602798491776,57.17822728678786,50
560.0,91.7,90.90912529215686,83.802954408807,88.08279002989283,52.826335262264024,57.10617088334986,50
580.0,91.8,90.90163613500742,83.79857902111458,88.09815391963548,52.80348221537194,57.103057113892845,50
600.0,91.8,90.86301919198966,83.62940564428291,87.90517140417745,52.95784778781221,57.23361354770675,50
615.0,91.8,90.82951451822612,83.33177272460537,87.62608741163874,53.203427106587384,57.49774179362075,50
630.0,91.8,90.75597639699913,82.98814518601839,87.31925674836592,53.436719648633215,57.767831210980745,50
650.0,91.8,90.72343802337804,82.64700967528267,87.04265783099721,53.68078019238082,58.07642834809536,50
670.0,91.8,90.61149640239965,82.3213074543839,86.80146662266452,53.81002977973513,58.290188948015754,50
690.0,91.6,90.42612779372624,81.9739828506582,86.53948157734877,53.88664621637747,58.452144943068035,50
710.0,91.4,90.1433268283736,81.52176438212372,86.16378478126319,53.979542047110414,58.62156244624988,50
730.0,91.19999999999999,89.86058064455912,80.95386153814009,85.68977625926497,54.17080438529415,58.90671910641903,50
750.0,91.0,89.56416835331402,80.28313216423663,85.1414274003424,54.42274095297162,59.28103618907738,50
775.0,91.0,89.42020119390098,79.8738558075297,84.86465644374488,54.5555447501561,59.546345386371286,50
800.0,91.1,89.44971178867536,79.96567815794288,85.02780454741045,54.421907241264904,59.48403363073248,50
825.0,91.19999999999999,89.57122524634602,80.35223942634164,85.40764885497498,54.16357639137104,59.21898582000438,50
850.0,91.4,89.75190805795553,80.72818587094042,85.75024221809115,54.00166583986439,59.02372218701511,50
875.0,91.6,89.88961662113083,80.74942321627873,85.77228796773204,54.117328653398786,59.1401934048521,50
900.0,91.8,89.97679887603525,80.43712076884074,85.49396876852525,54.48283010751,59.539678107194504,50
925.0,92.20000000000002,90.07660740502591,80.01962575723508,85.19338434400797,54.883223061017944,60.056981647790835,50
950.0,92.4,90.14140095236871,79.68055946957803,84.9492836124741,55.19211733989461,60.460841482790684,50
975.0,92.4,90.05934341697491,79.42578980865554,84.6839613966558,55.37538202031911,60.633553608319374,50
1000.0,92.0,89.75077583704572,79.12744876815597,84.2743552571425,55.47642057990322,60.62332706888975,50
1030.0,91.4,89.29946242088063,78.67118085306555,83.70560658323161,55.593855837649016,60.62828156781508,50
1060.0,91.0,88.8604704551801,78.0837567701699,83.12071783365172,55.73975262152838,60.77671368501021,50
1090.0,90.9,88.64127379549102,77.5926770502777,82.77925920219842,55.8620145932926,61.04859674521332,50
1120.0,91.1,88.59430390213191,77.29046434102088,82.68197138901412,55.91233251311779,61.30383956111103,50
1150.0,91.19999999999999,88.61907581331074,77.22940516388921,82.72683312668693,55.89224268662382,61.38967064942153,50
1180.0,91.19999999999999,88.53043469908897,77.23357316308605,82.75155696955247,55.778877729536504,61.29686153600292,50
1220.0,91.19999999999999,88.2770442258464,77.08754162659893,82.55126968219953,55.725774543646864,61.18950259924746,50
1250.0,91.19999999999999,88.07023257247896,76.86292607312238,82.24431174369792,55.82592082878104,61.20730649935658,50
1280.0,91.19999999999999,88.10819089119522,76.88602552695114,82.18015612869597,55.92803476249925,61.22216536424408,50
1320.0,91.1,88.11689543621782,77.22397459388122,82.29074838630109,55.82614704991673,60.89292084233659,50
1360.0,90.7,87.89437958857718,77.76927330818927,82.5373896911162,55.35698989746098,60.12510628038791,50
1400.0,90.2,87.70739553009798,78.30463409955128,83.01201885951585,54.695376670582135,59.402761430546704,50
1450.0,89.9,87.76405020147877,78.54487152543483,83.4001721344999,54.36387806697887,59.21917867604394,50
1500.0,90.1,87.83534784273749,78.60331061167179,83.57279744363981,54.26255039909768,59.2320372310657,50
1550.0,90.3,88.05788467123676,78.83819898439862,83.88665341663112,54.171231254605644,59.21968568683815,50
1600.0,90.7,88.51967229917689,79.00912018668201,84.1559101592695,54.363762139907394,59.51055211249488,50
1650.0,91.0,88.50183838597263,78.79234629057439,84.09269285488973,54.4091455310829,59.70949209539825,50
1700.0,90.7,88.20641700312628,78.65713770045865,83.94146525128652,54.26495175183976,59.54927930266763,50
1750.0,89.79999999999998,87.7785025542215,78.21223973227539,83.31288135618843,54.46562119803308,59.56626282194611,50
1800.0,89.3,87.09791629817246,77.32893787095405,82.2729900813291,54.824926216843366,59.768978427218414,50
1850.0,89.3,87.07691262821093,77.13273276934282,82.02480816168512,55.05210446652582,59.94417985886811,50
1900.0,89.2,87.34396815130557,77.5659314588381,82.31068949265313,55.03327865865245,59.77803669246748,50
1950.0,88.9,87.33980289138044,77.93455681734044,82.50750930381383,54.83229358756661,59.40524607404001,50
2000.0,88.30000000000001,87.1193905192058,77.80683297823187,82.34339930247424,54.775991216731555,59.31255754097393,50
2060.0,87.8,86.8220504602754,77.49987670468806,81.9241313989073,54.8979190613681,59.32217375558734,50
2120.0,87.29999999999998,86.7037157422744,77.31465418090217,81.6915718885453,55.0121438537291,59.38906156137223,50
2180.0,87.20000000000002,86.94129866567202,77.47596155232955,81.8382620914982,55.10303657417383,59.46533711334247,50
2240.0,87.6,87.33017560751013,77.9239153932871,82.22169633948005,55.10847926803008,59.406260214223025,50
2300.0,88.4,87.51978258661131,78.04735579314885,82.30390000747661,55.2158825791347,59.47242679346246,50
2360.0,89.1,87.63334949632335,77.95186117192878,82.35798846541718,55.27536103090617,59.681488324394564,50
2400.0,89.5,87.6221832405665,77.88779902532046,82.48149107310444,55.14069216746206,59.73438421524604,50
2500.0,89.4,87.1580281356232,77.29484666754776,82.06784328912124,55.090184846501955,59.86318146807544,50
2580.0,89.0,87.01166118901345,76.79289300152934,81.7345057892961,55.27715539971736,60.218768187484116,50
2650.0,89.2,87.81753630130414,77.73234277172057,82.44271352810959,55.37482277319455,60.08519352958358,50
2720.0,90.2,88.47946180443135,78.5938665890881,83.27629752241846,55.20316428201289,59.88559521534326,50
2800.0,91.0,88.46238954735377,78.61113798217666,83.55568943105585,54.90670011629791,59.85125156517711,50
2900.0,91.1,88.0049511392635,77.90345210240908,83.14591986181128,54.85903127745222,60.10149903685442,50
3000.0,90.2,86.86435905475909,76.46119898445765,81.78673575557865,55.077623299180445,60.40316007030144,50
3070.0,88.4,85.60926004752837,75.42554296621977,80.2904639470733,55.31879610045506,60.1837170813086,50
3150.0,86.1,85.5176544299281,75.80266511762714,79.7209780040387,55.7966764258894,59.71498931230096,50
3250.0,85.1,86.63945603782683,76.90629554870694,80.39545908238743,56.2439969554394,59.733160489119896,50
3350.0,85.80000000000001,87.28908915309468,77.18568845936382,80.96318224503162,56.32590690806306,60.10340069373086,50
3450.0,86.8,87.32726414629107,77.14988139794264,81.22209207147375,56.10517207481732,60.177382748348435,50
3550.0,88.30000000000001,87.58722849649234,77.1877426375331,81.61598541758237,55.97124307890998,60.39948585895924,50
3650.0,89.70000000000002,87.51580486895668,76.6046996973769,81.69204211450717,55.823762754449504,60.91110517157978,50
3750.0,90.1,87.49922439096602,76.32412714178051,81.67287280676565,55.82635158420037,61.17509724918551,50
3870.0,90.2,87.9277498633611,76.83211673507651,82.02924356772151,55.89850629563959,61.09563312828459,50
4000.0,90.3,88.08239371175112,77.18905858893211,82.30862692551705,55.77376678623408,60.89333512281901,50
4120.0,90.4,87.97367717375846,77.10516187758296,82.2825371321016,55.691140041656865,60.8685152961755,50
4250.0,90.2,87.81393050457521,76.90424036344878,82.05494693224645,55.75898357232876,60.90969014112643,50
4370.0,90.0,87.7715382210251,76.88943443465324,81.93630849193916,55.83522972908594,60.88210378637186,50
4500.0,90.0,87.8413139591884,76.8745363297424,81.9816910567252,55.8596229024632,60.966777629446,50
