Freq "Sound Power"
22.4 38.61648101455398
23.0 39.98600091498213
23.6 41.36380038802014
24.0 42.70939201826599
25.0 44.07407498376733
25.8 45.42911789433796
26.5 46.774613857382974
27.2 48.131894798943705
28.0 49.4779176797972
29.0 50.81787323571007
30.0 52.160874776433104
30.7 53.524936247470436
31.5 54.892487546921814
32.5 56.249676208320295
33.5 57.670031448330406
34.5 59.07391228441304
35.5 60.408731518951924
36.5 61.600769818883265
37.5 62.74773548602812
38.7 63.93980175615641
40.0 65.13581361479862
41.2 66.30327552238066
42.5 67.44769794827403
43.7 68.47343068076924
45.0 69.54168755689678
46.2 70.54875825149858
47.5 71.52504610410313
48.7 72.449722107301
50.0 73.36337115732277
51.5 74.24538167487356
53.0 75.11294772428293
54.5 75.96665614154227
56.0 76.88427463492755
58.0 77.74500239068482
60.0 78.4716010552605
61.5 79.15349169886615
63.0 79.89364858171353
65.0 80.77462389936338
67.0 81.6679648849261
69.0 82.62262833349641
71.0 83.58355144240568
73.0 84.55018148600377
75.0 85.51663968619945
77.5 86.5932602656806
80.0 87.5346535872922
82.5 88.14774532135978
85.0 88.62967571912243
87.5 88.95153081457691
90.0 89.01233566009545
92.5 89.12699969957808
95.0 89.207479536908
97.5 89.21775991073426
100.0 89.29453902478149
103.0 89.24791107814374
106.0 89.18741781354356
109.0 89.14042624423797
112.0 89.06770814288109
115.0 88.94915184417846
118.0 88.94099245641739
122.0 89.02383824097895
125.0 89.0236659757239
128.0 89.0250901118911
132.0 89.0573955167448
136.0 89.01021491978696
140.0 88.98131983419951
145.0 89.09700891386314
150.0 89.16966170914101
155.0 89.19486045037047
160.0 89.21143477642251
165.0 89.11268927015887
170.0 89.08840950047087
175.0 88.94455838522113
180.0 88.72688079390717
185.0 88.43467566654189
190.0 88.0257850048661
195.0 87.64725038894247
200.0 87.18612263714039
206.0 86.69369086622082
212.0 86.2288802615773
218.0 85.84621430633015
224.0 85.58223768175266
230.0 85.42862930602783
236.0 85.33535512109444
240.0 85.33000846043312
250.0 85.59955475416143
258.0 85.66862851742727
265.0 85.70849707667156
272.0 85.67452038030777
280.0 85.59707576647475
290.0 85.47409677329037
300.0 85.31541426123373
307.0 85.1284073323982
315.0 84.97550456080069
325.0 84.80981006186005
335.0 84.69531414836192
345.0 84.57505966832953
355.0 84.47826274934
365.0 84.35366320255036
375.0 84.28194463169986
387.0 84.2005247438125
400.0 84.12739670721265
412.0 83.99490909122483
425.0 83.82670519877071
437.0 83.6782981521248
450.0 83.49899323187412
462.0 83.27314853839282
475.0 83.08459976968685
487.0 82.95110016850863
500.0 82.99455795109242
515.0 83.1778883883416
530.0 83.42095632384505
545.0 83.6333687514944
560.0 83.802954408807
580.0 83.79857902111458
600.0 83.62940564428291
615.0 83.33177272460537
630.0 82.98814518601839
650.0 82.64700967528267
670.0 82.3213074543839
690.0 81.9739828506582
710.0 81.52176438212372
730.0 80.95386153814009
750.0 80.28313216423663
775.0 79.8738558075297
800.0 79.96567815794288
825.0 80.35223942634164
850.0 80.72818587094042
875.0 80.74942321627873
900.0 80.43712076884074
925.0 80.01962575723508
950.0 79.68055946957803
975.0 79.42578980865554
1000.0 79.12744876815597
1030.0 78.67118085306555
1060.0 78.0837567701699
1090.0 77.5926770502777
1120.0 77.29046434102088
1150.0 77.22940516388921
1180.0 77.23357316308605
1220.0 77.08754162659893
1250.0 76.86292607312238
1280.0 76.88602552695114
1320.0 77.22397459388122
1360.0 77.76927330818927
1400.0 78.30463409955128
1450.0 78.54487152543483
1500.0 78.60331061167179
1550.0 78.83819898439862
1600.0 79.00912018668201
1650.0 78.79234629057439
1700.0 78.65713770045865
1750.0 78.21223973227539
1800.0 77.32893787095405
1850.0 77.13273276934282
1900.0 77.5659314588381
1950.0 77.93455681734044
2000.0 77.80683297823187
2060.0 77.49987670468806
2120.0 77.31465418090217
2180.0 77.47596155232955
2240.0 77.9239153932871
2300.0 78.04735579314885
2360.0 77.95186117192878
2400.0 77.88779902532046
2500.0 77.29484666754776
2580.0 76.79289300152934
2650.0 77.73234277172057
2720.0 78.5938665890881
2800.0 78.61113798217666
2900.0 77.90345210240908
3000.0 76.46119898445765
3070.0 75.42554296621977
3150.0 75.80266511762714
3250.0 76.90629554870694
3350.0 77.18568845936382
3450.0 77.14988139794264
3550.0 77.1877426375331
3650.0 76.6046996973769
3750.0 76.32412714178051
3870.0 76.83211673507651
4000.0 77.18905858893211
4120.0 77.10516187758296
4250.0 76.90424036344878
4370.0 76.88943443465324
4500.0 76.8745363297424
4620.0 76.63640300735996
4750.0 76.21781760102265
4870.0 75.51156070891612
5000.0 75.19775384183308
5150.0 75.33455534894313
5300.0 74.98034328773275
5450.0 74.24096482699179
5600.0 74.25664951433389
5800.0 74.50851239032578
6000.0 74.8344929602848
6150.0 74.7072211217517
6300.0 74.12111355003063
6500.0 73.94599438114517
6700.0 74.05552703581748
6900.0 74.42031518001173
7100.0 74.25479129487192
7300.0 74.02571395545988
7500.0 73.32629070249854
7750.0 72.76803325690102
8000.0 72.88053487971699
8250.0 73.30811511904322
8500.0 74.11290823241485
8750.0 74.15708459862827
9000.0 73.40979265733978
9250.0 73.55320432022783
9500.0 74.35709378547187
9750.0 74.88594905794825
10000.0 75.00952121963265
10300.0 74.64618934394687
10600.0 74.25883381283825
10900.0 74.47585606167834
11200.0 75.14584567117076
11500.0 75.27814587858123
11800.0 74.55100487130221
12200.0 73.74027618557358
12500.0 73.13502972286545
12800.0 73.46301630802812
13200.0 74.96071592139215
13600.0 76.50885029180279
14000.0 77.35748996947368
14500.0 77.48997598681555
15000.0 76.7842823155964
15500.0 75.50968107869244
16000.0 74.24205389903727
16500.0 72.91570286613054
17000.0 71.14599466930228
17500.0 69.3313571632656
18000.0 67.60311648660951
18500.0 65.68953999573972
19000.0 63.99226964970143
19500.0 62.263518279773905
