Freq "Estimated In-Room Response"
22.4 15.845266583596612
23.0 16.288712066654767
23.6 17.1723881253985
24.0 19.82472255148417
25.0 21.770410554101403
25.8 23.40426274692703
26.5 24.881219841744837
27.2 26.12951390687104
28.0 27.306929690876416
29.0 28.384818182580716
30.0 29.892618980420536
30.7 32.23518959531984
31.5 34.22044221598816
32.5 35.858169353330425
33.5 37.27803915311665
34.5 38.54115344505172
35.5 39.86700443713394
36.5 42.17425995186434
37.5 44.1316962212766
38.7 45.75970851177598
40.0 47.155930438745514
41.2 48.47836049394334
42.5 50.296609018132216
43.7 52.14109962204316
45.0 53.682027976455174
46.2 55.054235950615634
47.5 56.38595441484145
48.7 58.23359761703625
50.0 59.868326482319446
51.5 61.33856330544225
53.0 62.66636330837487
54.5 64.1334770796057
56.0 65.61875590158542
58.0 67.06243426864393
60.0 68.40074852757
61.5 69.73093871466732
63.0 70.92995219760985
65.0 72.02916226193464
67.0 73.2013767060495
69.0 74.36124804169054
71.0 75.43080082580681
73.0 76.34599220260769
75.0 77.1631687024736
77.5 77.91796703644272
80.0 78.51574492614338
82.5 79.16861508917775
85.0 79.83527240573409
87.5 80.36042813350244
90.0 80.78826605860782
92.5 81.11610846835396
95.0 81.38297704447142
97.5 81.72683015780893
100.0 82.1338099414609
103.0 82.3759092752658
106.0 82.61880367366311
109.0 82.95656797601802
112.0 83.25614283401642
115.0 83.4046334410901
118.0 83.54254094423626
122.0 83.65449237824159
125.0 83.71765304505452
128.0 83.65177246382403
132.0 83.63450084878139
136.0 83.61392914492521
140.0 83.51936518080262
145.0 83.42449080659664
150.0 83.29526796614704
155.0 83.20703365363939
160.0 83.12128360852486
165.0 83.08656748555299
170.0 83.00403653981255
175.0 82.91751582243464
180.0 82.8957954869196
185.0 82.8456171998149
190.0 82.77625696923229
195.0 82.70129342804408
200.0 82.6741432578146
206.0 82.70422485182735
212.0 82.72672137180771
218.0 82.76314440335456
224.0 82.82066397524957
230.0 82.86629980298852
236.0 82.94546674030829
240.0 82.99266637668012
250.0 82.97885269360708
258.0 82.93370108337933
265.0 82.8547301239203
272.0 82.74271610744472
280.0 82.55681828948896
290.0 82.3966451083397
300.0 82.17587687099824
307.0 81.94621017253105
315.0 81.68661890895011
325.0 81.49510056341003
335.0 81.33497223000658
345.0 81.23494783000388
355.0 81.21033435750716
365.0 81.25876500644847
375.0 81.34104596470948
387.0 81.46231405678526
400.0 81.51029928745758
412.0 81.57972380631773
425.0 81.59393793855551
437.0 81.43194298784042
450.0 81.35427521796323
462.0 81.13520554680251
475.0 80.9463177431382
487.0 80.65259193591422
500.0 80.56161864838668
515.0 80.60876495113291
530.0 80.68879337629924
545.0 80.79155383308952
560.0 80.87106241232668
580.0 80.87980517406118
600.0 80.76984975289449
615.0 80.63161399415966
630.0 80.56777236930847
650.0 80.59146688795727
670.0 80.70382656735227
690.0 80.83430435242065
710.0 80.88703737921307
730.0 80.826664658561
750.0 80.5830469057865
775.0 80.32996496488003
800.0 80.34035674185952
825.0 80.5249239869708
850.0 80.58199170738193
875.0 80.42295279711114
900.0 80.13651051168063
925.0 80.37367182173242
950.0 80.77923424050682
975.0 80.79719707739761
1000.0 80.4211151851373
1030.0 79.55597694252823
1060.0 79.00893485741088
1090.0 78.96781643902361
1120.0 78.83787320632632
1150.0 79.10024661629906
1180.0 79.65330225796268
1220.0 79.69376174133328
1250.0 79.48053388536704
1280.0 79.63025507526453
1320.0 79.7830139373286
1360.0 79.83782748599049
1400.0 79.98438120291956
1450.0 80.21243362205553
1500.0 79.99919251183444
1550.0 79.43286982939841
1600.0 79.09548374466655
1650.0 78.92639758926688
1700.0 78.8951639074292
1750.0 79.05027720534457
1800.0 79.26196490411496
1850.0 79.32728258750095
1900.0 79.34347161282244
1950.0 79.07326630601766
2000.0 78.92484547151287
2060.0 78.84117059874013
2120.0 78.82799389759438
2180.0 79.01190429871882
2240.0 78.99461126439061
2300.0 78.76537463325847
2360.0 78.63197017495118
2400.0 78.79147285811165
2500.0 79.36532521060374
2580.0 79.96936673945831
2650.0 80.06973390679991
2720.0 79.50300770924306
2800.0 78.69217761959365
2900.0 78.07993826293804
3000.0 77.94080771661781
3070.0 78.16356240784253
3150.0 78.30970084027597
3250.0 78.01805674779166
3350.0 77.80553037770488
3450.0 78.4499972401606
3550.0 78.7667650662739
3650.0 78.39761412973742
3750.0 78.20429358853518
3870.0 78.28263237314131
4000.0 78.3769390310926
4120.0 78.4073740832795
4250.0 78.35044626032479
4370.0 78.32328212313686
4500.0 77.95115455372276
4620.0 77.29941664899684
4750.0 76.82261914095379
4870.0 76.84496784523516
5000.0 77.24821484229706
5150.0 77.19596172210731
5300.0 76.79361300444965
5450.0 76.7687488251614
5600.0 77.19409713211778
5800.0 77.72888604374234
6000.0 77.96057308428068
6150.0 78.23778011303921
6300.0 78.34936173578292
6500.0 78.30239503540669
6700.0 78.46725508688131
6900.0 78.20096218327912
7100.0 77.29812130572216
7300.0 77.60128388442678
7500.0 78.10867541488291
7750.0 77.99551660192895
8000.0 77.76783175432392
8250.0 77.0177260673794
8500.0 76.26146748581209
8750.0 75.8137677341056
9000.0 76.06827855698917
9250.0 76.08776320756593
9500.0 76.07186234698133
9750.0 76.83457611720158
10000.0 77.45794347329803
10300.0 77.87116227954108
10600.0 77.96344920801502
10900.0 78.09247439970703
11200.0 78.42885905597947
11500.0 78.36916739567015
11800.0 77.05238120809958
12200.0 76.51615195450132
12500.0 77.29190050391928
12800.0 77.71496764607932
13200.0 76.68373012377815
13600.0 75.46096411651268
14000.0 74.96835801779972
14500.0 74.6041553966306
15000.0 74.69423088910398
15500.0 76.07937145140303
16000.0 76.42661289991266
16500.0 75.76361371837407
17000.0 75.96744846492541
17500.0 74.05956622944713
18000.0 72.02566124820792
18500.0 68.49731967051761
19000.0 68.6471050141202
19500.0 62.38425310547002
