Freq "Early Reflections"
22.4 23.03478959163634
23.0 24.906831964768955
23.6 26.869351681006762
24.0 29.98000772517956
25.0 32.652726724341974
25.8 34.79587494853321
26.5 36.728537769239935
27.2 39.43593917266601
28.0 41.7428217405906
29.0 43.663772707327055
30.0 45.72871772507493
30.7 48.30533745114407
31.5 50.36917995167754
32.5 52.30648068859908
33.5 54.902679515887115
34.5 57.145129348926574
35.5 59.05222235966026
36.5 61.538654840946876
37.5 63.635790540754556
38.7 65.58900765131526
40.0 67.75287719011445
41.2 69.56036188845542
42.5 71.41669709749276
43.7 73.1357122279396
45.0 74.62750103776713
46.2 76.02774032006407
47.5 77.24325471060142
48.7 78.16293972363034
50.0 78.99228876349066
51.5 79.58181651525949
53.0 80.10508875636434
54.5 80.40347012260487
56.0 80.68344277598824
58.0 80.89457583635078
60.0 81.09061478895408
61.5 81.28648222246237
63.0 81.45969050009484
65.0 81.65575838160305
67.0 81.76184184058731
69.0 81.83552621705867
71.0 81.91758668220085
73.0 82.02141566803327
75.0 82.15828215439556
77.5 82.2356020812385
80.0 82.42389555661462
82.5 82.66648344617964
85.0 82.94587179558197
87.5 83.13682110219587
90.0 83.17464533867192
92.5 83.17654106557266
95.0 83.16497647067361
97.5 83.15317323155124
100.0 82.9774912227267
103.0 82.90433043998654
106.0 82.83560303457539
109.0 82.67103860703007
112.0 82.47364769391892
115.0 82.22168438854195
118.0 82.04554912061145
122.0 81.83329580066855
125.0 81.60497568466198
128.0 81.40546849649459
132.0 81.24061577216196
136.0 81.10400413780424
140.0 81.01064327798194
145.0 80.82990624916069
150.0 80.66494203971133
155.0 80.57792654505793
160.0 80.4129361517796
165.0 80.2673645773033
170.0 80.01302486092847
175.0 79.70593688349355
180.0 79.38310117307708
185.0 79.05378174103195
190.0 78.67052910353276
195.0 78.40813220420145
200.0 78.20138555089493
206.0 77.90635952254831
212.0 77.62080519785101
218.0 77.2432163667198
224.0 76.77315356196526
230.0 76.30901809592564
236.0 75.84244947720946
240.0 75.43031764963143
250.0 75.15154089535122
258.0 75.04938527618128
265.0 74.98432821437557
272.0 74.76513073000416
280.0 74.58443288051758
290.0 74.49191348828721
300.0 74.50702556881093
307.0 74.6519889963941
315.0 74.87826883191494
325.0 75.04991694876283
335.0 74.82206260529523
345.0 74.31849466260987
355.0 73.7938554157506
365.0 73.54049815310381
375.0 73.09025109912484
387.0 72.58571536655231
400.0 72.1299287691851
412.0 72.01505240337575
425.0 72.04510479826372
437.0 72.10849100397674
450.0 72.00174913163409
462.0 72.46177005852778
475.0 74.25588251668829
487.0 75.03249962468617
500.0 73.81603634722401
515.0 71.49310704928634
530.0 69.76573823725016
545.0 70.34572141633244
560.0 71.17817534679843
580.0 71.28550571977304
600.0 71.13905670814856
615.0 71.39469897137577
630.0 71.6194492641413
650.0 71.64975849685173
670.0 71.88604998524484
690.0 72.43242432656716
710.0 73.02008988184971
730.0 73.38424672435254
750.0 73.23378655205329
775.0 73.32879565920797
800.0 74.17838868163919
825.0 73.45425018106624
850.0 71.70109811947233
875.0 71.55210716304622
900.0 71.87280955940658
925.0 72.20718363300075
950.0 72.51309265132035
975.0 72.7578952992526
1000.0 72.84753936011128
1030.0 73.00300634806307
1060.0 73.19339167687002
1090.0 73.64344082646639
1120.0 74.32705290682047
1150.0 74.5255139544294
1180.0 74.63165101764484
1220.0 75.12591619100907
1250.0 76.12591227855158
1280.0 77.45442398089607
1320.0 77.19017707104884
1360.0 75.25902887794786
1400.0 74.39654247416216
1450.0 73.35263982402394
1500.0 73.01170261225982
1550.0 72.41718571023672
1600.0 72.51871925399051
1650.0 72.15640694397824
1700.0 72.18225696378768
1750.0 72.95450099011212
1800.0 73.62559310364446
1850.0 73.27309599467836
1900.0 73.59649998143563
1950.0 73.37223098017542
2000.0 72.78298530755264
2060.0 72.65802843813476
2120.0 72.61761088487992
2180.0 72.53941521989614
2240.0 72.71289356026351
2300.0 72.53978892957828
2360.0 72.36791085863798
2400.0 71.92540829327574
2500.0 72.1269898480492
2580.0 72.129889912542
2650.0 72.79132234470089
2720.0 73.05219554782404
2800.0 72.8742815433039
2900.0 72.45396347104423
3000.0 72.55347400205906
3070.0 72.64488239049142
3150.0 72.45450115150908
3250.0 72.8063402387275
3350.0 73.08332740762623
3450.0 72.94381080603792
3550.0 73.15389144288844
3650.0 72.7365756458394
3750.0 72.1752044685537
3870.0 72.42010453516419
4000.0 72.47353893700141
4120.0 72.19271887623022
4250.0 72.33173855962603
4370.0 72.97302830173227
4500.0 73.81930946749762
4620.0 74.17531333426479
4750.0 74.69013166899735
4870.0 74.50803457030115
5000.0 74.38377286308615
5150.0 73.94918164396421
5300.0 73.46673439785192
5450.0 73.60562924122615
5600.0 73.98456776346863
5800.0 74.38042382304344
6000.0 75.0037508252125
6150.0 75.4718659557006
6300.0 76.09854202521215
6500.0 76.74160663173956
6700.0 76.97600668502609
6900.0 76.87292044624382
7100.0 76.2007274055972
7300.0 75.79241666488883
7500.0 76.12631728998967
7750.0 76.30839087203704
8000.0 76.22433769387604
8250.0 76.12819561901397
8500.0 76.60001022630165
8750.0 76.32237059578485
9000.0 76.00445335556812
9250.0 75.97013038046721
9500.0 76.78782769756184
9750.0 77.10629074696598
10000.0 77.22085797918976
10300.0 77.06523107620069
10600.0 77.1930854120594
10900.0 77.3811572919007
11200.0 78.11465556240746
11500.0 79.2985702735483
11800.0 79.63775653114088
12200.0 79.36304812933123
12500.0 79.72583048284773
12800.0 79.61628671324983
13200.0 79.74048034432225
13600.0 80.45448302645799
14000.0 80.42299274469848
14500.0 77.87116330451668
15000.0 79.69691320956159
15500.0 83.5097923331179
16000.0 83.13096772367685
16500.0 80.19151704326275
17000.0 76.7847782184093
17500.0 73.50757174400988
18000.0 73.61205885388017
18500.0 75.6702013673971
19000.0 74.52796920645763
19500.0 71.45432774776789
