Freq "Side Wall Bounce"
22.4 7.768791488152033
23.0 7.885230232068039
23.6 8.164238328812445
24.0 10.823804498674349
25.0 13.394006427978013
25.8 15.550548936222384
26.5 17.484076670641116
27.2 19.16507122708569
28.0 20.369127588743936
29.0 21.042282031333173
30.0 22.036306446966137
30.7 25.32853076219311
31.5 28.83953897660882
32.5 32.405847698245
33.5 32.6611692667656
34.5 33.92824038024827
35.5 35.26119637126203
36.5 36.200437125338766
37.5 37.146694347466166
38.7 38.293335419608496
40.0 40.757271103751236
41.2 43.23108839599388
42.5 45.41439857063503
43.7 47.18180559475266
45.0 49.13338873805267
46.2 49.99946502832489
47.5 50.7854387345196
48.7 53.31195843128151
50.0 55.13431700022443
51.5 55.345256394442345
53.0 56.36410583302663
54.5 57.99320747279353
56.0 59.55959369535424
58.0 61.31146383663963
60.0 62.88285104995151
61.5 64.37413003348803
63.0 65.71222396403192
65.0 66.99515095314551
67.0 68.42830196814066
69.0 69.72501024326361
71.0 70.98487194889671
73.0 72.48468403315078
75.0 73.91855901424434
77.5 75.09604779979108
80.0 76.09515443391403
82.5 77.2135792049202
85.0 78.25385805909295
87.5 79.1149605484886
90.0 79.9149605484886
92.5 80.71496054848859
95.0 81.45662667833253
97.5 82.15662667833254
100.0 82.71864279775554
103.0 83.3001771695519
106.0 83.72186433965219
109.0 84.00383332287548
112.0 84.20383332287548
115.0 84.36299879461147
118.0 84.38487194889672
122.0 84.30383332287548
125.0 84.10383332287549
128.0 83.86492782137437
132.0 83.5071411318212
136.0 83.03336010906051
140.0 82.61618783811346
145.0 82.55086236357516
150.0 82.27782663121899
155.0 81.96082962934437
160.0 81.74254288193531
165.0 81.49771174655343
170.0 81.22095898431922
175.0 80.96608651123383
180.0 80.81178482676984
185.0 80.77348453628694
190.0 80.71965831115703
195.0 80.70202959362231
200.0 80.54270790462915
206.0 80.43911586757297
212.0 80.26656600521741
218.0 80.06911372047455
224.0 80.25224807784198
230.0 80.12768032957938
236.0 79.72807741405374
240.0 79.35393788494119
250.0 79.20419509560821
258.0 79.2080808096654
265.0 79.42109796507313
272.0 79.60707129014118
280.0 79.8556393772466
290.0 80.0844665932736
300.0 80.1796575526737
307.0 80.15563937724662
315.0 80.00832630660031
325.0 79.9083263066003
335.0 79.81608417843779
345.0 79.68286843275784
355.0 79.59858776177121
365.0 79.92505870931461
375.0 80.1406908228791
387.0 80.11395790457497
400.0 80.11395790457497
412.0 80.18780775943192
425.0 80.23556024015839
437.0 80.40101796013073
450.0 80.31246631600568
462.0 80.04783812161322
475.0 80.14703106014396
487.0 80.17288745074285
500.0 80.14704883682435
515.0 80.07736150035151
530.0 79.28966433844198
545.0 78.54693062809231
560.0 77.56850378181196
580.0 77.11768134240826
600.0 77.06853738906727
615.0 76.38237872360399
630.0 76.40978799557092
650.0 76.9764514149233
670.0 77.57645141492331
690.0 77.60589998622139
710.0 77.71770910621072
730.0 77.23283844649337
750.0 76.99112255678205
775.0 76.54181132895036
800.0 76.8825823179632
825.0 76.85087065705838
850.0 76.17845717817724
875.0 76.24584456856266
900.0 76.46959460091273
925.0 76.08712737609211
950.0 75.98440979354164
975.0 75.97422037693701
1000.0 75.74609356846923
1030.0 76.07262788622499
1060.0 76.47980409571899
1090.0 75.62212981997621
1120.0 75.26177387876791
1150.0 74.9751256498625
1180.0 74.94660257960808
1220.0 75.31445422176921
1250.0 75.08213167969153
1280.0 74.69304221462744
1320.0 73.23371933076126
1360.0 73.77178084778782
1400.0 73.78764050640396
1450.0 74.63386682343086
1500.0 73.63239881552548
1550.0 74.70366029806188
1600.0 75.71472538398781
1650.0 76.53023531527317
1700.0 76.8773665119883
1750.0 76.71576572133029
1800.0 76.76782614982034
1850.0 75.8355199861976
1900.0 76.73889228788744
1950.0 77.95348238957436
2000.0 78.8142657911973
2060.0 78.14314978806263
2120.0 80.20215969356136
2180.0 81.3321667921262
2240.0 80.90828592527664
2300.0 80.11852605559554
2360.0 79.52152137072355
2400.0 76.82703998094712
2500.0 77.05739945863075
2580.0 77.45701855926791
2650.0 77.50567038960092
2720.0 77.08416012049551
2800.0 76.74973430150872
2900.0 76.78176188375068
3000.0 75.62924454855293
3070.0 75.98556784406411
3150.0 75.588524236392
3250.0 77.67493625380143
3350.0 78.76117647015101
3450.0 79.29684374206764
3550.0 80.14001680404293
3650.0 78.65024804079655
3750.0 77.18514995331884
3870.0 75.37514018617571
4000.0 72.80338507742243
4120.0 72.81170025778657
4250.0 74.04260262855416
4370.0 75.2989624381473
4500.0 74.27742557612001
4620.0 73.30949641998126
4750.0 73.71336147126829
4870.0 73.49934988084135
5000.0 74.28256574276017
5150.0 75.39655848280624
5300.0 74.96734120665923
5450.0 74.51410021786081
5600.0 74.06973046451618
5800.0 75.09408696730644
6000.0 75.31310957225854
6150.0 74.77343769753453
6300.0 75.66887825600028
6500.0 73.64269249488021
6700.0 70.96827126654354
6900.0 72.56329097336703
7100.0 75.33373943415724
7300.0 76.44886143484561
7500.0 76.37790576081558
7750.0 74.92088853017911
8000.0 73.9323128277791
8250.0 76.07171534135107
8500.0 78.15807704233974
8750.0 77.41414191756371
9000.0 75.68286463664089
9250.0 74.57663630290114
9500.0 74.11606855634098
9750.0 74.39628063371947
10000.0 74.81733405436054
10300.0 74.51343533338466
10600.0 74.82009147705867
10900.0 74.75190698726482
11200.0 75.14125992583291
11500.0 77.10155164890536
11800.0 76.72353861806792
12200.0 73.10134543609949
12500.0 70.17926710775448
12800.0 74.27501942485864
13200.0 77.11254592251322
13600.0 74.17047891583293
14000.0 68.12000499726024
14500.0 68.02745558985265
15000.0 70.89713907532897
15500.0 70.12742052544398
16000.0 68.26420758798238
16500.0 69.91209611033622
17000.0 64.79084457963708
17500.0 62.267206707406984
18000.0 66.29484180167066
18500.0 58.68303999519222
19000.0 64.85269997066594
19500.0 62.22616884376188
