Freq "Estimated In-Room Response"
22.4 8.215937168990095
23.0 9.215937168990095
23.6 10.099352404347243
24.0 10.838496835199848
25.0 11.577152101782602
25.8 13.311682280467764
26.5 15.08430015309655
27.2 16.510993522932395
28.0 17.73533194572441
29.0 18.852253221861005
30.0 19.837222616747297
30.7 21.299679551560203
31.5 23.10266073602638
32.5 24.518753973931055
33.5 25.718753973931072
34.5 26.77715210178262
35.5 27.837222616747326
36.5 29.210993522932384
37.5 30.318753973931067
38.7 31.263239018581984
40.0 32.05225322186102
41.2 33.18960064639056
42.5 34.490574895825645
43.7 35.504243796038295
45.0 36.37776966497442
46.2 37.335331945724406
47.5 38.510993522932395
48.7 39.502660736026385
50.0 40.41099352293237
51.5 41.570020007509086
53.0 42.73795749638528
54.5 43.799968593235846
56.0 45.199752408550566
58.0 46.928696153367255
60.0 48.41593716899011
61.5 49.8187987364649
63.0 51.199752408550566
65.0 52.41879873646489
67.0 53.86323901858198
69.0 55.29935240434726
71.0 56.652253221861045
73.0 58.19925638708207
75.0 59.59925638708208
77.5 60.89935240434724
80.0 62.09935240434726
82.5 63.42634071842208
85.0 64.9334740731817
87.5 66.25340551869714
90.0 67.43768850511793
92.5 68.43071942952422
95.0 69.2163362172324
97.5 70.10998057046739
100.0 71.09612576930955
103.0 71.86627395830412
106.0 72.56551688985833
109.0 73.41376791745071
112.0 74.11148063461414
115.0 74.5955919054975
118.0 75.01453898349503
122.0 75.37077215098894
125.0 75.69325639078664
128.0 75.89585713066813
132.0 76.10329350987983
136.0 76.2790666221819
140.0 76.39945611294876
145.0 76.51600520439543
150.0 76.56475670607965
155.0 76.60900276495882
160.0 76.61430637607133
165.0 76.60377234651666
170.0 76.55580471155932
175.0 76.48889503310156
180.0 76.41945740343158
185.0 76.36745672198158
190.0 76.2932323744781
195.0 76.20499738256453
200.0 76.13618924545092
206.0 76.02326616235247
212.0 75.90504557228208
218.0 75.84688493705723
224.0 75.75546408150936
230.0 75.64888022903683
236.0 75.55043332901924
240.0 75.43510812050683
250.0 75.32601688531479
258.0 75.21522337091723
265.0 75.05582917121167
272.0 74.90978044988475
280.0 74.77231181357338
290.0 74.633774224521
300.0 74.51266504871737
307.0 74.40350015720189
315.0 74.31500350109434
325.0 74.27313145350948
335.0 74.32480430402518
345.0 74.42751293364321
355.0 74.58195927658646
365.0 74.72785221296678
375.0 74.8619144994625
387.0 74.93844871143172
400.0 74.96840538250659
412.0 74.96324910900346
425.0 74.84631075731797
437.0 74.78147674485474
450.0 74.64352147478756
462.0 74.47259702029368
475.0 74.30263582658866
487.0 74.18284019688778
500.0 74.10391561188484
515.0 74.08017340680978
530.0 74.11382405619025
545.0 74.1995207832533
560.0 74.36976488375184
580.0 74.45930761443644
600.0 74.56755243374286
615.0 74.68050202990746
630.0 74.74096599569991
650.0 74.78360261125924
670.0 74.71521791879358
690.0 74.6682492943977
710.0 74.50487900085798
730.0 74.37891330419687
750.0 74.23248599117734
775.0 74.06195156249838
800.0 73.81302074418593
825.0 73.68048893228372
850.0 73.5173180240569
875.0 73.31467568982711
900.0 73.15142909371812
925.0 73.02639255849842
950.0 72.95542016245189
975.0 73.02531683091036
1000.0 73.13543607613009
1030.0 73.19456700176816
1060.0 73.14309294524055
1090.0 72.96406149640443
1120.0 72.72094798849476
1150.0 72.52738794512251
1180.0 72.35525068955405
1220.0 72.28245161845254
1250.0 72.30809844804593
1280.0 72.40287310614805
1320.0 72.522674193773
1360.0 72.59661266633954
1400.0 72.60191815360041
1450.0 72.51767602649434
1500.0 72.40914874119831
1550.0 72.28035558695909
1600.0 72.33735387916244
1650.0 72.42394690329168
1700.0 72.55386829484473
1750.0 72.67498853382858
1800.0 72.7126094416533
1850.0 72.54541856877859
1900.0 72.11946165581143
1950.0 71.47126718493465
2000.0 71.36080707212629
2060.0 71.96025181122548
2120.0 72.19493538729677
2180.0 71.90313885696362
2240.0 71.42558947374712
2300.0 70.89458118030889
2360.0 70.7113366426309
2400.0 70.92066227328684
2500.0 71.09017984558353
2580.0 70.97101532926716
2650.0 70.57025822926644
2720.0 70.52862122740544
2800.0 71.02209011645255
2900.0 71.40693697067346
3000.0 71.30799831514649
3070.0 71.02381214428318
3150.0 70.95500367621068
3250.0 70.98287781358425
3350.0 70.7583343352886
3450.0 70.38080242865901
3550.0 70.12493654169172
3650.0 70.12070927630919
3750.0 70.14199788309715
3870.0 70.38322033805947
4000.0 70.76658864221176
4120.0 70.86540929673058
4250.0 70.44395175215895
4370.0 70.21927394821545
4500.0 70.37203519173455
4620.0 70.30877335828546
4750.0 70.01067559423838
4870.0 69.55242827713799
5000.0 68.83349537782
5150.0 68.36317226217449
5300.0 68.74231277023316
5450.0 69.5585980686599
5600.0 69.7799489335584
5800.0 69.24752716867094
6000.0 68.32695278924335
6150.0 67.96527952066815
6300.0 68.30416180654116
6500.0 68.88884803414136
6700.0 69.09069420579034
6900.0 69.04695576040488
7100.0 69.14858760869089
7300.0 69.24486596618377
7500.0 69.1683921539907
7750.0 69.37358753507475
8000.0 69.64061429634833
8250.0 70.1280847332631
8500.0 70.43586426532683
8750.0 70.64566753079863
9000.0 71.72091909942431
9250.0 73.04637693636705
9500.0 73.65585239579026
9750.0 72.7857305809808
10000.0 71.20416275193593
10300.0 70.11330021951119
10600.0 70.51895824431338
10900.0 72.3245141727542
11200.0 73.40494801247733
11500.0 73.77243607192973
11800.0 72.34913163623922
12200.0 70.75750464623252
12500.0 71.87220967381323
12800.0 73.1979191032682
13200.0 73.06977155530218
13600.0 72.29493550877798
14000.0 71.3489107076779
14500.0 70.65422562367984
15000.0 69.84571110144874
15500.0 69.21036233401024
16000.0 68.57799438542669
16500.0 68.86487629926012
17000.0 69.77244464555413
17500.0 69.30816672746201
18000.0 67.47833970132392
18500.0 65.31866642997184
19000.0 63.37207536936573
19500.0 63.14627736981551
