Freq,On Axis,Listening Window,Sound Power,Early Reflections,Early Reflections DI,Sound Power DI,DI offset
20.5078,68.8822,68.86716478297983,68.47321065761525,68.65858354271136,40.20858124026847,40.39395412536457,40
21.9727,69.8662,69.84921251608114,69.3651214348261,69.59879794015835,40.25041457592279,40.484091081255045,40
23.4375,70.9311,70.91547700532712,70.46809826772063,70.681206133336,40.234270871991114,40.447378737606485,40
24.9023,71.5888,71.5702932962504,71.07318108464467,71.31174726673648,40.25854602951392,40.497112211605724,40
26.3672,72.0357,72.02110486331323,71.57316190481905,71.7898872573532,40.231217605960026,40.44794295849418,40
27.832,73.2659,73.24478064929265,72.70372302286334,72.96611264855377,40.278668000738875,40.54105762642931,40
29.2969,73.7948,73.77237345304336,73.214284152518,73.4859361523278,40.28643730071556,40.55808930052535,40
30.7617,74.5494,74.52477762089502,73.94216403875252,74.22253318051564,40.30224444037938,40.5826135821425,40
32.2266,75.1796,75.15615364046843,74.59828542533572,74.86758701782396,40.28856662264447,40.557868215132714,40
33.6914,75.5818,75.5596244085371,75.02650891941596,75.28202461299752,40.27759979553959,40.533115489121144,40
35.1562,76.1863,76.16033604644605,75.54877737354549,75.84723788952026,40.31309815692579,40.61155867290056,40
36.6211,76.8056,76.77820915504144,76.15513465787359,76.45788816767848,40.32032098736296,40.62307449716785,40
38.0859,77.4449,77.41610268186987,76.75996573061877,77.08064613682023,40.33545654504964,40.6561369512511,40
39.5508,78.01029999999999,77.98210707479633,77.35049723448296,77.6575194352438,40.32458763955253,40.631609840313374,40
41.0156,78.8438,78.82068765751954,78.31664454860773,78.55463019574952,40.26605746177002,40.504043108911816,40
42.4805,78.9978,78.97056804484713,78.42406858238438,78.6821215102653,40.28844653458182,40.54649946246275,40
43.9453,79.4818,79.45221568725147,78.87126402297937,79.14654208060836,40.30567360664311,40.58095166427209,40
45.4102,79.9806,79.95018215622633,79.35840134612651,79.63891109708119,40.31127105914514,40.59178081009982,40
46.875,80.4238,80.39321491414852,79.82127037310563,80.09164601943344,40.301568894715075,40.57194454104288,40
48.3398,80.85549999999999,80.82422500093597,80.25355014795821,80.52209254648959,40.30213245444638,40.57067485297776,40
51.2695,81.754,81.71766682522762,81.0808362097715,81.38132687761536,40.33633994761226,40.63683061545612,40
52.7344,82.1748,82.13756556841551,81.49623261861436,81.79950720789334,40.33805836052217,40.64133294980115,40
54.1992,82.4894,82.45196321274899,81.84079358236394,82.128672124888,40.323291087860994,40.61116963038505,40
55.6641,82.8596,82.8215626654738,82.21338322059833,82.49925684130855,40.322305824165255,40.608179444875475,40
58.5938,83.55559999999998,83.51358092358397,82.83852715190028,83.15785537438792,40.35572554919605,40.67505377168369,40
60.0586,83.9261,83.88307067892502,83.23079797750118,83.53620934202611,40.34686133689891,40.65227270142384,40
62.9883,84.58650000000002,84.53984348701724,83.8541498301444,84.17472701767291,40.36511646934433,40.68569365687284,40
64.4531,84.9046,84.8555162778784,84.15111263095868,84.47871471325226,40.376801564626135,40.704403646919715,40
67.3828,85.4702,85.41839398041655,84.70388347301974,85.03096319538965,40.38743078502691,40.71451050739681,40
68.8477,85.7282,85.67606333320431,84.9687021668538,85.29149946287765,40.38456387032666,40.70736116635051,40
71.7773,86.3359,86.27981105928085,85.54662979061908,85.88460059734523,40.39521046193562,40.73318126866177,40
74.707,86.90759999999999,86.8479852079302,86.09607854314045,86.44627914212519,40.401706065805,40.75190666478974,40
77.6367,87.3509,87.28760849376634,86.53007986727708,86.87863953346137,40.408968960304975,40.75752862648926,40
79.1016,87.5534,87.4875880524575,86.71089251321135,87.06733724439799,40.42025080805951,40.77669553924615,40
82.0312,87.9578,87.88763243473844,87.06185291214588,87.44187462835025,40.44575780638819,40.825779522592555,40
84.9609,88.2612,88.18893934151745,87.34759417951157,87.73409707032975,40.4548422711877,40.84134516200588,40
87.8906,88.391,88.31670057242928,87.5369334392223,87.88628726334372,40.430413309085566,40.77976713320699,40
90.8203,88.6782,88.59480954358459,87.72533947259842,88.11818165454785,40.476627889036735,40.86947007098617,40
95.2148,88.99820000000001,88.90466690292186,87.89171063699537,88.35918017061223,40.54548673230963,41.01295626592649,40
98.1445,89.0904,88.992036354405,87.9305923535856,88.4262931834182,40.565743170986806,41.06144400081941,40
101.074,89.02389999999998,88.92048429882128,87.82595346912933,88.34154016130377,40.57894413751751,41.09453082969195,40
105.469,89.1931,89.08262381149675,87.90522546312769,88.4703066231118,40.61231718838495,41.17739834836905,40
108.398,89.4402,89.32317195622244,88.0478375706272,88.66499375312696,40.658178203095474,41.275334385595244,40
112.793,89.5139,89.38755060785418,88.05197269790504,88.69321188553924,40.69433872231494,41.33557790994914,40
117.188,89.4875,89.35603701451997,88.02773497358174,88.66379540238579,40.69224161213418,41.328302040938226,40
120.117,89.5075,89.37010493824867,87.97976884622717,88.64945105473912,40.720653883509556,41.3903360920215,40
124.512,89.46759999999999,89.32327622056539,87.89500059773279,88.57569567995311,40.747580540612276,41.4282756228326,40
128.906,89.3643,89.21410530029601,87.73434483425581,88.43832655282125,40.77577874747476,41.479760466040204,40
133.301,89.256,89.09754807862448,87.56012268207633,88.28704498052893,40.81050309809555,41.53742539654816,40
139.16,89.2051,89.03198835729944,87.3366324663496,88.14543251160349,40.88655584569595,41.69535589094984,40
143.555,89.1296,88.9495824302726,87.16980410407022,88.0245287238229,40.9250537064497,41.779778326202376,40
147.949,89.0613,88.87051926387552,86.99394696189172,87.89912583326395,40.97139343061157,41.8765723019838,40
153.809,89.0021,88.79233769757965,86.69537987641857,87.71930089677743,41.07303680080223,42.096957821161084,40
159.668,89.2487,89.0366160632065,86.99602906466608,87.98246968421098,41.05414637899551,42.04058699854042,40
165.527,89.3621,89.13727328530966,87.07664077587889,88.08057316430748,41.05670012100218,42.060632509430775,40
171.387,89.45530000000001,89.22067665063518,86.97469041649674,88.08820430688661,41.132472343748574,42.24598623413844,40
177.246,89.2307,88.99038890334772,86.77678899361752,87.86076463730926,41.12962426603846,42.213599909730206,40
183.105,89.3367,89.07700516720583,86.65793599791014,87.86536219146087,41.21164297574495,42.41906916929568,40
188.965,89.5288,89.2481222124516,86.67498077515971,87.97125771851348,41.27686449393812,42.573141437291895,40
196.289,89.7063,89.41209937165183,86.80927228303095,88.10070200526425,41.31139736638758,42.602827088620884,40
203.613,90.2807,89.97029602732133,86.81738937947169,88.50887602447051,41.461420002850815,43.15290664784963,40
210.938,89.9875,89.6827465412496,86.62789201767178,88.26645749197979,41.41628904926981,43.054854523577816,40
218.262,89.8035,89.47623613015735,86.58825344362968,88.07927249412833,41.396963636029014,42.887982686527664,40
225.586,90.5572,90.20830559395621,86.98532920962442,88.68853427199251,41.5197713219637,43.22297638433179,40
232.91,90.6277,90.27373480279607,86.85896315195997,88.72604838284606,41.54768641995001,43.4147716508361,40
241.699,90.2735,89.91252885204959,86.52622999051799,88.38333393349086,41.52919491855873,43.3862988615316,40
250.488,91.2491,90.8481811176551,87.01797113453283,89.11728626843342,41.730894849221684,43.83020998312227,40
259.277,90.61459999999998,90.24255904520814,86.80010521762482,88.64655593501936,41.596003110188775,43.44245382758332,40
268.066,90.0446,89.64697921577289,86.10090672454382,87.98947004741589,41.657509168356995,43.54607249122907,40
276.855,90.03749999999998,89.63165372683541,86.0028301156425,87.9653134202835,41.666340306551916,43.628823611192914,40
287.109,89.7914,89.35242578744071,85.77074847460159,87.72929490166226,41.62313088577845,43.58167731283912,40
297.363,90.51,90.02746291095318,85.81978153954562,88.22873042417254,41.79873248678064,44.20768137140756,40
307.617,89.5947,89.18101297204218,85.68577795200422,87.66508288123703,41.515930090805156,43.49523502003797,40
319.336,89.27819999999998,88.79898837351804,85.12983632448719,87.14677254397684,41.652215829541205,43.669152049030856,40
329.59,88.6352,88.207746712455,84.69769572801525,86.57462734941019,41.63311936304481,43.51005098443976,40
341.309,88.3033,87.77596880487191,84.34929084034722,86.04984376815139,41.72612503672052,43.426677964524686,40
353.027,88.8925,88.35160125261909,84.21995815176253,86.39974479922572,41.951856453393376,44.131643100856564,40
366.211,89.71559999999998,89.14577067001825,84.57107591051737,87.10003760363264,42.04573306638561,44.574694759500886,40
379.395,89.2689,88.75229501859069,84.69752696026929,86.92300079046875,41.82929422812194,44.0547680583214,40
392.578,89.1612,88.58540673125722,84.38492332552882,86.50870117351288,42.07670555774435,44.200483405728406,40
405.762,89.2994,88.66976222672335,84.18680885418429,86.44016894835688,42.229593278366465,44.48295337253906,40
420.41,89.30220000000001,88.70235534242175,84.41738098452898,86.62950082404662,42.07285451837514,44.28497435789278,40
435.059,89.7959,89.15757947762606,84.76075830186169,86.89461054832705,42.26296892929901,44.39682117576437,40
451.172,90.86709999999998,90.23280476829002,84.67486110635186,87.76903094730037,42.46377382098966,45.55794366193817,40
465.82,89.9391,89.42041064079093,84.57756461049534,87.14647053253782,42.273940108253115,44.84284603029559,40
483.398,89.632,89.03596692999868,85.04372545611925,86.89899854107856,42.136968388920124,43.99224147387943,40
499.512,90.67,90.00733036862685,85.232706316125,87.57729207812503,42.43003829050183,44.77462405250185,40
517.09,91.0347,90.32578706162369,85.24037227371385,87.5890111853209,42.73677587630279,45.08541478790984,40
536.133,91.53940000000001,90.81651323585717,84.94594488562907,87.97464509141078,42.841868144446394,45.8705683502281,40
555.176,91.2863,90.75101884640046,85.22727337870252,88.36273308099797,42.388285765402486,45.523745467697935,40
574.219,91.3515,90.79047524898066,85.32133700123516,88.38241898615497,42.40805626282568,45.46913824774549,40
594.727,91.123,90.60574991062174,85.28788540334499,88.07993494480893,42.52581496581281,45.31786450727675,40
615.234,90.5069,90.15781143723379,85.18809620562992,87.945735090638,42.21207634659579,44.96971523160387,40
637.207,90.7761,90.32760315942637,85.07953304379505,87.96945466448871,42.358148494937666,45.24807011563132,40
659.18,89.81319999999998,89.5124180474495,84.61805941003317,87.0350778745279,42.4773401729216,44.89435863741633,40
682.617,89.6,89.45763203537088,84.9357580203322,87.17250890621156,42.28512312915932,44.52187401503868,40
707.52,89.2744,89.23433794889411,84.69737947460875,87.3667141407689,41.8676238081252,44.536958474285356,40
732.422,87.8156,88.33197621205774,84.39955456854891,86.48503713753344,41.8469390745243,43.93242164350883,40
757.324,88.028,88.45048570827913,84.66183557747968,86.8014481808254,41.64903752745373,43.788650130799454,40
785.156,87.2421,88.03644453432248,84.31349702544388,86.43511148781931,41.60133304650317,43.722947508878605,40
811.523,87.0268,87.8575204913855,84.31143929172639,86.14538904506976,41.71213144631574,43.54608119965911,40
840.82,86.853,87.82477509421416,84.17783001467723,85.91264190964635,41.91213318456781,43.646945079536934,40
870.117,86.2273,87.9596926493774,84.19209677093026,85.96982561227843,41.989867037098975,43.76759587844714,40
900.879,87.5277,88.75114538019652,84.94147338579852,86.8879112518979,41.863234128298615,43.809671994398,40
933.105,86.9421,88.51459531212775,84.75718091916089,86.63702971490851,41.877565597219245,43.757414392966865,40
965.332,87.4405,88.60659263877925,84.78320318912797,86.70956330076164,41.8970293380176,43.82338944965127,40
1000.49,86.4332,87.78282226248076,84.35160038813466,85.88483571653522,41.89798654594554,43.43122187434611,40
1035.64,87.0372,87.87769345124305,84.04316449033978,86.17223572940178,41.70545772184127,43.83452896090327,40
1072.27,86.1915,87.17577656754172,84.01937635906958,86.10203382569722,41.0737427418445,43.156400208472135,40
1108.89,86.4672,86.95171148753546,83.9528183273488,85.8543709616881,41.09734052584736,42.99889316018667,40
1148.44,86.97100000000002,86.55104549068474,84.04526472047124,85.86787807670999,40.68316741397476,42.505780770213505,40
1189.45,87.26619999999998,86.83725398274382,83.75293277880722,85.61062130485146,41.226632677892354,43.0843212039366,40
1230.47,87.99850000000002,87.28966332556588,83.9902136401084,86.11331526649964,41.17634805906624,43.29944968545749,40
1274.41,88.6056,87.54831084887736,83.80611790417396,86.01139204432586,41.536918804551505,43.742192944703405,40
1319.82,89.68990000000001,88.42566358666608,84.05418770788818,86.63373723909793,41.79192634756815,44.3714758787779,40
1366.7,89.67709999999998,88.7642132169973,84.75389990368676,87.35420562239084,41.41000759460647,44.01031331331055,40
1413.57,90.0449,88.9497142830737,84.93907404287837,87.82995202447353,41.119762258600176,44.01064024019533,40
1463.38,90.2116,89.03962168985602,84.68227633411274,87.53110545772932,41.508516232126695,44.35734535574328,40
1516.11,89.8534,88.58796330564455,84.22004972174115,86.9389626246705,41.649000680974055,44.3679135839034,40
1568.85,88.9007,88.15465285548922,83.89542414214036,86.41020049001325,41.744452365475965,44.25922871334886,40
1624.51,89.62739999999998,89.03663004601044,84.11747456248092,86.8139578107753,42.22267223523514,44.91915548352952,40
1681.64,90.2007,89.68119140617348,84.39054282623054,87.1178202379142,42.56337116825928,45.29064857994294,40
1741.7,90.3206,89.93324504070254,84.57755800332846,87.43092825756965,42.5023167831329,45.35568703737408,40
1803.22,90.59920000000001,90.00988949652104,84.14283867351791,86.90760419385079,43.10228530267025,45.867050823003126,40
1866.21,89.77829999999999,89.27070674554719,83.5355717038065,86.17748033610766,43.093226409439524,45.73513504174069,40
1932.13,89.9949,89.28116421280758,83.23413194163824,85.89442374617296,43.38674046663462,46.04703227116934,40
1999.51,90.9787,90.09711154161045,83.4300120702669,86.27920106839929,43.81791047321116,46.66709947134355,40
2069.82,91.664,90.77838343350527,83.67503933113383,86.56281560057634,44.215567832928926,47.10334410237144,40
2143.07,90.87829999999998,90.38926721013806,83.3687038801684,86.08355890155278,44.30570830858528,47.02056332996966,40
2219.24,89.0294,88.9535575833249,82.32370550444459,84.785198893968,44.16835868935689,46.629852078880305,40
2296.88,88.1391,88.3093782167239,82.09545730052777,84.54288962952357,43.76648858720033,46.21392091619613,40
2378.91,88.1407,88.84727500461186,82.53584081435976,84.95638140743286,43.890893597179,46.3114341902521,40
2462.4,89.17370000000001,90.01870608869095,83.45422993593616,85.95945574159114,44.059250347099805,46.56447615275479,40
2548.83,88.7742,89.79674527229975,83.29171165504842,85.73428540332695,44.062459868972795,46.50503361725133,40
2639.65,86.9454,88.24974013453144,82.71296229271562,84.70506769884125,43.54467243569019,45.53677784181582,40
2731.93,87.4345,87.769068990439,82.25215776469538,84.54686772551297,43.22220126492603,45.51691122574361,40
2828.61,88.4758,88.4332121073926,82.87307398694509,85.34022108069313,43.09299102669948,45.56013812044752,40
2928.22,88.77139999999999,88.65289878506246,83.34050145928286,85.7090117120366,42.94388707302586,45.3123973257796,40
3030.76,88.6466,88.36768476003597,83.30021093449167,85.67171353953177,42.695971220504205,45.0674738255443,40
3137.7,88.8125,87.9755134068893,83.18222635776549,85.90159928907048,42.07391411781883,44.79328704912382,40
3249.02,88.0726,87.43832025395055,82.80002687761387,85.7080404286584,41.73027982529214,44.63829337633668,40
3363.28,87.6535,87.10763349340567,82.44758821492118,85.50301709100508,41.604616402400595,44.66004527848449,40
3481.93,87.6419,87.13652877179682,82.57057128982284,85.5778514319459,41.55867733985092,44.56595748197398,40
3604.98,87.51869999999998,87.40264222303657,82.73696017207307,85.46257467406564,41.94006754897093,44.6656820509635,40
3732.42,88.61379999999998,88.04442982194503,82.69447570490935,85.54053672673083,42.503893095214195,45.34995411703568,40
3864.26,87.3393,86.88995562501174,82.16782437736332,85.17094732247739,41.71900830253435,44.72213124764842,40
4000.49,87.4615,86.65602538593923,81.675042463261,84.6711371699467,41.98488821599253,44.98098292267824,40
4141.11,88.536,87.2117723969662,81.72263349648627,84.98517899077241,42.226593406193786,45.48913890047993,40
4287.6,88.8297,87.24523107450413,81.55814830253611,85.07941516560821,42.16581590889592,45.68708277196802,40
4438.48,88.0659,87.87669719020546,81.93977029928675,85.56336762331665,42.31332956688881,45.93692689091871,40
4595.21,89.0228,87.86248947472426,81.7900965297669,85.66244534423497,42.20004413048929,46.07239294495736,40
4756.35,90.1165,88.8349005256798,82.2254767218687,86.08640282209205,42.748497703587745,46.6094238038111,40
4924.8,89.95379999999999,89.51173120136293,82.3223540674879,86.21954142124407,43.29218978011886,47.18937713387504,40
5097.66,89.4848,89.41924084545691,82.09490083835759,86.04116385956324,43.37807698589367,47.32434000709932,40
5277.83,90.0665,89.53581607322569,82.08071851855296,85.88193577435236,43.65388029887333,47.45509755467273,40
5463.87,90.2689,89.40072490574742,82.0096512838769,85.97908657315905,43.42163833258837,47.39107362187052,40
5657.23,89.4453,89.22410154394369,81.98468700671603,85.95670147706757,43.26740006687612,47.23941453722766,40
5856.45,88.43230000000001,88.5782583261397,81.6610910947108,85.78719395291867,42.79106437322103,46.917167231428905,40
6062.99,87.4875,88.55766454202075,81.80346173911926,85.7505499297015,42.80711461231924,46.75420280290149,40
6276.86,87.4786,87.79452395296998,81.35515506442658,85.05234770078981,42.74217625218017,46.4393688885434,40
6498.05,87.4592,87.7208003718042,81.25845945529387,84.72424465730582,42.996555714498385,46.46234091651033,40
6726.56,87.34840000000001,87.64395219410183,81.15185238232665,84.53659816475798,43.10735402934385,46.49209981177518,40
6963.87,87.68749999999999,87.45602578863821,80.97732484463431,84.8360096444677,42.62001614417052,46.478700944003904,40
7209.96,87.7335,87.61594089004724,81.0023906783045,84.83734104782961,42.77859984221763,46.61355021174275,40
7464.84,87.1094,87.01384659611709,80.51094728571637,84.60514541875271,42.40870117736438,46.50289931040072,40
7727.05,87.9569,87.24817502310806,80.31186353520793,84.57188614556175,42.67628887754631,46.93631148790013,40
7999.51,87.8844,86.68475766680521,79.83147744444699,84.14461602210538,42.54014164469983,46.85328022235822,40
8282.23,86.9483,86.64399737508263,79.62117849129874,83.68713931077302,42.956858064309614,47.0228188837839,40
8573.73,86.98729999999999,86.64240958469773,79.41818943824833,83.38047911421708,43.26193047048065,47.2242201464494,40
8876.95,86.8848,86.6859412321267,79.61824920051488,83.76152910838466,42.92441212374203,47.06769203161181,40
9188.96,86.98369999999998,86.72013563054661,79.44602805574358,83.88948708349942,42.83064854704719,47.274107574803025,40
9514.16,87.52660000000002,87.03308353162383,79.30616372498233,83.87869918807823,43.1543843435456,47.726919806641504,40
9849.61,87.62079999999999,87.01338117847472,79.05279474009274,83.83524602075296,43.178135157721755,47.96058643838198,40
10196.8,88.1557,87.1035348170998,78.96462371163223,83.75629969428194,43.347235122817864,48.13891110546757,40
10555.7,88.222,87.32709023272245,79.06962409581386,83.7086501271416,43.61844010558086,48.25746613690859,40
10927.7,88.7761,87.50671026538124,78.95258123046789,83.5920897686737,43.91462049670754,48.55412903491336,40
11313.0,89.1374,87.5535315591455,78.7350398353532,83.360069611306,44.193461947839495,48.81849172379229,40
11712.9,88.9774,87.41821588883728,78.51255561076123,83.16582653581108,44.2523893530262,48.905660278076056,40
12126.0,88.5561,87.36106788807506,78.41623599400852,83.16203070972199,44.199037178353066,48.94483189406654,40
