Freq "Listening Window"
20.5078 69.26146326782833
21.9727 70.24351100092964
23.4375 71.30977549017562
24.9023 71.9645917810989
26.3672 72.41540334816175
27.832 73.63907913414116
29.2969 74.16667193789186
30.7617 74.91907610574354
32.2266 75.55045212531694
33.6914 75.95392289338561
35.1562 76.55463453129455
36.6211 77.17250763988996
38.0859 77.81040116671838
39.5508 78.37640555964484
41.0156 79.21498614236803
42.4805 79.36486652969563
43.9453 79.84651417209999
45.4102 80.34448064107484
46.875 80.78751339899702
48.3398 81.21852348578447
51.2695 82.11196531007613
52.7344 82.53186405326402
54.1992 82.84626169759748
55.6641 83.21586115032231
58.5938 83.90787940843249
60.0586 84.27736916377353
62.9883 84.93414197186574
64.4531 85.2498147627269
67.3828 85.81269246526504
68.8477 86.07036181805282
71.7773 86.67410954412935
74.707 87.24228369277871
77.6367 87.68190697861485
79.1016 87.881886537306
82.0312 88.28193091958694
84.9609 88.58323782636596
87.8906 88.71099905727779
90.8203 88.9891080284331
95.2148 89.29896538777037
98.1445 89.38633483925351
101.074 89.31478278366978
105.469 89.47692229634525
108.398 89.71747044107092
112.793 89.78184909270269
117.188 89.75033549936849
120.117 89.76440342309716
124.512 89.7175747054139
128.906 89.60840378514452
133.301 89.49184656347299
139.16 89.42628684214795
143.555 89.3438809151211
147.949 89.26481774872401
153.809 89.18663618242816
159.668 89.43091454805499
165.527 89.53157177015817
171.387 89.61497513548368
177.246 89.38468738819623
183.105 89.47130365205435
188.965 89.64242069730011
196.289 89.80639785650033
203.613 90.36459451216983
210.938 90.0770450260981
218.262 89.87053461500585
225.586 90.60260407880473
232.91 90.66803328764458
241.699 90.30682733689811
250.488 91.2424796025036
259.277 90.63685753005664
268.066 90.0412777006214
276.855 90.02595221168392
287.109 89.74672427228921
297.363 90.42176139580168
307.617 89.5753114568907
319.336 89.19328685836656
329.59 88.60204519730351
341.309 88.1702672897204
353.027 88.74589973746761
366.211 89.54006915486674
379.395 89.1465935034392
392.578 88.97970521610573
405.762 89.06406071157186
420.41 89.09665382727026
435.059 89.55187796247456
451.172 90.62710325313854
465.82 89.81470912563945
483.398 89.43026541484718
499.512 90.40162885347537
517.09 90.72008554647219
536.133 91.21081172070568
555.176 91.14531733124896
574.219 91.18477373382916
594.727 91.00004839547024
615.234 90.5521099220823
637.207 90.72190164427488
659.18 89.906716532298
682.617 89.85193052021938
707.52 89.62863643374261
732.422 88.72627469690624
757.324 88.84478419312764
785.156 88.43074301917099
811.523 88.251818976234
840.82 88.21907357906267
870.117 88.35399113422592
900.879 89.14544386504502
933.105 88.90889379697626
965.332 89.00089112362775
1000.49 88.17712074732925
1035.64 88.27199193609157
1072.27 87.57007505239022
1108.89 87.34600997238398
1148.44 86.94534397553325
1189.45 87.23155246759232
1230.47 87.68396181041439
1274.41 87.94260933372585
1319.82 88.81996207151458
1366.7 89.15851170184581
1413.57 89.34401276792221
1463.38 89.43392017470454
1516.11 88.98226179049304
1568.85 88.54895134033772
1624.51 89.43092853085896
1681.64 90.075489891022
1741.7 90.32754352555104
1803.22 90.40418798136955
1866.21 89.66500523039569
1932.13 89.67546269765607
1999.51 90.49141002645895
2069.82 91.17268191835377
2143.07 90.78356569498656
2219.24 89.3478560681734
2296.88 88.7036767015724
2378.91 89.24157348946036
2462.4 90.41300457353945
2548.83 90.19104375714825
2639.65 88.64403861937994
2731.93 88.1633674752875
2828.61 88.82751059224111
2928.22 89.04719726991097
3030.76 88.76198324488448
3137.7 88.36981189173781
3249.02 87.83261873879906
3363.28 87.50193197825418
3481.93 87.53082725664532
3604.98 87.79694070788507
3732.42 88.43872830679355
3864.26 87.28425410986024
4000.49 87.05032387078774
4141.11 87.6060708818147
4287.6 87.63952955935262
4438.48 88.27099567505397
4595.21 88.25678795957275
4756.35 89.22919901052832
4924.8 89.90602968621144
5097.66 89.81353933030543
5277.83 89.9301145580742
5463.87 89.79502339059593
5657.23 89.6184000287922
5856.45 88.97255681098822
6062.99 88.95196302686925
6276.86 88.1888224378185
6498.05 88.11509885665271
6726.56 88.03825067895033
6963.87 87.85032427348672
7209.96 88.01023937489575
7464.84 87.4081450809656
7727.05 87.64247350795657
7999.51 87.07905615165372
8282.23 87.03829585993115
8573.73 87.03670806954624
8876.95 87.0802397169752
9188.96 87.11443411539511
9514.16 87.42738201647234
9849.61 87.40767966332324
10196.8 87.4978333019483
10555.7 87.72138871757095
10927.7 87.90100875022974
11313.0 87.94783004399402
11712.9 87.81251437368579
12126.0 87.75536637292355
12553.7 87.63413792620673
12996.1 87.47926892326447
13454.6 87.40970458312746
13929.2 87.49043406741082
14419.9 87.50692989746894
14928.2 87.54136271623236
15455.6 87.42806872925874
16000.5 87.28870269751228
16564.5 87.06458075324123
17148.9 86.83014534828186
17752.4 86.45395527464406
18379.4 85.99113599518971
19026.9 85.53069669420218
19697.8 85.03044007423324
19999.5 84.83065933540759
