Freq "Estimated In-Room Response"
20.0 54.349892
20.290899 54.97689100000001
20.586 55.59089300000001
20.8855 56.19089100000001
21.189301 56.77189299999999
21.497499 57.33589199999999
21.8102 57.88289300000001
22.127399 58.41489
22.4492 58.932891999999995
22.775801 59.43789300000002
23.1071 59.933891
23.443199 60.420891
23.7841 60.903893
24.1301 61.385891
24.4811 61.867892999999995
24.8372 62.350891000000004
25.1984 62.837891
25.564899 63.326893
25.9368 63.81788999999999
26.3141 64.30989100000001
26.6968 64.801888
27.0851 65.291893
27.479099 65.77789300000002
27.878799 66.259888
28.2843 66.735893
28.6957 67.205887
29.1131 67.669891
29.536501 68.126892
29.966101 68.577888
30.402 69.022888
30.8442 69.461891
31.2929 69.968887
31.748 70.480888
32.209801 70.728889
32.678299 71.124893
33.153599 71.51188700000002
33.635899 71.87989
34.125099 72.220886
34.621498 72.53289
35.125 72.813889
35.635899 73.06089
36.154301 73.279892
36.680199 73.47689099999998
37.213699 73.659889
37.755 73.83989
38.3041 74.028893
38.861301 74.232887
39.426498 74.45688599999998
40.0 74.698891
40.581799 74.955887
41.1721 75.220886
41.771 75.488892
42.378502 75.75489
42.9949 76.015892
43.6203 76.277893
44.254799 76.585892
44.898499 76.784889
45.551498 76.996887
46.2141 77.23288699999999
46.886299 77.46588900000002
47.568298 77.694893
48.260201 77.920891
48.962101 78.142891
49.674301 78.361893
50.396801 78.56832238107314
51.129902 78.7706480707461
51.8736 78.96986890564477
52.628101 79.16698325985597
53.3936 79.36099066724437
54.1702 79.55188276903174
54.958099 79.74166411690192
55.7575 79.92834323544618
56.568501 80.15389590227227
57.391399 80.33234460784142
58.226101 80.46367539832289
59.073 80.63289071101183
59.932301 80.79298720333938
60.804 80.94496996678157
61.6884 81.08483358817269
62.585701 81.21257487805359
63.496 81.32319085546868
64.419601 81.41469421229573
65.356598 81.48306406799234
66.307297 81.52831517206465
67.271698 81.54744177021901
68.250198 81.54644466393601
69.242897 81.52431804309785
70.250099 81.49506584733572
71.271896 81.46468642807163
72.308601 81.42617271162705
73.360298 81.38253321175758
74.427399 81.33175585336825
75.509903 81.26884716850624
76.608299 81.18980333940362
77.722603 81.09162979269703
78.853104 80.97332300339279
80.0 80.83587648920174
81.163597 80.67129264572426
82.3442 80.50656994010822
83.541901 80.357707184012
84.757 80.23970399669457
85.989899 80.12956197394726
87.240601 80.05928001969288
88.509598 80.03885888993732
89.797 80.07428745362186
91.103104 80.16558065389367
92.4282 80.30872257146935
93.772598 80.52472614324002
95.136597 80.74057448803217
96.520401 80.95227977073652
97.924301 81.16684431430919
99.348602 81.38525136512787
100.794 81.58551626066155
102.26 81.76463254375795
103.747 81.92760467820369
105.256 82.07842117143396
106.787 82.23808272316703
108.34 82.36660404946248
109.916 82.45796098271352
111.515 82.52517041158694
113.137 82.53223324093156
114.783 82.46213563574422
116.452 82.32289438299183
118.146 82.14849711770607
119.865 81.97193609915779
121.608 81.8582351592937
123.377 81.80937642436116
125.171 81.80337080500564
126.992 81.83720281105279
128.839 81.89288143284388
130.713 81.95140386847049
132.615 81.98976853855538
134.543 81.98399566557477
136.5 81.94205736268263
138.486 81.87696565244948
140.5 81.79372259895682
142.544 81.70532313366692
144.617 81.62977839444314
146.721 81.57207171677105
148.855 81.52922431082585
151.02 81.50321666875742
153.217 81.5010565151452
155.445 81.52275507765846
157.706 81.57129962691819
160.0 81.63269393625025
162.327 81.69694178076767
164.688 81.76303853538217
167.084 81.83298881057759
169.514 81.89279801331502
171.98 81.89145164693363
174.481 81.81697116816103
177.019 81.66934348976439
179.594 81.4545710762632
182.206 81.21266238127528
184.856 81.03961293268338
187.545 80.95842549146418
190.273 80.92309883807222
193.041 80.91563401010069
195.849 80.90303193555705
198.697 80.86730851755105
201.587 80.81345156740625
204.52 80.75045584664706
207.494 80.69334855064024
210.512 80.6540996320939
213.574 80.64073460128868
216.681 80.64524071987931
219.833 80.6716316077872
223.03 80.71890483624728
226.274 80.76605890436653
229.565 80.7970926704207
232.905 80.77301417928315
236.292 80.68683918544757
239.729 80.5535461246666
243.216 80.41315119165428
246.754 80.3216478955064
250.343 80.30904047539899
253.984 80.36034560985111
257.678 80.43854815616358
261.426 80.50765914605266
265.229 80.55167478104188
269.087 80.57859763350841
273.001 80.605442027416
276.972 80.64220544121233
281.0 80.68788650599441
285.088 80.73548091809383
289.234 80.78700539469993
293.441 80.81345996889583
297.709 80.7718445406194
302.04 80.7111505256181
306.433 80.66540552135521
310.89 80.65459409540993
315.412 80.72872164901618
320.0 80.8387876756528
324.655 80.89380575388542
329.377 80.88777880804783
334.168 80.83869616520016
339.028 80.80657075223458
343.959 80.85540914769605
348.962 80.98220124587947
354.038 81.13695498114501
359.188 81.26667232016833
364.412 81.28336306703845
369.713 81.16601654030715
375.09 81.02465431979496
380.546 80.91526098940001
386.081 80.87484831042886
391.697 80.95340878303901
397.394 81.05495800578375
403.175 81.10549217511392
409.039 81.10801419569701
414.989 81.06451742418596
421.025 81.01201822898439
427.149 80.97751740809797
433.362 80.97900800465855
439.665 81.00585598591381
446.06 81.04097927590824
452.548 81.06707784271013
459.131 81.07417070943153
465.809 81.07988860390205
472.584 81.08230844825924
479.458 81.06554427036586
486.432 81.0282858217983
493.507 80.98144772589676
503.906 80.98144772589676
509.766 81.0124434140647
515.625 81.04134417246287
521.484 81.06848998186085
527.344 81.09429825972097
533.203 81.11930289173155
539.062 81.14401180009358
544.922 81.16898936779049
550.781 81.19476356065066
556.641 81.22181144802906
562.5 81.25056447974531
568.359 81.28133943854506
574.219 81.3143617362811
580.078 81.34977620156377
585.938 81.38756340108128
591.797 81.42759118586157
597.656 81.46966535636845
603.516 81.5134656202676
609.375 81.55858568349372
615.234 81.60453937824691
621.094 81.65084050141728
626.953 81.69692971427922
632.812 81.74227363569486
638.672 81.78636769617235
644.531 81.82870016033412
650.391 81.86885045937525
656.25 81.90641947857468
662.109 81.94110863120066
667.969 81.97267247098672
673.828 82.00096449820975
679.688 82.02593928889068
685.547 82.0475885718084
691.406 82.06602926589096
697.266 82.08141609148213
703.125 82.09400572102479
708.984 82.10406549822459
714.844 82.11195648942324
720.703 82.11802613862251
726.562 82.1226945370153
732.422 82.12633472680861
738.281 82.1293625162197
744.141 82.13214266396773
750.0 82.13500429094137
755.859 82.13821309236252
761.719 82.14201452924927
767.578 82.14658364049275
773.438 82.1519918098096
779.297 82.15829304592415
785.156 82.1654296426453
791.016 82.17330897784774
796.875 82.18173937057414
802.734 82.19053056871644
808.594 82.19939271984445
814.453 82.20809728620154
820.312 82.21630233483928
826.172 82.22376884481976
832.031 82.23014304188848
837.891 82.2369373762218
843.75 82.23806099548669
849.609 82.2398167855058
855.469 82.23968394413778
861.328 82.23761177428487
867.188 82.2335654350897
873.047 82.22754714863602
878.906 82.21964708597048
884.766 82.21001173726687
890.625 82.19879916753754
896.484 82.18626001402713
902.344 82.17264522076823
908.203 82.15824828175805
914.062 82.14339462409315
919.922 82.12840629742301
925.781 82.11358158838678
931.641 82.09926003958003
937.5 82.08571542878686
943.359 82.07320892067358
949.219 82.06197957081143
955.078 82.05220574084787
960.938 82.04398850424299
966.797 82.03742590280908
972.656 82.03255724366203
978.516 82.02934740808512
984.375 82.02771065792668
990.234 82.02755216635737
996.094 82.02869295191302
1001.95 82.03096715204495
1007.81 82.0341779061516
1013.67 82.03811822937706
1019.53 82.04255815431704
1025.39 82.04729755302992
1031.25 82.0521180111552
1037.11 82.05685000378685
1042.97 82.0613759803686
1048.83 82.06555127477817
1054.69 82.06930214615447
1060.55 82.07255333988496
1066.41 82.07533013696393
1072.27 82.0776431952036
1078.12 82.07954754099835
1083.98 82.08117917578899
1089.84 82.08263668979895
1095.7 82.0840370783742
1101.56 82.08561584269795
1107.42 82.08750109284485
1113.28 82.08990776284607
1119.14 82.09303757800991
1125.0 82.09702025334006
1130.86 82.10206396149586
1136.72 82.1082977354397
1142.58 82.11583983080942
1148.44 82.12481407481594
1154.3 82.13525487568809
1160.16 82.14717884340591
1166.02 82.16061158405718
1171.88 82.17548003615424
1177.73 82.1917421779898
1183.59 82.20929059148638
1189.45 82.22797285844798
1195.31 82.24765008772737
1201.17 82.26819724488973
1207.03 82.28938887945021
1212.89 82.31107767077732
1218.75 82.33307970166736
1224.61 82.35522021753317
1230.47 82.37736484482464
1236.33 82.39934117033343
1242.19 82.42107561187018
1248.05 82.44243448736175
1253.91 82.46333226766136
1259.77 82.48379472393209
1265.62 82.50371353482278
1271.48 82.52313803196488
1277.34 82.54210328776352
1283.2 82.56060313465186
1289.06 82.57878864773826
1294.92 82.5966353517464
1300.78 82.61429315351445
1306.64 82.63184636137335
1312.5 82.6493522637026
1318.36 82.66692060885255
1324.22 82.684646641989
1330.08 82.70255058777094
1335.94 82.72073053431588
1341.8 82.73918348646568
1347.66 82.75795434543636
1353.52 82.77698766708774
1359.38 82.79626002988304
1365.23 82.8157443911756
1371.09 82.83533475871907
1376.95 82.8549572616938
1382.81 82.87448655789558
1388.67 82.8937972949716
1394.53 82.91281480573215
1400.39 82.93130389524782
1406.25 82.9492151311099
1412.11 82.96637716021489
1417.97 82.98267608026673
1423.83 82.99797326872842
1429.69 83.01218896145512
1435.55 83.02521595863068
1441.41 83.03702321749078
1447.27 83.0475081322271
1453.12 83.05667412953262
1458.98 83.0645043303842
1464.84 83.07098370390207
1470.7 83.07616571138662
1476.56 83.08008497041482
1482.42 83.08278927389283
1488.28 83.08437311677159
1494.14 83.08488403628756
1500.0 83.08439414585247
1505.86 83.08301904496359
1511.72 83.08084698428787
1517.58 83.07790952604948
1523.44 83.07430978305275
1529.3 83.07010613329366
1535.16 83.0653360613637
1541.02 83.06002264743465
1546.88 83.05422113212803
1552.73 83.0478915819445
1558.59 83.04104420206498
1564.45 83.03363130852138
1570.31 83.02563735425151
1576.17 83.01698187443918
1582.03 83.00759361389485
1587.89 82.99740513881407
1593.75 82.9863390748328
1599.61 82.97432626219083
1605.47 82.96125963330167
1611.33 82.94709668069616
1617.19 82.93174814540933
1623.05 82.91516872513498
1628.91 82.89730558612942
1634.77 82.87813248105378
1640.62 82.85764294094729
1646.48 82.83582850833805
1652.34 82.81271095279996
1658.2 82.7883378437674
1664.06 82.76270689247289
1669.92 82.73594675614495
1675.78 82.70810705709698
1681.64 82.67928388952835
1687.5 82.64957136556339
1693.36 82.6190961915974
1699.22 82.5879564611623
1705.08 82.55627217400755
1710.94 82.52413654124813
1716.8 82.49168342496489
1722.66 82.45897881944933
1728.52 82.42615544775258
1734.38 82.39326576045002
1740.23 82.36037485112526
1746.09 82.32757036528606
1751.95 82.29490436811817
1757.81 82.26238087027667
1763.67 82.23003262752162
1769.53 82.19786585912557
1775.39 82.16589952208822
1781.25 82.13409785377598
1787.11 82.10248420705341
1792.97 82.07102498658891
1798.83 82.03970343894792
1804.69 82.00850057253315
1810.55 81.97740583864466
1816.41 81.94639434585716
1822.27 81.91551530066356
1828.12 81.88469986520435
1833.98 81.85402626643967
1839.84 81.82350395828044
1845.7 81.7931547410957
1851.56 81.76303548254664
1857.42 81.73317702678658
1863.28 81.70368179811062
1869.14 81.67458805055674
1875.0 81.6459858167257
1880.86 81.61796305603097
1886.72 81.59060272607088
1892.58 81.56397004515979
1898.44 81.53818937775574
1904.3 81.51330339146867
1910.16 81.48936099883946
1916.02 81.46647834724388
1921.88 81.44467795535374
1927.73 81.4240282854535
1933.59 81.40453972116785
1939.45 81.38621306031459
1945.31 81.36907514113393
1951.17 81.35311402439878
1957.03 81.33829531419262
1962.89 81.32460227946028
1968.75 81.31195923256753
1974.61 81.30034564832603
1980.47 81.28971327396808
1986.33 81.27995777281646
1992.19 81.27103797900267
1998.05 81.26290539771315
2003.91 81.25544474386066
2009.77 81.2486501921174
2015.62 81.24245223953506
2021.48 81.2367978592288
2027.34 81.23168126663597
2033.2 81.22703877950688
2039.06 81.22288420867962
2044.92 81.2192132178186
2050.78 81.21602428612725
2056.64 81.21334649243762
2062.5 81.21120198185747
2068.36 81.20962542114869
2074.22 81.20865285685153
2080.08 81.20834642971366
2085.94 81.20877914296729
2091.8 81.20995712516431
2097.66 81.2119354168189
2103.52 81.21477433174331
2109.38 81.21852047431561
2115.23 81.22318614547606
2121.09 81.22879216397563
2126.95 81.23536573961236
2132.81 81.24289422779692
2138.67 81.25135201915158
2144.53 81.2607257257015
2150.39 81.2709834376538
2156.25 81.28207387899286
2162.11 81.29392131364638
2167.97 81.30649048923075
2173.83 81.31965721928437
2179.69 81.33337442736823
2185.55 81.34756572455053
2191.41 81.36213826065496
2197.27 81.37699009913386
2203.12 81.39207221925149
2208.98 81.40731414137925
2214.84 81.42260101643238
2220.7 81.43795503573372
2226.56 81.45326252445331
2232.42 81.46851077472336
2238.28 81.48368001956624
2244.14 81.49874571152651
2250.0 81.51370474627892
2255.86 81.52855118121533
2261.72 81.54331769067004
2267.58 81.55802382929532
2273.44 81.57267826347423
2279.3 81.58730714352293
2285.16 81.60199165854901
2291.02 81.61671120455681
2296.88 81.63151698351344
2302.73 81.64640655593317
2308.59 81.66146454473905
2314.45 81.67665971107813
2320.31 81.69202416980015
2326.17 81.70754820821341
2332.03 81.72325374831914
2337.89 81.73907583828985
2343.75 81.75502966300482
2349.61 81.77107511919571
2355.47 81.78717290553632
2361.33 81.80326811580372
2367.19 81.81931461701767
2373.05 81.8352671749038
2378.91 81.85110002744581
2384.77 81.8667021353295
2390.62 81.88204669470123
2396.48 81.89709952690508
2402.34 81.9118256564269
2408.2 81.92615538804974
2414.06 81.94006156496691
2419.92 81.95354088578001
2425.78 81.96654880098208
2431.64 81.97912269389194
2437.5 81.99122138126285
2443.36 82.00288585069995
2449.22 82.0141193835498
2455.08 82.02497436685563
2460.94 82.03540013094809
2466.8 82.04552874378372
2472.66 82.05534655093938
2478.52 82.06490187169578
2484.38 82.07422710698705
2490.23 82.08334608659257
2496.09 82.0923209877637
2501.95 82.10113939559933
2507.81 82.11411713705623
2513.67 82.12268342857752
2519.53 82.126860433888
2525.39 82.13524959251308
2531.25 82.1435487383318
2537.11 82.15169190294587
2542.97 82.15967756531924
2548.83 82.16748837381925
2554.69 82.17503148313538
2560.55 82.18228360850333
2566.41 82.18923380741727
2572.27 82.19577901277798
2578.12 82.20188991724689
2583.98 82.2075355910015
2589.84 82.21264433356467
2595.7 82.21718517483218
2601.56 82.2211215106273
2607.42 82.2244151253914
2613.28 82.22703815809274
2619.14 82.22899368003237
2625.0 82.2302882268378
2630.86 82.23087615041369
2636.72 82.23082249718568
2642.58 82.23011957825136
2648.44 82.2287905085859
2654.3 82.22690674786905
2660.16 82.22447055006613
2666.02 82.22156056658609
2671.88 82.21819728859217
2677.73 82.21444215749626
2683.59 82.21038068518196
2689.45 82.20599403130508
2695.31 82.20139346052909
2701.17 82.19657843870111
2707.03 82.19160822660126
2712.89 82.18652036906145
2718.75 82.18131627475658
2724.61 82.1760361475446
2730.47 82.17065439169048
2736.33 82.16519522245193
2742.19 82.15966780419612
2748.05 82.15404520774482
2753.91 82.1482727124521
2759.77 82.14238411665407
2765.62 82.13631804158621
2771.48 82.13006907699936
2777.34 82.12354440128455
2783.2 82.11679256067028
2789.06 82.10973968262721
2794.92 82.10236768743414
2800.78 82.09465211111073
2806.64 82.08658006139429
2812.5 82.07816154504113
2818.36 82.06935377772693
2824.22 82.06018135904469
2830.08 82.05067017822206
2835.94 82.04081364028708
2841.8 82.03065961699399
2847.66 82.02021704966991
2853.52 82.0095241528757
2859.38 81.99862893874915
2865.23 81.98756335532414
2871.09 81.97641634299188
2876.95 81.96515703532934
2882.81 81.95385312611947
2888.67 81.94258332037782
2894.53 81.9313115727591
2900.39 81.92016514071452
2906.25 81.90907148049148
2912.11 81.89811505812571
2917.97 81.88728310583903
2923.83 81.876576786118
2929.69 81.86598586072999
2935.55 81.85552205410671
2941.41 81.84516193006621
2947.27 81.83487055401015
2953.12 81.82463446052452
2958.98 81.81440634429153
2964.84 81.80415950873574
2970.7 81.79389485993114
2976.56 81.78354312738479
2982.42 81.77307191063726
2988.28 81.76247368855023
2994.14 81.75167000657864
3000.0 81.74071757759087
3005.86 81.7295327191222
3011.72 81.71815189144264
3017.58 81.70654254876564
3023.44 81.69468984720787
3029.3 81.68263696451574
3035.16 81.6703896846789
3041.02 81.65792566766898
3046.88 81.64531977228053
3052.73 81.63256166841232
3058.59 81.61970618656797
3064.45 81.60673227513188
3070.31 81.59370561786149
3076.17 81.58065057206235
3082.03 81.5675389110811
3087.89 81.55446545149366
3093.75 81.54139555027027
3099.61 81.52832651002684
3105.47 81.51530068086014
3111.33 81.50226471038079
3117.19 81.48924486942961
3123.05 81.47623181773828
3128.91 81.46315257000046
3134.77 81.45005161185092
3140.62 81.43683658083054
3146.48 81.42350882392128
3152.34 81.41003307224436
3158.2 81.39634216522066
3164.06 81.3824325838635
3169.92 81.36826697047871
3175.78 81.3537747515528
3181.64 81.33899410249802
3187.5 81.32387527595425
3193.36 81.30837728060943
3199.22 81.29253343247467
3205.08 81.27629183030685
3210.94 81.25970382552907
3216.8 81.24275968855562
3222.66 81.22549138184374
3228.52 81.20789876193348
3234.38 81.19006403392159
3240.23 81.17196164464892
3246.09 81.15366339944046
3251.95 81.13523147709729
3257.81 81.1167004664613
3263.67 81.09806981230044
3269.53 81.07946058250312
3275.39 81.06084051927412
3281.25 81.04229519384758
3287.11 81.02383520121118
3292.97 81.00552468267463
3298.83 80.98732747689358
3304.69 80.96930630994423
3310.55 80.95143901022246
3316.41 80.9337433746022
3322.27 80.91619204415187
3328.12 80.89881921314785
3333.98 80.88152684347249
3339.84 80.86435575350369
3345.7 80.84725315925928
3351.56 80.83018171539122
3357.42 80.81311380727101
3363.28 80.79603614800773
3369.14 80.77889008589729
3375.0 80.76166437083147
3380.86 80.7443260512158
3386.72 80.72684967302717
3392.58 80.70924540747139
3398.44 80.69146102894437
3404.3 80.67350526694901
3410.16 80.65540254742125
3416.02 80.63717032530961
3421.88 80.61878456902866
3427.73 80.60032333119713
3433.59 80.58178818242713
3439.45 80.56321270099455
3445.31 80.54465146569233
3451.17 80.52614543308025
3457.03 80.5077240986651
3462.89 80.48946707694725
3468.75 80.47136751031552
3474.61 80.45351182540885
3480.47 80.43587741569137
3486.33 80.4185580442335
3492.19 80.40154520775998
3498.05 80.3848790055802
3503.91 80.36853110672517
3509.77 80.35252375930924
3515.62 80.33686811762878
3521.48 80.3215052358193
3527.34 80.30649751109462
3533.2 80.2917198203535
3539.06 80.27721637738752
3544.92 80.26290129322986
3550.78 80.24879285888159
3556.64 80.23482092886451
3562.5 80.22095037463872
3568.36 80.20713123289643
3574.22 80.19333554795325
3580.08 80.17957172355638
3585.94 80.16575254321273
3591.8 80.15194035392376
3597.66 80.13804317200672
3603.52 80.12413640322725
3609.38 80.11015791165305
3615.23 80.09616366715368
3621.09 80.08217341533553
3626.95 80.06820687014239
3632.81 80.05428222526142
3638.67 80.040475406269
3644.53 80.02679632405516
3650.39 80.01331235101345
3656.25 80.00004117155483
3662.11 79.98707264542698
3667.97 79.97441454182035
3673.83 79.96216215255531
3679.69 79.9502671458269
3685.55 79.93883553304666
3691.41 79.92787951989413
3697.27 79.91740816049803
3703.12 79.9074182346442
3708.98 79.89792050743807
3714.84 79.8888945948181
3720.7 79.88038855529543
3726.56 79.87231236912889
3732.42 79.86469977120314
3738.28 79.85747994045052
3744.14 79.85062789294928
3750.0 79.84410443599624
3755.86 79.83789339019663
3761.72 79.83195143205866
3767.58 79.82623728650898
3773.44 79.82071902617484
3779.3 79.81541195751191
3785.16 79.81023898913881
