Freq "Estimated In-Room Response"
20.0 54.34989200000001
20.290899 54.976890999999995
20.586 55.590892999999994
20.8855 56.19089099999999
21.189301 56.771893000000006
21.497499 57.335892
21.8102 57.882892999999996
22.127399 58.414890000000014
22.4492 58.93289200000001
22.775801 59.437893
23.1071 59.93389100000002
23.443199 60.42089099999998
23.7841 60.90389299999998
24.1301 61.385891000000015
24.4811 61.86789300000001
24.8372 62.35089099999999
25.1984 62.837890999999985
25.564899 63.326893
25.9368 63.817890000000006
26.3141 64.309891
26.6968 64.80188799999999
27.0851 65.291893
27.479099 65.777893
27.878799 66.25988800000002
28.2843 66.735893
28.6957 67.20588699999999
29.1131 67.669891
29.536501 68.126892
29.966101 68.577888
30.402 69.022888
30.8442 69.461891
31.2929 69.968887
31.748 70.480888
32.209801 70.728889
32.678299 71.12489299999999
33.153599 71.511887
33.635899 71.87989000000002
34.125099 72.22088599999998
34.621498 72.53289
35.125 72.813889
35.635899 73.06089
36.154301 73.279892
36.680199 73.476891
37.213699 73.659889
37.755 73.83989
38.3041 74.028893
38.861301 74.232887
39.426498 74.456886
40.0 74.698891
40.581799 74.955887
41.1721 75.220886
41.771 75.488892
42.378502 75.75489
42.9949 76.01589199999998
43.6203 76.277893
44.254799 76.585892
44.898499 76.784889
45.551498 76.996887
46.2141 77.232887
46.886299 77.465889
47.568298 77.694893
48.260201 77.920891
48.962101 78.142891
49.674301 78.36189300000001
50.396801 78.56832238107313
51.129902 78.77064807074612
51.8736 78.96986890564477
52.628101 79.16698325985597
53.3936 79.36099066724438
54.1702 79.55188276903174
54.958099 79.74166411690193
55.7575 79.92834323544618
56.568501 80.15389590227225
57.391399 80.33234460784143
58.226101 80.46367539832289
59.073 80.63289071101184
59.932301 80.7929872033394
60.804 80.94496996678157
61.6884 81.0848335881727
62.585701 81.2125748780536
63.496 81.32319085546868
64.419601 81.41469421229574
65.356598 81.48306406799236
66.307297 81.52831517206467
67.271698 81.547441770219
68.250198 81.54644466393601
69.242897 81.52431804309786
70.250099 81.49506584733572
71.271896 81.46468642807162
72.308601 81.42617271162703
73.360298 81.38253321175756
74.427399 81.33175585336824
75.509903 81.26884716850623
76.608299 81.18980333940362
77.722603 81.09162979269703
78.853104 80.97332300339279
80.0 80.83587648920174
81.163597 80.67129264572425
82.3442 80.50656994010822
83.541901 80.357707184012
84.757 80.23970399669457
85.989899 80.12956197394725
87.240601 80.05928001969289
88.509598 80.03885888993732
89.797 80.07428745362185
91.103104 80.16558065389366
92.4282 80.30872257146935
93.772598 80.52472614324003
95.136597 80.74057448803218
96.520401 80.95227977073652
97.924301 81.16684431430917
99.348602 81.38525136512787
100.794 81.58551626066156
102.26 81.76463254375795
103.747 81.92760467820369
105.256 82.07842117143396
106.787 82.23808272316704
108.34 82.36660404946247
109.916 82.4579609827135
111.515 82.52517041158693
113.137 82.53223324093157
114.783 82.46213563574423
116.452 82.32289438299182
118.146 82.14849711770606
119.865 81.97193609915777
121.608 81.85823515929371
123.377 81.80937642436116
125.171 81.80337080500564
126.992 81.8372028110528
128.839 81.8928814328439
130.713 81.95140386847049
132.615 81.98976853855537
134.543 81.98399566557475
136.5 81.94205736268262
138.486 81.87696565244948
140.5 81.79372259895682
142.544 81.70532313366694
144.617 81.62977839444314
146.721 81.57207171677103
148.855 81.52922431082584
151.02 81.50321666875742
153.217 81.5010565151452
155.445 81.52275507765846
157.706 81.5712996269182
160.0 81.63269393625025
162.327 81.69694178076769
164.688 81.76303853538217
167.084 81.8329888105776
169.514 81.89279801331503
171.98 81.89145164693363
174.481 81.81697116816105
177.019 81.6693434897644
179.594 81.45457107626322
182.206 81.21266238127528
184.856 81.03961293268338
187.545 80.95842549146417
190.273 80.9230988380722
193.041 80.91563401010069
195.849 80.90303193555707
198.697 80.86730851755107
201.587 80.81345156740625
204.52 80.75045584664707
207.494 80.69334855064024
210.512 80.65409963209392
213.574 80.6407346012887
216.681 80.6452407198793
219.833 80.67163160778722
223.03 80.71890483624728
226.274 80.76605890436655
229.565 80.79709267042071
232.905 80.77301417928314
236.292 80.68683918544758
239.729 80.5535461246666
243.216 80.41315119165428
246.754 80.3216478955064
250.343 80.30904047539897
253.984 80.3603456098511
257.678 80.43854815616358
261.426 80.50765914605266
265.229 80.5516747810419
269.087 80.5785976335084
273.001 80.605442027416
276.972 80.64220544121231
281.0 80.68788650599441
285.088 80.73548091809383
289.234 80.78700539469993
293.441 80.81345996889583
297.709 80.7718445406194
302.04 80.71115052561811
306.433 80.66540552135523
310.89 80.65459409540993
315.412 80.7287216490162
320.0 80.83878767565281
324.655 80.89380575388542
329.377 80.88777880804784
334.168 80.83869616520016
339.028 80.80657075223458
343.959 80.85540914769605
348.962 80.98220124587948
354.038 81.13695498114501
359.188 81.26667232016833
364.412 81.28336306703845
369.713 81.16601654030717
375.09 81.02465431979498
380.546 80.9152609894
386.081 80.87484831042886
391.697 80.95340878303902
397.394 81.05495800578376
403.175 81.10549217511392
409.039 81.10801419569701
414.989 81.06451742418596
421.025 81.01201822898437
427.149 80.97751740809798
433.362 80.97900800465854
439.665 81.00585598591383
446.06 81.04097927590823
452.548 81.06707784271013
459.131 81.07417070943151
465.809 81.07988860390205
472.584 81.08230844825927
479.458 81.06554427036586
486.432 81.02828582179829
493.507 80.98144772589674
503.906 80.98144772589674
509.766 81.01244341406472
515.625 81.04134417246289
521.484 81.06848998186084
527.344 81.09429825972097
533.203 81.11930289173155
539.062 81.14401180009357
544.922 81.16898936779049
550.781 81.19476356065067
556.641 81.22181144802904
562.5 81.25056447974531
568.359 81.28133943854507
574.219 81.31436173628111
580.078 81.34977620156378
585.938 81.38756340108128
591.797 81.42759118586159
597.656 81.46966535636844
603.516 81.51346562026761
609.375 81.5585856834937
615.234 81.6045393782469
621.094 81.65084050141726
626.953 81.69692971427924
632.812 81.74227363569486
638.672 81.78636769617233
644.531 81.82870016033411
650.391 81.86885045937525
656.25 81.90641947857468
662.109 81.94110863120065
667.969 81.97267247098671
673.828 82.00096449820977
679.688 82.02593928889068
685.547 82.0475885718084
691.406 82.06602926589095
697.266 82.08141609148211
703.125 82.09400572102477
708.984 82.10406549822457
714.844 82.11195648942325
720.703 82.11802613862251
726.562 82.12269453701532
732.422 82.12633472680861
738.281 82.12936251621971
744.141 82.13214266396773
750.0 82.13500429094137
755.859 82.13821309236253
761.719 82.14201452924928
767.578 82.14658364049274
773.438 82.15199180980962
779.297 82.15829304592415
785.156 82.1654296426453
791.016 82.17330897784773
796.875 82.18173937057415
802.734 82.19053056871645
808.594 82.19939271984445
814.453 82.20809728620154
820.312 82.21630233483927
826.172 82.22376884481976
832.031 82.23014304188848
837.891 82.23693737622179
843.75 82.23806099548669
849.609 82.23981678550578
855.469 82.23968394413778
861.328 82.23761177428489
867.188 82.23356543508972
873.047 82.22754714863602
878.906 82.21964708597048
884.766 82.21001173726687
890.625 82.19879916753756
896.484 82.18626001402714
902.344 82.17264522076823
908.203 82.15824828175803
914.062 82.14339462409316
919.922 82.128406297423
925.781 82.1135815883868
931.641 82.09926003958003
937.5 82.08571542878687
943.359 82.07320892067358
949.219 82.06197957081142
955.078 82.05220574084785
960.938 82.04398850424299
966.797 82.03742590280906
972.656 82.03255724366203
978.516 82.0293474080851
984.375 82.02771065792669
990.234 82.02755216635738
996.094 82.02869295191302
1001.95 82.03096715204497
1007.81 82.03417790615158
1013.67 82.03811822937705
1019.53 82.04255815431704
1025.39 82.04729755302994
1031.25 82.05211801115519
1037.11 82.05685000378685
1042.97 82.06137598036858
1048.83 82.06555127477817
1054.69 82.06930214615446
1060.55 82.07255333988495
1066.41 82.07533013696394
1072.27 82.0776431952036
1078.12 82.07954754099835
1083.98 82.08117917578899
1089.84 82.08263668979893
1095.7 82.08403707837421
1101.56 82.08561584269796
1107.42 82.08750109284483
1113.28 82.08990776284605
1119.14 82.0930375780099
1125.0 82.09702025334006
1130.86 82.10206396149587
1136.72 82.10829773543969
1142.58 82.11583983080942
1148.44 82.12481407481593
1154.3 82.1352548756881
1160.16 82.14717884340591
1166.02 82.16061158405718
1171.88 82.17548003615424
1177.73 82.19174217798981
1183.59 82.20929059148636
1189.45 82.22797285844797
1195.31 82.24765008772738
1201.17 82.26819724488972
1207.03 82.28938887945021
1212.89 82.31107767077734
1218.75 82.33307970166736
1224.61 82.35522021753317
1230.47 82.37736484482464
1236.33 82.39934117033344
1242.19 82.42107561187018
1248.05 82.44243448736175
1253.91 82.46333226766134
1259.77 82.48379472393208
1265.62 82.50371353482277
1271.48 82.52313803196489
1277.34 82.54210328776354
1283.2 82.56060313465187
1289.06 82.57878864773826
1294.92 82.59663535174641
1300.78 82.61429315351445
1306.64 82.63184636137335
1312.5 82.6493522637026
1318.36 82.66692060885254
1324.22 82.68464664198899
1330.08 82.70255058777096
1335.94 82.72073053431588
1341.8 82.73918348646566
1347.66 82.75795434543635
1353.52 82.77698766708775
1359.38 82.79626002988304
1365.23 82.8157443911756
1371.09 82.83533475871909
1376.95 82.85495726169381
1382.81 82.87448655789558
1388.67 82.8937972949716
1394.53 82.91281480573215
1400.39 82.93130389524782
1406.25 82.9492151311099
1412.11 82.96637716021489
1417.97 82.98267608026673
1423.83 82.99797326872843
1429.69 83.01218896145511
1435.55 83.0252159586307
1441.41 83.03702321749077
1447.27 83.04750813222711
1453.12 83.05667412953264
1458.98 83.06450433038418
1464.84 83.07098370390209
1470.7 83.07616571138662
1476.56 83.08008497041482
1482.42 83.08278927389284
1488.28 83.08437311677159
1494.14 83.08488403628755
1500.0 83.08439414585246
1505.86 83.0830190449636
1511.72 83.08084698428789
1517.58 83.0779095260495
1523.44 83.07430978305277
1529.3 83.07010613329368
1535.16 83.06533606136371
1541.02 83.06002264743465
1546.88 83.05422113212802
1552.73 83.04789158194448
1558.59 83.04104420206497
1564.45 83.03363130852136
1570.31 83.0256373542515
1576.17 83.0169818744392
1582.03 83.00759361389485
1587.89 82.99740513881407
1593.75 82.98633907483281
1599.61 82.97432626219083
1605.47 82.96125963330165
1611.33 82.94709668069616
1617.19 82.93174814540934
1623.05 82.91516872513499
1628.91 82.8973055861294
1634.77 82.87813248105377
1640.62 82.85764294094727
1646.48 82.83582850833805
1652.34 82.81271095279995
1658.2 82.78833784376738
1664.06 82.76270689247289
1669.92 82.73594675614494
1675.78 82.70810705709698
1681.64 82.67928388952835
1687.5 82.64957136556339
1693.36 82.61909619159741
1699.22 82.5879564611623
1705.08 82.55627217400753
1710.94 82.52413654124813
1716.8 82.4916834249649
1722.66 82.45897881944933
1728.52 82.42615544775256
1734.38 82.39326576045003
1740.23 82.36037485112524
1746.09 82.32757036528606
1751.95 82.29490436811817
1757.81 82.26238087027669
1763.67 82.23003262752161
1769.53 82.19786585912556
1775.39 82.16589952208824
1781.25 82.13409785377598
1787.11 82.10248420705342
1792.97 82.07102498658892
1798.83 82.03970343894791
1804.69 82.00850057253315
1810.55 81.97740583864464
1816.41 81.94639434585714
1822.27 81.91551530066354
1828.12 81.88469986520435
1833.98 81.85402626643967
1839.84 81.82350395828043
1845.7 81.79315474109569
1851.56 81.76303548254666
1857.42 81.73317702678659
1863.28 81.70368179811061
1869.14 81.67458805055674
1875.0 81.6459858167257
1880.86 81.61796305603099
1886.72 81.59060272607087
1892.58 81.5639700451598
1898.44 81.53818937775573
1904.3 81.51330339146868
1910.16 81.48936099883946
1916.02 81.46647834724388
1921.88 81.44467795535374
1927.73 81.42402828545349
1933.59 81.40453972116785
1939.45 81.38621306031459
1945.31 81.36907514113392
1951.17 81.35311402439876
1957.03 81.33829531419262
1962.89 81.3246022794603
1968.75 81.31195923256755
1974.61 81.30034564832603
1980.47 81.28971327396808
1986.33 81.27995777281645
1992.19 81.27103797900267
1998.05 81.26290539771315
2003.91 81.25544474386065
2009.77 81.2486501921174
2015.62 81.24245223953504
2021.48 81.2367978592288
2027.34 81.23168126663596
2033.2 81.22703877950687
2039.06 81.22288420867962
2044.92 81.21921321781859
2050.78 81.21602428612724
2056.64 81.21334649243764
2062.5 81.21120198185746
2068.36 81.20962542114869
2074.22 81.20865285685153
2080.08 81.20834642971366
2085.94 81.2087791429673
2091.8 81.20995712516432
2097.66 81.21193541681892
2103.52 81.2147743317433
2109.38 81.21852047431562
2115.23 81.22318614547605
2121.09 81.22879216397561
2126.95 81.23536573961235
2132.81 81.24289422779692
2138.67 81.2513520191516
2144.53 81.26072572570152
2150.39 81.27098343765378
2156.25 81.28207387899285
2162.11 81.2939213136464
2167.97 81.30649048923077
2173.83 81.31965721928438
2179.69 81.33337442736821
2185.55 81.34756572455055
2191.41 81.36213826065494
2197.27 81.37699009913385
2203.12 81.39207221925149
2208.98 81.40731414137926
2214.84 81.4226010164324
2220.7 81.43795503573374
2226.56 81.45326252445332
2232.42 81.46851077472337
2238.28 81.48368001956624
2244.14 81.49874571152651
2250.0 81.51370474627892
2255.86 81.52855118121533
2261.72 81.54331769067002
2267.58 81.55802382929531
2273.44 81.57267826347424
2279.3 81.58730714352292
2285.16 81.60199165854901
2291.02 81.61671120455681
2296.88 81.63151698351344
2302.73 81.64640655593318
2308.59 81.66146454473905
2314.45 81.67665971107813
2320.31 81.69202416980016
2326.17 81.70754820821341
2332.03 81.72325374831914
2337.89 81.73907583828986
2343.75 81.7550296630048
2349.61 81.77107511919573
2355.47 81.78717290553631
2361.33 81.80326811580373
2367.19 81.81931461701768
2373.05 81.83526717490382
2378.91 81.85110002744582
2384.77 81.86670213532952
2390.62 81.88204669470122
2396.48 81.8970995269051
2402.34 81.91182565642691
2408.2 81.92615538804975
2414.06 81.94006156496692
2419.92 81.95354088578001
2425.78 81.9665488009821
2431.64 81.97912269389195
2437.5 81.99122138126285
2443.36 82.00288585069995
2449.22 82.01411938354981
2455.08 82.02497436685563
2460.94 82.0354001309481
2466.8 82.04552874378373
2472.66 82.05534655093936
2478.52 82.0649018716958
2484.38 82.07422710698704
2490.23 82.08334608659258
2496.09 82.0923209877637
2501.95 82.10113939559935
2507.81 82.11411713705621
2513.67 82.12268342857752
2519.53 82.126860433888
2525.39 82.13524959251306
2531.25 82.14354873833182
2537.11 82.15169190294588
2542.97 82.15967756531924
2548.83 82.16748837381924
2554.69 82.17503148313537
2560.55 82.18228360850333
2566.41 82.18923380741728
2572.27 82.19577901277798
2578.12 82.20188991724689
2583.98 82.2075355910015
2589.84 82.21264433356468
2595.7 82.2171851748322
2601.56 82.22112151062731
2607.42 82.22441512539139
2613.28 82.22703815809274
2619.14 82.22899368003236
2625.0 82.23028822683781
2630.86 82.23087615041369
2636.72 82.23082249718568
2642.58 82.23011957825138
2648.44 82.22879050858589
2654.3 82.22690674786905
2660.16 82.22447055006613
2666.02 82.22156056658608
2671.88 82.21819728859218
2677.73 82.21444215749628
2683.59 82.21038068518195
2689.45 82.2059940313051
2695.31 82.20139346052908
2701.17 82.1965784387011
2707.03 82.19160822660126
2712.89 82.18652036906145
2718.75 82.1813162747566
2724.61 82.17603614754461
2730.47 82.17065439169049
2736.33 82.16519522245194
2742.19 82.15966780419612
2748.05 82.15404520774482
2753.91 82.14827271245208
2759.77 82.14238411665409
2765.62 82.13631804158621
2771.48 82.13006907699936
2777.34 82.12354440128453
2783.2 82.11679256067029
2789.06 82.10973968262722
2794.92 82.10236768743415
2800.78 82.09465211111072
2806.64 82.0865800613943
2812.5 82.07816154504111
2818.36 82.06935377772695
2824.22 82.06018135904468
2830.08 82.05067017822206
2835.94 82.04081364028707
2841.8 82.03065961699397
2847.66 82.0202170496699
2853.52 82.0095241528757
2859.38 81.99862893874916
2865.23 81.98756335532413
2871.09 81.9764163429919
2876.95 81.96515703532934
2882.81 81.95385312611947
2888.67 81.94258332037782
2894.53 81.93131157275909
2900.39 81.92016514071452
2906.25 81.90907148049146
2912.11 81.89811505812573
2917.97 81.88728310583903
2923.83 81.876576786118
2929.69 81.86598586072999
2935.55 81.8555220541067
2941.41 81.8451619300662
2947.27 81.83487055401017
2953.12 81.82463446052452
2958.98 81.81440634429153
2964.84 81.80415950873575
2970.7 81.79389485993116
2976.56 81.78354312738479
2982.42 81.77307191063727
2988.28 81.76247368855024
2994.14 81.75167000657865
3000.0 81.74071757759086
3005.86 81.72953271912222
3011.72 81.71815189144264
3017.58 81.70654254876564
3023.44 81.69468984720788
3029.3 81.68263696451575
3035.16 81.67038968467888
3041.02 81.65792566766899
3046.88 81.64531977228053
3052.73 81.63256166841231
3058.59 81.61970618656798
3064.45 81.60673227513189
3070.31 81.59370561786149
3076.17 81.58065057206234
3082.03 81.5675389110811
3087.89 81.55446545149364
3093.75 81.54139555027025
3099.61 81.52832651002686
3105.47 81.51530068086014
3111.33 81.50226471038077
3117.19 81.48924486942963
3123.05 81.47623181773827
3128.91 81.46315257000045
3134.77 81.45005161185091
3140.62 81.43683658083054
3146.48 81.42350882392127
3152.34 81.41003307224435
3158.2 81.39634216522064
3164.06 81.38243258386349
3169.92 81.3682669704787
3175.78 81.35377475155282
3181.64 81.33899410249802
3187.5 81.32387527595426
3193.36 81.30837728060943
3199.22 81.29253343247467
3205.08 81.27629183030686
3210.94 81.25970382552909
3216.8 81.24275968855562
3222.66 81.22549138184372
3228.52 81.20789876193348
3234.38 81.19006403392159
3240.23 81.17196164464892
3246.09 81.15366339944048
3251.95 81.1352314770973
3257.81 81.1167004664613
3263.67 81.09806981230042
3269.53 81.07946058250312
3275.39 81.06084051927412
3281.25 81.04229519384756
3287.11 81.02383520121118
3292.97 81.00552468267463
3298.83 80.98732747689358
3304.69 80.96930630994424
3310.55 80.95143901022244
3316.41 80.9337433746022
3322.27 80.91619204415187
3328.12 80.89881921314786
3333.98 80.8815268434725
3339.84 80.86435575350369
3345.7 80.84725315925928
3351.56 80.83018171539123
3357.42 80.81311380727102
3363.28 80.79603614800774
3369.14 80.77889008589727
3375.0 80.76166437083147
3380.86 80.74432605121581
3386.72 80.72684967302716
3392.58 80.70924540747139
3398.44 80.69146102894437
3404.3 80.67350526694901
3410.16 80.65540254742126
3416.02 80.63717032530963
3421.88 80.61878456902865
3427.73 80.60032333119713
3433.59 80.58178818242713
3439.45 80.56321270099454
3445.31 80.54465146569231
3451.17 80.52614543308026
3457.03 80.50772409866511
3462.89 80.48946707694725
3468.75 80.4713675103155
3474.61 80.45351182540887
3480.47 80.43587741569137
3486.33 80.41855804423352
3492.19 80.40154520776
3498.05 80.3848790055802
3503.91 80.36853110672519
3509.77 80.35252375930925
3515.62 80.3368681176288
3521.48 80.32150523581929
3527.34 80.3064975110946
3533.2 80.2917198203535
3539.06 80.27721637738753
3544.92 80.26290129322987
3550.78 80.24879285888157
3556.64 80.23482092886451
3562.5 80.22095037463873
3568.36 80.20713123289643
3574.22 80.19333554795327
3580.08 80.17957172355638
3585.94 80.16575254321273
3591.8 80.15194035392378
3597.66 80.1380431720067
3603.52 80.12413640322725
3609.38 80.11015791165306
3615.23 80.09616366715368
3621.09 80.08217341533553
3626.95 80.0682068701424
3632.81 80.05428222526143
3638.67 80.040475406269
3644.53 80.02679632405517
3650.39 80.01331235101347
3656.25 80.00004117155481
3662.11 79.98707264542698
3667.97 79.97441454182035
3673.83 79.96216215255531
3679.69 79.95026714582688
3685.55 79.93883553304664
3691.41 79.92787951989415
3697.27 79.91740816049803
3703.12 79.90741823464421
3708.98 79.89792050743807
3714.84 79.88889459481811
3720.7 79.88038855529541
3726.56 79.8723123691289
3732.42 79.86469977120314
3738.28 79.85747994045052
3744.14 79.85062789294926
3750.0 79.84410443599624
3755.86 79.83789339019663
3761.72 79.83195143205866
3767.58 79.82623728650898
3773.44 79.82071902617486
