Freq,On Axis,Listening Window,Sound Power,Early Reflections,Early Reflections DI,Sound Power DI,DI offset
20.5078,56.831999999999994,56.62323651703369,60.47471370956325,58.963432246350806,37.65980427068288,36.14852280747044,40
21.9727,58.79159999999999,58.71258255478574,63.338857821763554,61.63781402176468,37.07476853302106,35.373724733022186,40
23.4375,61.0283,60.97650043698073,64.95145383650585,63.414232301935385,37.56226813504534,36.02504660047488,40
24.9023,63.07930000000002,63.05311020573464,66.6937375741667,65.25693015439954,37.7961800513351,36.359372631567936,40
26.3672,65.4916,65.48358254021178,68.76012758723604,67.4263850001226,38.05719754008919,36.72345495297574,40
27.832,67.6973,67.69853450260483,70.61534484413005,69.39160409304002,38.30693040956481,37.08318965847478,40
29.2969,69.41750000000002,69.43742688498715,72.35396132155142,71.12475580360785,38.31267108137929,37.08346556343572,40
30.7617,71.5607,71.59861611328203,74.3273721768085,73.16267065763498,38.43594545564706,37.27124393647354,40
32.2266,73.7851,73.82339584427015,76.14532153520419,75.12034288731967,38.703052956950486,37.67807430906596,40
33.6914,75.6316,75.67040423614452,77.77234117927411,76.82600957565027,38.844394660494245,37.89806305687041,40
35.1562,77.3678,77.40923230527204,79.3383461675046,78.45668104198157,38.952551263290474,38.070886137767445,40
36.6211,79.0044,79.04524620471824,80.76528177811439,79.96422417576728,39.081022028950954,38.279964426603854,40
38.0859,80.1299,80.17199959787764,81.82558334385261,81.05296700159995,39.11903259627769,38.34641625402503,40
39.5508,81.0814,81.12405231938102,82.64176334048628,81.92327198438768,39.20078033499334,38.48228897889474,40
41.0156,81.7653,81.80734665811265,83.20043230710843,82.53167664061705,39.2756700174956,38.60691435100422,40
42.4805,82.17760000000001,82.21883823539348,83.50093411382807,82.87747253923592,39.34136569615755,38.71790412156541,40
43.9453,82.4474,82.48795243141309,83.67258697966628,83.08955551364343,39.39839691776966,38.815365451746814,40
45.4102,82.7266,82.76485475939248,83.82490230864275,83.29514984955736,39.469704909835116,38.93995245074973,40
46.875,82.8399,82.87534824507986,83.819325034704,83.33979693222723,39.53555131285263,39.05602321037587,40
48.3398,82.85990000000001,82.8953107488706,83.79284818541315,83.33183787986644,39.56347286900416,39.10246256345745,40
51.2695,82.7354,82.77754560332014,83.70470030636852,83.22698638914889,39.550559214171244,39.07284529695161,40
52.7344,82.6901,82.7296289938402,83.54240947767505,83.11973908646053,39.60988990737967,39.18721951616514,40
54.1992,82.80859999999998,82.84102184605908,83.4642990294147,83.12780055912322,39.71322128693586,39.376722816644374,40
55.6641,82.9124,82.94307479908937,83.51306771933913,83.20103023205128,39.74204456703809,39.43000707975024,40
58.5938,82.8009,82.82989762286707,83.31613698727094,83.0405993963871,39.78929822647997,39.51376063559613,40
60.0586,82.7179,82.74818423908711,83.26116955208906,82.97055095948124,39.777633279605865,39.48701468699805,40
62.9883,82.4459,82.48143576755074,83.0596283689707,82.73601664787338,39.74541911967735,39.42180739858003,40
64.4531,82.3817,82.41744838616003,82.98120123645266,82.66407204454006,39.75337634161997,39.43624714970737,40
67.3828,82.2541,82.28663979616016,82.765180966768,82.48683690231815,39.79980289384201,39.52145882939216,40
68.8477,82.1979,82.22861552926426,82.65406883128983,82.40116352862941,39.82745200063485,39.57454669797443,40
71.7773,82.0882,82.11730566050954,82.48604480788988,82.26045457898927,39.856851081520276,39.63126085261966,40
74.707,82.0521,82.08016250048033,82.40365322385433,82.19931513843106,39.880847362049266,39.67650927662599,40
77.6367,81.9847,82.01190452522181,82.30949194975868,82.11577946313757,39.89612506208424,39.70241257546313,40
79.1016,81.9642,81.98976834919807,82.25534817369714,82.07597326525065,39.91379508394742,39.73442017550093,40
82.0312,81.9942,82.01680353726164,82.20845152135996,82.06486667187534,39.9519368653863,39.808352015901676,40
84.9609,82.2335,82.24150888410689,82.1444347836276,82.14299544666777,40.098513437439124,40.09707410047929,40
87.8906,81.7097,81.75510154085981,82.26699520679752,81.96289675555036,39.79220478530945,39.488106334062294,40
90.8203,81.97989999999999,81.99283106049504,82.17664220316549,82.03023358703952,39.96259747345552,39.81618885732955,40
95.2148,82.52010000000001,82.53135002222999,82.48829093494203,82.45941540771494,40.071934614515044,40.04305908728796,40
98.1445,82.1222,82.14116035474736,82.2858986632084,82.16161780733188,39.97954254741548,39.855261691538956,40
101.074,82.07929999999999,82.09233942005343,82.15603777200548,82.06688374367576,40.025455676377675,39.93630164804796,40
105.469,82.727,82.72546271348185,82.52384448587027,82.57091676192672,40.15454595155512,40.201618227611576,40
108.398,82.9316,82.93109141118411,82.71481002496618,82.77036384655422,40.160727564629894,40.21628138621793,40
112.793,83.2143,83.21147298498097,82.93144037811851,83.01952066031681,40.19195232466416,40.28003260686246,40
117.188,82.8502,82.85423186419331,82.67832941472423,82.71290729332257,40.14132457087074,40.17590244946908,40
120.117,82.88230000000001,82.88621660457017,82.77398594605698,82.77302495068568,40.113191653884485,40.112230658513184,40
124.512,83.19120000000001,83.18943002385649,82.94446613701301,83.00953517172591,40.17989485213057,40.24496388684348,40
128.906,83.2184,83.21286939821186,82.98220231404511,83.03528554531836,40.177583852893505,40.230667084166754,40
133.301,83.268,83.256970143197,82.94769600009947,83.0381464009305,40.218823742266494,40.309274143097525,40
139.16,83.282,83.26960456652134,82.88079493239606,83.0133559026799,40.25624866384143,40.38880963412528,40
143.555,83.09959999999998,83.08658514806343,82.74839328504076,82.85101072838918,40.23557441967425,40.33819186302267,40
147.949,83.02510000000001,83.00600116720616,82.65086405665166,82.75106051891683,40.254940648289335,40.35513711055451,40
153.809,83.1345,83.10671280948127,82.63271139902372,82.78153734553932,40.325175463941946,40.47400141045755,40
159.668,83.4881,83.45491322412383,82.89817507130581,83.09196182014601,40.36295140397782,40.55673815281801,40
165.527,83.5694,83.5311732777604,82.88831903664487,83.1440127930581,40.38716048470231,40.64285424111553,40
171.387,83.61700000000002,83.57819096061627,82.85552183016321,83.15510116937864,40.42308979123763,40.722669130453056,40
177.246,83.5333,83.49186773715476,82.74268200848783,83.0535707674763,40.43829696967846,40.74918572866693,40
183.105,83.4651,83.41506010823312,82.6369974558661,82.9596470184461,40.455413089787015,40.778062652367026,40
188.965,83.56299999999999,83.50120502438229,82.46043050124605,82.93565310784152,40.56555191654077,41.040774523136236,40
196.289,83.6191,83.55991928624397,82.41976174608502,82.95251742506778,40.607401861176186,41.14015754015895,40
203.613,83.4425,83.37505708629895,82.09537887131356,82.70416178128912,40.670895305009836,41.279678214985395,40
210.938,83.6037,83.54172515513177,82.16506217536148,82.84317492353745,40.698550231594325,41.37666297977029,40
218.262,83.3366,83.27483884021458,82.14755187201612,82.68444837882305,40.590390461391536,41.12728696819846,40
225.586,83.3877,83.30238377884282,81.93454726602363,82.59697348138022,40.705410297462606,41.367836512819196,40
232.91,83.7156,83.62672215991599,81.88635069257148,82.77894764590319,40.8477745140128,41.7403714673445,40
241.699,83.6284,83.56156566316909,82.09776559271825,82.82674042402104,40.73482523914805,41.463800070450844,40
250.488,84.0596,83.97195448848595,82.32948508444363,83.12339736786188,40.848557120624065,41.642469404042316,40
259.277,83.75729999999999,83.69096735888381,82.25015041769481,82.97174139708858,40.71922596179523,41.440816941189,40
268.066,83.6885,83.61004911977359,82.08093363783036,82.8275929283606,40.78245619141299,41.529115481943236,40
276.855,83.7574,83.69758432506305,82.22502112597093,82.94675762040644,40.7508267046566,41.47256319909212,40
287.109,83.4761,83.36538643695354,81.95601027733312,82.64947312624469,40.715913310708856,41.40937615962042,40
297.363,83.9048,83.77021848302434,81.84424164241341,82.83122017838082,40.93899830464352,41.92597684061093,40
307.617,84.0094,83.88472596636657,82.00407685603753,83.01249453752901,40.872231428837566,41.880649110329045,40
319.336,84.4156,84.23069128749867,81.91871603426779,83.05846415403988,41.17222713345879,42.311975253230884,40
329.59,84.53,84.35517287212178,82.03089014350792,83.18797375681416,41.167199115307625,42.324282728613866,40
341.309,84.4894,84.30428998980662,81.82480449106505,83.00966866493292,41.2946213248737,42.47948549874157,40
353.027,84.6479,84.47266657064199,81.57147889217808,82.97048541030827,41.50218116033372,42.90118767846391,40
366.211,84.78370000000001,84.61715034507645,81.48344351026176,83.04570656882588,41.571443776250575,43.13370683481469,40
379.395,84.3336,84.23051789257258,81.54491513121187,82.91692225702609,41.31359563554649,42.68560276136071,40
392.578,84.0637,83.85872193818719,80.96683589159471,82.36809600176149,41.4906259364257,42.891886046592475,40
405.762,84.0672,83.84556613309735,80.44643919017354,82.12003249968737,41.72553363340998,43.399126942923814,40
420.41,84.23350000000002,84.08972916508199,80.79739119132063,82.53301817904585,41.55671098603614,43.29233797376136,40
435.059,83.7191,83.42933569109992,80.25366880602252,81.7578468734937,41.67148881760622,43.175666885077405,40
451.172,84.4015,84.12479027729225,80.26959216994209,82.2117629625273,41.913027314764946,43.85519810735016,40
465.82,84.2309,83.95735930181209,80.15784532610141,82.10162377594276,41.855735525869335,43.79951397571068,40
483.398,84.1128,83.74422957094679,79.67212228323909,81.61887805022336,42.12535152072343,44.072107287707695,40
499.512,83.8965,83.60025079223385,79.32216057134559,81.46870044302075,42.1315503492131,44.27809022088826,40
517.09,84.1114,83.75703405879085,79.54820296979443,81.65683570671476,42.10019835207609,44.20883108899642,40
536.133,84.3622,83.97524417419811,79.43429407995515,81.71164217341999,42.26360200077812,44.54095009424296,40
555.176,84.3709,84.00573892404157,79.5545757100275,81.84364319293685,42.16209573110471,44.45116321401406,40
574.219,84.5996,84.16585221627847,79.52970312366472,81.83743754679719,42.328414669481276,44.63614909261375,40
594.727,84.7325,84.37879696596156,79.26685770034375,81.75091328415665,42.6278836818049,45.111939265617806,40
615.234,85.0527,84.7768563979725,79.57955572388332,82.24788004718147,42.52897635079103,45.19730067408918,40
637.207,85.076,84.80327223760732,79.81295121503102,82.42157046574928,42.38170177185803,44.990321022576296,40
659.18,84.2157,83.99567688370536,79.52652409535469,81.86276174311836,42.132915140587,44.46915278835067,40
682.617,85.0719,84.79291998414075,79.8893049656882,82.43480719732567,42.358112786815084,44.903615018452555,40
707.52,84.8619,84.64356512393998,79.84267373977373,82.48187734637784,42.161687777562136,44.80089138416625,40
732.422,85.3417,85.02754032927872,80.12614045500294,82.65804818425748,42.36949214502124,44.90139987427578,40
757.324,85.3782,85.04774892689794,80.57667485895996,82.89122313090876,42.15652579598918,44.47107406793798,40
785.156,85.0563,84.8407982211008,81.13501106287168,82.818802210541,42.0219960105598,43.705787158229114,40
811.523,86.0105,85.57052706825215,81.66384741413341,83.26338072419466,42.307146344057486,43.90667965411873,40
840.82,83.4151,83.42514950357642,82.12638601063308,84.53949197318602,38.885657530390404,41.29876349294334,40
870.117,85.922,85.23753598479506,81.10582138197304,84.64008751746968,40.59744846732538,44.131714602822015,40
900.879,82.3863,82.28660546499933,80.6037982844271,83.6874263556269,38.59917910937243,41.682807180572226,40
933.105,87.2738,86.65679675460771,82.14782571532074,84.58117626091959,42.07562049368812,44.508971039286976,40
965.332,85.0085,84.97471391485544,81.36257737039385,82.25472766124018,42.71998625361526,43.61213654446159,40
1000.49,84.3894,84.00841441306602,80.03981885780198,82.03244062153561,41.97597379153041,43.968595555264045,40
1035.64,83.4425,83.45991033394758,79.37658997073879,82.05396292979954,41.40594740414804,44.083320363208784,40
1072.27,85.27949999999998,84.68332774821654,79.87648393150513,82.31495719570502,42.36837055251152,44.80684381671141,40
1108.89,83.2245,83.1884627234654,79.47589084067296,81.83835286622124,41.35010985724416,43.712571882792446,40
1148.44,84.3631,83.72984444317672,79.82606338838514,81.86861617621338,41.86122826696334,43.90378105479158,40
1189.45,84.2304,83.96780962910037,80.32830798852868,82.03750957755771,41.93030005154266,43.639501640571694,40
1230.47,84.993,84.66406551776495,80.32030176648246,82.74103746566135,41.923028052103604,44.343763751282495,40
1274.41,85.1699,84.76052376586367,79.88815716156176,82.77191328983605,41.98861047602762,44.8723666043019,40
1319.82,84.601,84.17758365720374,79.32680104659008,82.13972380822915,42.03785984897459,44.85078261061366,40
1366.7,82.95949999999999,82.87458153195726,79.01087851628901,81.99859699500256,40.875984536954704,43.86370301566825,40
1413.57,82.9213,82.67348205516515,80.28540395209774,82.61311875676188,40.060363298403274,42.388078103067414,40
1463.38,84.5474,84.15717783364448,79.79052715948671,81.4297422166067,42.727435617037784,44.36665067415777,40
1516.11,84.92250000000001,84.4105278155635,79.43355725387993,82.02242407528283,42.38810374028067,44.97697056168357,40
1568.85,83.1164,83.29058221494348,79.4284754148179,81.3507712255836,41.939810989359884,43.86210680012559,40
1624.51,81.6339,82.13063371936009,79.23316532719558,80.80705370943609,41.323580009924,42.89746839216451,40
1681.64,82.3783,82.21928260108872,78.95539079912982,80.5651144128184,41.65416818827032,43.263891801958906,40
1741.7,84.4973,84.1672986078123,79.12012048655717,81.13240180080874,43.03489680700356,45.04717812125513,40
1803.22,83.8868,84.0698052979883,78.97945658752369,81.36273164324885,42.707073654739446,45.09034871046461,40
1866.21,82.99510000000001,83.47999553511862,78.41341523897319,80.52288643662587,42.95710909849275,45.06658029614543,40
1932.13,84.118,83.46179254326888,78.54922115380441,80.15425954273935,43.30753300052953,44.912571389464475,40
1999.51,83.3279,83.64994398130878,77.9105688940199,79.94108661352327,43.70885736778551,45.73937508728888,40
2069.82,83.2752,84.11087592320199,78.21279249798472,80.19913120719832,43.91174471600367,45.898083425217266,40
2143.07,82.69650000000001,83.39509651418778,77.80275324391428,79.66102789012146,43.734068624066325,45.5923432702735,40
2219.24,81.779,82.42992825048368,77.17409771222016,78.91771954061687,43.51220870986681,45.255830538263524,40
2296.88,82.627,82.98603890654593,77.44716815373322,79.33545580510605,43.65058310143988,45.53887075281271,40
2378.91,82.4462,82.95605244400062,77.66306367046433,79.3535598808703,43.60249256313031,45.292988773536294,40
2462.4,82.04,82.50405554748717,77.5518087176086,79.21656961448613,43.28748593300104,44.952246829878575,40
2548.83,82.6972,83.02281025575951,78.03321229623018,79.79163467325098,43.23117558250853,44.989597959529334,40
2639.65,82.9534,83.2319849352379,78.32891795366294,80.06888440963098,43.16310052560692,44.903066981574966,40
2731.93,82.1993,82.6312896514807,77.99582697649453,79.90317496136531,42.72811469011539,44.63546267498617,40
2828.61,83.0118,83.30366159700696,78.4302208152059,80.47987036630067,42.82379123070629,44.873440781801065,40
2928.22,83.0456,83.32884825008094,78.48812460583429,80.70666226730742,42.622185982773516,44.84072364424665,40
3030.76,83.6265,83.17383581069221,78.42871147056579,80.69105135496812,42.48278445572409,44.745124340126424,40
3137.7,84.51600000000002,83.80162798195005,79.20249149723378,81.37286912322469,42.42875885872536,44.59913648471627,40
3249.02,84.29840000000002,83.80167888236545,79.49328235843853,81.61845983120514,42.18321905116031,44.308396523926916,40
3363.28,83.8007,83.53483707188028,79.37748428904996,81.6019801355387,41.93285693634158,44.157352782830316,40
3481.93,84.7911,84.09423306489978,79.63570711204133,82.04221039147552,42.05202267342426,44.45852595285845,40
3604.98,84.4961,83.81743225536553,79.59025384223284,82.04505249657608,41.772379758789455,44.22717841313269,40
3732.42,84.7305,83.94552960270677,79.74971210744383,82.3548265299433,41.590703072763475,44.19581749526294,40
3864.26,84.6602,84.12939014117083,79.87814349394283,82.61264907699186,41.51674106417897,44.251246647228,40
4000.49,84.661,84.03803309021956,79.84358145286107,82.70974721370618,41.32828587651338,44.19445163735848,40
4141.11,84.4997,84.04373836858292,79.6855984367082,82.6638138972582,41.37992447132473,44.35813993187472,40
4287.6,84.7304,84.4390674082467,79.89093967985514,82.98774566947206,41.45132173877464,44.54812772839156,40
4438.48,84.6431,84.08288972835788,79.90442081357176,82.88137867420988,41.201511054148,44.17846891478612,40
4595.21,85.2234,84.90174657611303,80.42751468513998,83.30866628003524,41.59308029607779,44.474231890973044,40
4756.35,84.7525,84.51367933277778,80.2511287787933,83.10866394464327,41.405015388134515,44.26255055398448,40
4924.8,85.5127,85.44260020712568,80.51803822104814,83.63771734916068,41.804882857965,44.924561986077535,40
5097.66,85.1612,85.10666961452478,80.1618101739163,83.3877129053782,41.71895670914658,44.94485944060848,40
5277.83,85.3573,85.39164511674277,80.29230593490063,83.48462796695057,41.907017149792196,45.09933918184214,40
5463.87,85.28399999999999,85.23135077854604,79.87437701177662,83.12275758621011,42.10859319233593,45.35697376676943,40
5657.23,85.8419,85.43017591129502,79.8806929399839,83.09487659735717,42.33529931393785,45.54948297131112,40
5856.45,85.6338,85.24187058272771,79.6072814989612,82.85565631383668,42.38621426889104,45.634589083766514,40
6062.99,85.4964,85.26963184015378,79.42259608687571,82.73907845810666,42.53055338204712,45.847035753278064,40
6276.86,86.2359,85.51615977327462,79.40515244437799,82.80877558319693,42.70738419007769,46.11100732889663,40
6498.05,85.6537,85.07921614711006,79.08900597963026,82.51616170566876,42.563054441441295,45.9902101674798,40
6726.56,85.2911,84.89414535882146,78.8097050766338,82.3207190572756,42.573426301545865,46.08444028218766,40
6963.87,85.1737,84.8631052306947,78.70231322927508,82.31911597437595,42.54398925631875,46.16079200141962,40
7209.96,85.0917,84.50507857992605,78.45471909730978,81.9587672635321,42.546311316393954,46.05035948261627,40
7464.84,84.2946,84.13285994517044,78.31578068039681,81.64685161452135,42.486008330649085,45.817079264773625,40
7727.05,84.0376,84.00933880384257,78.08138669326866,81.40304394335092,42.606294860491644,45.92795211057391,40
7999.51,83.98590000000002,83.83308991828582,77.613547488162,81.12366592132918,42.709423996956644,46.21954243012382,40
8282.23,84.0034,83.68065309524529,76.90564053593484,80.69373459268138,42.98691850256391,46.775012559310454,40
8573.73,83.6041,83.3064963862496,76.21321727188851,80.15735344760964,43.14914293863997,47.093279114361096,40
8876.95,83.4431,82.87430056601039,75.39328604655573,79.45704360716044,43.41725695884995,47.48101451945466,40
9188.96,83.6986,82.92685275867021,74.91433137919975,79.16047878209059,43.766373976579615,48.012521379470456,40
9514.16,84.4136,83.46602390833385,74.98912755090416,79.32535417987246,44.14066972846139,48.476896357429695,40
9849.61,84.9414,83.84025621909713,75.07018851153038,79.52791033400604,44.31234588509109,48.77006770756675,40
10196.8,85.0849,83.87500680186349,74.90387703914462,79.46337380159827,44.411633000265226,48.971129762718874,40
10555.7,84.9078,83.61367002750909,74.52618355780295,79.1684230230727,44.44524700443638,49.087486469706135,40
10927.7,84.3526,83.09530097355028,73.88949028812631,78.63347563427504,44.46182533927524,49.20581068542397,40
11313.0,83.8884,82.68727853473497,73.25250413803268,78.04395569216273,44.643322842572246,49.434774396702295,40
11712.9,84.13919999999999,82.84500247605874,73.06021912148643,77.94284521154485,44.90215726451389,49.78478335457231,40
12126.0,84.6952,83.33190844368828,73.2777145470452,78.25251598232232,45.079392461365956,50.05419389664307,40
