Freq "Ceiling Bounce"
20.5078 49.19900059517002
21.9727 53.62542757766627
23.4375 54.781206087475795
24.9023 57.55570457287163
26.3672 58.881923900456314
27.832 60.238398566901054
29.2969 61.73764074365559
30.7617 63.25859401013042
32.2266 64.85006930900481
33.6914 66.40393453431906
35.1562 67.44173942958193
36.6211 68.73709754302219
38.0859 70.15900012886863
39.5508 70.96215213044827
41.0156 72.40348316811541
42.4805 73.23545257920506
43.9453 74.06674284895618
45.4102 74.78963467167823
46.875 75.79500070536078
48.3398 76.4971532030855
51.2695 78.03357151087309
52.7344 78.65138280995565
54.1992 79.19295313821554
55.6641 79.75026805112826
58.5938 80.74217535313316
60.0586 81.18358643268385
62.9883 82.03494219216218
64.4531 82.37902048831239
67.3828 83.07449606812345
68.8477 83.35442386326555
71.7773 83.87234392568672
74.707 84.33133752645071
77.6367 84.63403562182964
79.1016 84.73623469530995
82.0312 84.97000048896783
84.9609 85.27903584355934
87.8906 85.4647417163691
90.8203 85.72231339320382
95.2148 85.93208021909275
98.1445 86.03844962998761
101.074 86.12541230073909
105.469 86.20026775011736
108.398 86.213165252626
112.793 86.12388604662027
117.188 85.98359949054745
120.117 85.92575657957907
124.512 86.23967802240986
128.906 86.16768427253787
133.301 86.08035125368943
139.16 85.89824249881393
143.555 85.64738333217375
147.949 85.63253422633139
153.809 85.68052840090147
159.668 85.1291258281596
165.527 84.85861927024658
171.387 84.58211796688184
177.246 84.9988676801657
183.105 84.7782268649681
188.965 84.75136954636505
196.289 84.79965691035152
203.613 84.11030286259212
210.938 84.119575485945
218.262 84.15568432563768
225.586 83.71352401796128
232.91 82.85400913642044
241.699 83.03938930741336
250.488 83.1596280804814
259.277 83.56888792110489
268.066 84.3881213849181
276.855 83.75637704442858
287.109 83.1860198206081
297.363 83.8206006443888
307.617 83.73723903838294
319.336 83.14155726914244
329.59 82.89134204843856
341.309 82.89186668704649
353.027 82.56657338808247
366.211 83.41878201597494
379.395 83.04150463142841
392.578 82.85271865836708
405.762 82.61391110441052
420.41 82.44467368899704
435.059 82.34204979975208
451.172 82.4405828846256
465.82 82.79945357805752
483.398 82.58522894080028
499.512 82.937439800831
517.09 82.17218160728639
536.133 82.4290861693411
555.176 82.39654331034015
574.219 82.17940955697625
594.727 82.30837664430084
615.234 82.25303499099022
637.207 82.41684812928487
659.18 82.44539111733579
682.617 81.68611525365489
707.52 82.76096629744201
732.422 82.65115753934275
757.324 82.80002306448047
785.156 83.33128172785484
811.523 83.80944499697029
840.82 84.37336421413045
870.117 84.0166763316308
900.879 84.20848109839609
933.105 84.06625618810968
965.332 84.25240422555554
1000.49 84.18798413047439
1035.64 83.8386529056466
1072.27 83.11101830036951
1108.89 83.42853912615612
1148.44 83.19547501664186
1189.45 82.89538550373359
1230.47 82.93551911753897
1274.41 82.77439621283025
1319.82 82.47398123860401
1366.7 82.48054449103235
1413.57 82.85676081718697
1463.38 82.30737199521914
1516.11 81.2951918998754
1568.85 80.84419952180843
1624.51 79.77312062324465
1681.64 78.88583553795695
1741.7 77.86130423732516
1803.22 75.97147191695646
1866.21 76.14802720264
1932.13 75.89869292844467
1999.51 80.22896445123051
2069.82 81.27117187713591
2143.07 83.27205285253534
2219.24 82.73349951357338
2296.88 84.42746472467505
2378.91 85.02723486842748
2462.4 85.02243001524658
2548.83 84.7069236300228
2639.65 84.99018334466172
2731.93 84.65655770110315
2828.61 85.07138497513591
2928.22 85.98121711149935
3030.76 86.01333988045548
3137.7 86.32656169079343
3249.02 86.25298588206698
3363.28 85.4913076307838
3481.93 85.66049058638767
3604.98 85.1682718506574
3732.42 85.29334576418759
3864.26 84.98402118966993
4000.49 84.80183634943974
4141.11 84.41939516631561
4287.6 84.36526415109036
4438.48 84.24403236557009
4595.21 85.08424252174115
4756.35 84.79252990250565
4924.8 84.88078693769418
5097.66 85.00636958441673
5277.83 84.85122440626785
5463.87 84.70713012991149
5657.23 84.48888586463957
5856.45 84.01886678189037
6062.99 83.76964029858036
6276.86 83.58620113876786
6498.05 83.3589735394869
6726.56 83.33468593378952
6963.87 83.52022791794056
7209.96 83.59481807856866
7464.84 83.57898944123733
7727.05 83.1861994059659
7999.51 82.97634710264265
8282.23 82.85163177335957
8573.73 82.1683304117916
8876.95 81.96551002389074
9188.96 81.57816230265507
9514.16 81.18998164101959
9849.61 81.18445244700641
10196.8 80.63808877508137
10555.7 80.38400542081217
10927.7 79.81813908700761
11313.0 79.50498788138847
11712.9 79.09601894747178
12126.0 79.1031884942993
12553.7 79.28304122326142
12996.1 79.1583433975841
13454.6 79.25972765132194
13929.2 78.6102067018639
14419.9 78.57369260485541
14928.2 78.74919004756065
15455.6 78.77231587761592
16000.5 78.87444204583736
16564.5 78.36725231432692
17148.9 77.53698638384236
17752.4 76.63172338847437
18379.4 75.75359454346543
19026.9 74.4386653719824
19697.8 72.69084602931817
19999.5 71.90894617988992
