Freq "Estimated In-Room Response"
22.4 11.218874408833031
23.0 11.561387325885832
23.6 12.00014981784166
24.0 12.499536634618366
25.0 12.993990811987075
25.8 13.497926206757242
26.5 14.011933586174322
27.2 14.543828771802865
28.0 15.091552823452261
29.0 15.66258339325303
30.0 16.240054628291077
30.7 16.79992467397632
31.5 17.523289556584345
32.5 18.12131877707786
33.5 18.541138410126663
34.5 19.07411144181806
35.5 19.627807914778984
36.5 20.18455406875681
37.5 20.721082179242032
38.7 21.24816543399355
40.0 21.793186576895565
41.2 22.298515944480116
42.5 22.820649975478048
43.7 23.339034884244384
45.0 23.96467766803009
46.2 24.432939482960577
47.5 24.850260246589514
48.7 25.32273171963014
50.0 25.82512314594497
51.5 26.309325633559
53.0 26.79240090443635
54.5 27.259376513657955
56.0 27.824836023899095
58.0 28.33426639200279
60.0 28.75509343749168
61.5 29.194484554118716
63.0 29.66616801238925
65.0 30.157699961944246
67.0 30.635800037476628
69.0 31.19036071149658
71.0 31.71438395663459
73.0 32.131834785771616
75.0 32.59433624324065
77.5 33.09114932591038
80.0 33.571973925913056
82.5 34.115414307868875
85.0 34.60539068025453
87.5 35.039119644271494
90.0 35.46949430852004
92.5 35.91182099908448
95.0 36.421052796571246
97.5 36.856354078455226
100.0 37.2459308079231
103.0 37.67913105250231
106.0 38.13458978018265
109.0 38.603215879666166
112.0 39.056255532199145
115.0 39.53237506654081
118.0 40.08970651398268
122.0 40.65672622309587
125.0 41.24130986552639
128.0 41.8253394786541
132.0 42.50048132880629
136.0 43.10386647986597
140.0 43.69282322080305
145.0 44.319480926855334
150.0 44.91336816910592
155.0 45.43051330709976
160.0 45.97371220865544
165.0 46.43201827217179
170.0 46.82599690365224
175.0 47.24353195306149
180.0 47.57460984915845
185.0 47.91943894163731
190.0 48.252378647807404
195.0 48.604052930332784
200.0 48.98059842249073
206.0 49.35911567055625
212.0 49.75184618377027
218.0 50.11979969853259
224.0 50.46151532963752
230.0 50.72020535351258
236.0 50.899675867663376
240.0 50.9959656711582
250.0 51.00467954456546
258.0 50.93583174384902
265.0 50.892877679446855
272.0 50.85272457375878
280.0 50.87843981956195
290.0 50.9148206156878
300.0 50.97666421395424
307.0 50.98667221512845
315.0 51.004663569819414
325.0 50.98941626250006
335.0 50.92218786133476
345.0 50.7846984997865
355.0 50.59817393703257
365.0 50.40704664165513
375.0 50.24838859281098
387.0 50.238463267516764
400.0 50.278112343369614
412.0 50.28555895883896
425.0 50.12982732474255
437.0 49.86769386221441
450.0 49.60162428596804
462.0 49.46489378559757
475.0 49.41047351502287
487.0 49.38365579771559
500.0 49.300404449704345
515.0 49.2957601565256
530.0 49.410386904169016
545.0 49.6744221084186
560.0 49.767019340138575
580.0 49.563322122889005
600.0 49.2831610644305
615.0 49.05215977133136
630.0 48.98008240116222
650.0 49.07978403104089
670.0 49.18470376360004
690.0 49.23355861451422
710.0 49.32644139275362
730.0 49.429653567623404
750.0 49.362352931657696
775.0 49.3018187652542
800.0 49.30217339449122
825.0 49.17147916339998
850.0 49.07805027744594
875.0 48.9756437774262
900.0 48.75821641328645
925.0 48.63095943361553
950.0 48.67666578784723
975.0 48.820341915915165
1000.0 49.08738862460419
1030.0 49.340171561960716
1060.0 49.22548780557466
1090.0 49.15870214253654
1120.0 49.06821700274104
1150.0 48.99057730374966
1180.0 49.13090299358916
1220.0 49.1192255273276
1250.0 48.95915415475778
1280.0 48.635247136389836
1320.0 48.60236371861399
1360.0 48.66895817885822
1400.0 48.756686630806755
1450.0 48.95420666785287
1500.0 49.1591949936105
1550.0 49.218710512730766
1600.0 49.10287512679899
1650.0 48.867381779615485
1700.0 48.77804735888
1750.0 49.23480993224794
1800.0 49.901061767165544
1850.0 50.27665401204803
1900.0 50.443488826657145
1950.0 50.62160397922854
2000.0 50.851336541189085
2060.0 51.290710918727115
2120.0 51.57334083508884
2180.0 51.57348593784869
2240.0 51.78425236291399
2300.0 52.161034649297534
2360.0 52.293610921998834
2400.0 52.222548855675214
2500.0 51.94045806986021
2580.0 51.560098098743936
2650.0 51.24879066900834
2720.0 51.27155164452145
2800.0 51.2621320641875
2900.0 51.07594570129102
3000.0 50.99298588400025
3070.0 50.96312265748932
3150.0 50.9337012880366
3250.0 50.77459488554412
3350.0 51.11922626955028
3450.0 51.20017552399867
3550.0 50.955560185442394
3650.0 50.9508651474527
3750.0 50.78501696060387
3870.0 50.84538110631223
4000.0 50.95451879676132
4120.0 51.16896447124179
4250.0 51.046989808074
4370.0 50.81097895975607
4500.0 50.38749058239628
4620.0 49.858784598834276
4750.0 49.576265330554364
4870.0 49.397566916310865
5000.0 49.31989042487916
5150.0 49.0678436426131
5300.0 48.71651898711586
5450.0 48.349288232815695
5600.0 48.22158859921255
5800.0 48.21954743550562
6000.0 48.15632418997431
6150.0 47.95098203119399
6300.0 47.66901822555789
6500.0 47.394816269899934
6700.0 47.287483022890726
6900.0 47.252347298695014
7100.0 47.33401663617694
7300.0 47.371547215898275
7500.0 47.50823891840126
7750.0 47.950846094503945
8000.0 48.639818543248936
8250.0 49.27517933077188
8500.0 49.84673655166493
8750.0 50.383504790973774
9000.0 50.69869230708652
9250.0 50.73541443804042
9500.0 50.45559773797865
9750.0 50.00201765405781
10000.0 49.379679111656785
10300.0 48.775317090614806
10600.0 48.42851569562828
10900.0 47.84909275366192
11200.0 47.351698755711624
11500.0 47.233529123660574
11800.0 46.84228857537873
12200.0 46.99000430215176
12500.0 47.40994100102827
12800.0 47.675606812603235
13200.0 47.9639573241609
13600.0 47.60399360954747
14000.0 46.36047174057937
14500.0 45.487313979018026
15000.0 46.67062520302504
15500.0 48.44774182270183
16000.0 49.51865476990062
16500.0 49.91197034437201
17000.0 49.81322427839319
17500.0 49.42417998482911
18000.0 48.24965008304757
18500.0 46.43874593198878
19000.0 46.38394531932711
19500.0 46.25822656400108
