Freq "Estimated In-Room Response"
22.4 39.27789767858806
23.0 39.17180372686357
23.6 39.12542804076588
24.0 39.02162798009337
25.0 39.11992039515593
25.8 39.298784034098816
26.5 39.486637760420706
27.2 39.971993653607
28.0 40.5087200345516
29.0 41.115449932360605
30.0 41.967404081340106
30.7 43.323558820295915
31.5 44.64675340955279
32.5 45.93275976369429
33.5 47.57918925987366
34.5 49.19063845235729
35.5 50.68647853236246
36.5 52.38375594012754
37.5 53.985463985367915
38.7 55.54374220334472
40.0 57.316679433083806
41.2 58.89908808456764
42.5 60.425949798575516
43.7 61.83292875252744
45.0 63.219143166373556
46.2 64.64534291620237
47.5 65.99960177335873
48.7 67.35677607991191
50.0 68.57588785355033
51.5 69.77719006327504
53.0 70.81295080643244
54.5 71.7394483211101
56.0 72.58774311533719
58.0 73.41975716798808
60.0 74.19272705529512
61.5 74.9753733333132
63.0 75.65337889845948
65.0 76.27744602296187
67.0 76.7675420883141
69.0 77.22070076626937
71.0 77.65119896624523
73.0 78.08079381269252
75.0 78.49369462550172
77.5 78.83270430506235
80.0 79.1625630425645
82.5 79.34206720654983
85.0 79.51603923706897
87.5 79.63686585473928
90.0 79.73764174460013
92.5 79.81255348980447
95.0 79.81955014824072
97.5 79.72368251954398
100.0 79.58055577577244
103.0 79.64867646559273
106.0 79.81827724256823
109.0 80.13132219650731
112.0 80.48162876913196
115.0 80.70205757801081
118.0 80.81146814697382
122.0 80.89404234945304
125.0 80.89664448534249
128.0 80.85153418209188
132.0 80.83782581038226
136.0 80.85931386412611
140.0 80.7745946915802
145.0 80.63104835621618
150.0 80.42953879077598
155.0 80.19570147158345
160.0 79.98291117945553
165.0 79.27974502268097
170.0 78.8184814821772
175.0 78.70103345417225
180.0 78.62369298910664
185.0 78.77756628568943
190.0 78.98262481059174
195.0 79.27384633926216
200.0 78.47542719903493
206.0 78.28589883939337
212.0 78.49565889660728
218.0 78.5105079918717
224.0 78.47379459907235
230.0 78.52968481473906
236.0 78.45129265271053
240.0 78.36900887290581
250.0 78.31476635421157
258.0 78.25012958962677
265.0 78.33694363959123
272.0 78.43521476976153
280.0 78.83402977888544
290.0 79.2253744827608
300.0 79.00382383633824
307.0 78.56567802487612
315.0 78.08141052412755
325.0 77.78634209865527
335.0 77.45859864835244
345.0 77.1967465241611
355.0 77.01612656782264
365.0 77.78851786104372
375.0 77.52710348739164
387.0 76.63746734911507
400.0 75.66324225829246
412.0 75.66691595990656
425.0 76.63575593272839
437.0 77.63024832705852
450.0 77.4532915031823
462.0 76.62238011274039
475.0 75.7596164249584
487.0 75.50894613258347
500.0 75.84000302642761
515.0 76.29009910815581
530.0 76.42347537493205
545.0 76.51633218623822
560.0 75.97184469904164
580.0 75.50564625251262
600.0 75.66046966004235
615.0 75.69231887826083
630.0 75.63487492078586
650.0 75.71843656974968
670.0 75.74610642930435
690.0 75.63864222060339
710.0 75.61145747140574
730.0 75.47609727183581
750.0 75.53091454282145
775.0 75.68250626536273
800.0 75.61173844071286
825.0 75.4835107708848
850.0 75.23442523760201
875.0 74.93069712759022
900.0 74.0346799130723
925.0 74.02986093001755
950.0 74.50494341011414
975.0 75.0753066050393
1000.0 75.5426424617931
1030.0 75.83519789374797
1060.0 76.04910201042767
1090.0 76.3641192230838
1120.0 76.70197619439364
1150.0 76.76603320751434
1180.0 76.58490042197201
1220.0 76.27061598493161
1250.0 76.04598187670736
1280.0 76.2182275826795
1320.0 76.40449935828399
1360.0 76.27554997573338
1400.0 75.85518611228592
1450.0 75.23988910421843
1500.0 74.71118303568034
1550.0 74.74133997187803
1600.0 75.03669393131054
1650.0 74.90738281020847
1700.0 75.04605921415056
1750.0 75.56719297114445
1800.0 75.48809423482612
1850.0 74.87221675544615
1900.0 75.0158328391781
1950.0 75.45414267268889
2000.0 75.97597919760787
2060.0 75.66830130902329
2120.0 75.4927398463314
2180.0 74.45720715089969
2240.0 73.85502760892827
2300.0 73.84824288213582
2360.0 74.58707683243733
2400.0 75.16014372792255
2500.0 75.77087381593357
2580.0 75.36810592748105
2650.0 74.89653884796387
2720.0 74.82123087513781
2800.0 75.81612684349868
2900.0 76.30533822332049
3000.0 75.56672381170952
3070.0 74.9542989723927
3150.0 74.20281847769402
3250.0 73.6108997092027
3350.0 73.7880368155587
3450.0 74.64609831999816
3550.0 74.89506102351885
3650.0 75.52573364717404
3750.0 75.07205380402486
3870.0 74.86177072592871
4000.0 74.49798067465983
4120.0 75.59255456707682
4250.0 75.047116684452
4370.0 75.03293312520492
4500.0 74.92875663466862
4620.0 75.13078502995971
4750.0 74.85301886930036
4870.0 74.42208446736532
5000.0 73.29301978157808
5150.0 72.74428666273478
5300.0 72.94151602223874
5450.0 73.71980528081718
5600.0 75.06591273569389
5800.0 75.08846443483169
6000.0 74.5307178512239
6150.0 74.38160114916082
6300.0 73.79437114659702
6500.0 74.503356631853
6700.0 75.92873328862561
6900.0 75.89117638252253
7100.0 75.10360512394399
7300.0 74.67558330173523
7500.0 74.5873583507757
7750.0 74.52442511608845
8000.0 74.81299941941323
8250.0 75.13021665675572
8500.0 74.60906496782977
8750.0 74.29745894003699
9000.0 74.66533917684718
9250.0 74.30987000171369
9500.0 73.47368867295157
9750.0 72.99187846146741
10000.0 73.19054715117593
10300.0 73.52040935842622
10600.0 74.23675420654791
10900.0 75.98365429152307
11200.0 74.98577034939825
11500.0 73.91652466846679
11800.0 74.18100297298407
12200.0 72.74091321391128
12500.0 71.57050281473974
12800.0 71.63528929663059
13200.0 72.026223845726
13600.0 68.22354588120064
14000.0 67.45314071088409
14500.0 64.9749201418883
15000.0 66.26429258041964
15500.0 67.61608391606197
16000.0 68.35984299680153
16500.0 71.02439519005164
17000.0 71.7010542286875
17500.0 70.99658292877803
18000.0 68.47819257242149
18500.0 64.48720406743055
19000.0 61.82490398298188
19500.0 54.743115999328325
