Freq "Rear Wall Bounce"
22.4 44.22276394711153
23.0 44.52276394711153
23.6 44.922763947111534
24.0 45.22276394711152
25.0 45.62276394711152
25.8 45.922763947111534
26.5 46.32276394711154
27.2 46.62276394711151
28.0 47.02276394711153
29.0 47.32276394711154
30.0 47.62276394711151
30.7 48.022763947111514
31.5 48.322763947111525
32.5 48.72276394711152
33.5 49.022763947111514
34.5 49.322763947111525
35.5 49.62276394711152
36.5 49.922763947111534
37.5 50.22276394711152
38.7 50.522763947111514
40.0 50.822763947111525
41.2 51.02276394711153
42.5 51.32276394711154
43.7 51.522763947111514
45.0 51.72276394711153
46.2 51.822763947111525
47.5 51.822763947111525
48.7 51.92276394711152
50.0 52.02276394711153
51.5 52.02276394711153
53.0 52.12276394711152
54.5 52.22276394711152
56.0 52.32276394711154
58.0 52.422763947111534
60.0 52.62276394711151
61.5 52.72276394711152
63.0 52.92276394711152
65.0 53.12276394711152
67.0 53.322763947111525
69.0 53.52276394711153
71.0 53.72276394711152
73.0 54.022763947111514
75.0 54.22276394711153
77.5 54.47305176389
80.0 54.773051763889995
82.5 55.02276394711153
85.0 55.273051763889995
87.5 55.42276394711152
90.0 55.522763947111514
92.5 55.473051763889984
95.0 55.37305176388999
97.5 55.273051763889995
100.0 55.17305176389
103.0 55.07305176389001
106.0 54.97305176389
109.0 54.873051763890004
112.0 54.82276394711151
115.0 54.72276394711152
118.0 54.62276394711154
122.0 54.62276394711154
125.0 54.52276394711153
128.0 54.52276394711153
132.0 54.62276394711154
136.0 54.72276394711152
140.0 54.873051763890004
145.0 55.02276394711153
150.0 55.22276394711152
155.0 55.37305176388999
160.0 55.57305176389001
165.0 55.773051763889995
170.0 55.97305176389
175.0 56.17305176389
180.0 56.17305176389
185.0 56.17305176389
190.0 56.12391513793847
195.0 56.12391513793847
200.0 56.12391513793847
206.0 56.17305176389
212.0 56.273051763889995
218.0 56.32391513793847
224.0 56.32391513793847
230.0 56.32391513793847
236.0 56.32391513793847
240.0 56.32391513793847
250.0 56.32391513793847
258.0 56.273051763889995
265.0 56.17305176389
272.0 56.07305176388999
280.0 55.97305176389
290.0 55.873051763890004
300.0 55.82276394711151
307.0 55.773051763889995
315.0 55.72276394711153
325.0 55.67305176389
335.0 55.67305176389
345.0 55.67305176389
355.0 55.62276394711154
365.0 55.522763947111514
375.0 55.473051763889984
387.0 55.473051763889984
400.0 55.522763947111514
412.0 55.62276394711154
425.0 55.67305176389
437.0 55.82276394711151
450.0 56.02276394711153
462.0 56.22276394711152
475.0 56.522763947111514
487.0 56.522763947111514
500.0 56.422763947111534
515.0 56.32276394711151
530.0 56.22276394711152
545.0 56.12276394711152
560.0 56.02276394711153
580.0 55.873051763890004
600.0 55.773051763889995
615.0 55.67305176389
630.0 55.37305176388999
650.0 55.12391513793848
670.0 54.873051763890004
690.0 54.773051763889995
710.0 54.72276394711152
730.0 54.82276394711151
750.0 54.873051763890004
775.0 55.02276394711153
800.0 55.17305176389
825.0 55.423915137938465
850.0 55.57535384047689
875.0 55.77995555505359
900.0 55.786852040747064
925.0 55.84115864273319
950.0 55.786852040747064
975.0 55.786852040747064
1000.0 55.786852040747064
1030.0 55.72736749047459
1060.0 55.67305176389
1090.0 55.57305176389001
1120.0 55.57305176389001
1150.0 55.52391513793846
1180.0 55.52391513793846
1220.0 55.52391513793846
1250.0 55.522763947111514
1280.0 55.37305176388999
1320.0 55.17305176389
1360.0 54.922763947111534
1400.0 54.62276394711154
1450.0 54.37305176388999
1500.0 54.02391513793846
1550.0 53.675353840476916
1600.0 53.375353840476905
1650.0 52.92736749047458
1700.0 52.53311735005214
1750.0 52.2411586427332
1800.0 51.89603602295824
1850.0 52.233117350052126
1900.0 52.22276394711152
1950.0 52.47305176389
2000.0 52.973051763889984
2060.0 53.675353840476916
2120.0 53.27535384047691
2180.0 52.62391513793848
2240.0 51.875353840476905
2300.0 51.67995555505358
2360.0 51.98685204074705
2400.0 52.20749784995638
2500.0 52.47893469770021
2580.0 52.578934697700205
2650.0 52.121225533245706
2720.0 51.879955555053584
2800.0 52.27535384047691
2900.0 52.79603602295823
3000.0 52.55148290091037
3070.0 52.08685204074706
3150.0 51.879955555053584
3250.0 52.07535384047689
3350.0 52.32276394711154
3450.0 52.27305176389001
3550.0 52.12276394711152
3650.0 52.023915137938474
3750.0 51.67535384047689
3870.0 51.43311735005213
4000.0 50.39603602295823
4120.0 49.4753538404769
4250.0 49.47305176389
4370.0 49.022763947111514
4500.0 48.72276394711152
4620.0 49.123915137938454
4750.0 50.04115864273318
4870.0 49.664079298826834
5000.0 48.6411586427332
5150.0 48.07995555505359
5300.0 46.875353840476905
5450.0 46.933117350052115
5600.0 46.78685204074705
5800.0 47.664079298826834
6000.0 46.9411586427332
6150.0 47.22276394711152
6300.0 46.275353840476896
6500.0 46.43311735005213
6700.0 45.80749784995638
6900.0 45.564079298826826
7100.0 45.38685204074706
7300.0 45.13311735005213
7500.0 45.1753538404769
7750.0 45.879955555053584
8000.0 45.53720479734757
8250.0 46.0799555550536
8500.0 46.52736749047459
8750.0 47.42327563116133
9000.0 47.260605853954004
9250.0 47.22327563116133
9500.0 45.93689001841511
9750.0 45.21535871278378
10000.0 44.055419138562684
10300.0 43.62122553324569
10600.0 43.41449435612596
10900.0 42.011850855448
11200.0 40.437204797347576
11500.0 40.35022319403423
11800.0 41.723275631161314
12200.0 41.723275631161314
12500.0 40.19847630773508
12800.0 39.578934697700234
13200.0 39.48685204074705
13600.0 39.79603370005411
14000.0 39.17893469770023
14500.0 38.62122553324569
15000.0 38.078934697700234
15500.0 38.096036022958245
16000.0 38.927367490474595
16500.0 37.82391513793847
17000.0 35.8514829009104
17500.0 35.8273674904746
18000.0 37.375353840476876
18500.0 36.875353840476905
19000.0 35.8514829009104
19500.0 36.81535871278375
