Freq,Floor Bounce,Ceiling Bounce,Front Wall Bounce,Side Wall Bounce,Rear Wall Bounce,Total Early Reflection
22.4,42.40937400321448,47.78407839372548,44.003345372990566,42.86218029565933,39.543136594413966,44.18036317165823
23.0,42.42402487026024,48.47387961222819,44.63968470015814,43.5310842382691,40.19483367512487,44.76994972895412
23.6,42.4162794008364,49.20076749445562,45.614533774273525,44.717168982292236,41.522709813538484,45.584500494273556
24.0,42.641361504235874,50.06692185116049,46.65739103511504,45.86669492234017,42.75139621173838,46.50677964027989
25.0,43.74136150423587,51.600767494455624,48.36545736350604,47.730645483498506,44.58607391163403,48.12807086704515
25.8,44.87662798253905,52.83513059177983,49.83344934412378,49.24471320512643,46.120123745584806,49.484450302559566
26.5,46.885739156489706,54.23358982687998,51.544442188020724,50.79040933304594,47.80521888273344,51.050894097876125
27.2,48.665039375907526,55.3669218511605,53.00227231096949,52.13599702796873,49.257002845749696,52.38085977171244
28.0,50.93392657477244,56.90076749445561,54.772648431131586,53.80157634414883,51.007499163191056,54.08252447220056
29.0,52.90330511748405,58.235130591779836,56.345100934728265,55.29840849253796,52.602549245044315,55.59433062119464
30.0,55.04583147157396,59.668450838054326,57.98845654626879,56.97803890302279,54.36274402696958,57.23799345002138
30.7,56.78573915648971,60.86845083805434,59.40195831410924,58.42991532001054,55.8861692736036,58.63822594587259
31.5,58.48888547155002,61.93435140868502,60.672971917377026,59.73534133548381,57.33818334443882,59.92775648087061
32.5,59.909632566816214,62.93435140868502,61.78683695097146,60.87098969799089,58.564041352159705,61.06820081659066
33.5,61.198974451309255,63.76845083805432,62.886836950971485,61.96977519981485,59.72725034079653,62.12527925280628
34.5,62.65667255930052,64.66845083805433,63.98683695097148,63.08968658438482,60.93179864704368,63.244446088618645
35.5,64.1489851487955,65.70306957104252,65.20130813607778,64.30168058850603,62.236483601051134,64.470340477663
36.5,65.54283030471974,66.66845083805433,66.37297191737703,65.47879600457284,63.537904262243615,65.64762372571255
37.5,66.70690501035459,67.56845083805433,67.38748929892041,66.50939078131029,64.64623453805103,66.6779925706466
38.7,67.67150800786938,68.23663575667186,68.24412398190063,67.37964889444025,65.60591403244185,67.52704147933743
40.0,68.70306957104253,68.90306957104252,69.0871668922436,68.23784978248888,66.54863520641017,68.38503181666891
41.2,69.63513059177981,69.60306957104252,69.91606664920141,69.07522019263422,67.48437656770204,69.22358032044525
42.5,70.60076749445562,70.27150800786937,70.6871668922436,69.90342665002863,68.44978222759515,70.05362050082873
43.7,71.33358982687997,70.83663575667185,71.32946066855591,70.61242611887538,69.34389527511458,70.74908444136732
45.0,71.9669218511605,71.20306957104253,71.84412398190064,71.15949392858256,70.15916220991181,71.3126060867632
46.2,72.3,71.40306957104252,72.11606664920141,71.4565159407946,70.73894070941438,71.63839103854517
47.5,72.33358982687997,71.27001488257477,72.01606664920142,71.33554822706392,70.87925964466064,71.59948103449258
48.7,71.9669218511605,70.67150800786939,71.68879404668057,70.8101952445571,70.43808292217129,71.15717314427272
50.0,71.86845083805433,70.48219967332304,71.85000634017072,70.43969194974366,69.67037234108824,70.9479101346665
51.5,72.67150800786938,71.02758719283592,72.75228448193599,70.83866082742537,69.0245370248547,71.46955035963634
53.0,74.07609175449221,72.32758719283592,74.152284481936,72.10951705823668,69.2455783446415,72.71041237134045
54.5,75.50690501035459,73.78982856673471,75.51998423401444,73.60783881823127,70.23103215419441,74.10309568880628
56.0,76.63663575667186,74.8898285667347,76.51998423401444,74.82561803930277,71.44381114477227,75.21459909556717
58.0,77.26845083805432,75.55260953202217,77.03175513861908,75.52496590818859,72.42630570972366,75.8632675554356
60.0,77.46845083805432,75.74898514879551,77.21704993328868,75.85352374961855,73.06356765578465,76.12416051999467
61.5,77.53435140868501,75.74898514879551,77.24607766783812,75.97072444706427,73.45629080349016,76.21181382549412
63.0,77.80076749445563,75.88219967332304,77.43175513861907,76.11885719758,73.890260938571,76.43011786503698
65.0,77.96845083805432,75.88219967332304,77.60359507493895,76.2196469803802,74.1502478492936,76.56778547982144
67.0,78.16845083805433,75.91916705502754,77.74770564348938,76.27381874167668,74.17462855122,76.67926226528925
69.0,78.46845083805431,76.01916705502754,78.03338849099713,76.48864363605654,74.22460181035156,76.89939780135308
71.0,78.86845083805434,76.2566725593005,78.36264712636357,76.74510076170488,74.28543042401326,77.19289754360221
73.0,79.43435140868503,76.52758719283592,78.90684500366415,77.10688974944412,74.4165664351319,77.62683467935769
75.0,80.13435140868503,77.06588846059688,79.5936659009678,77.6825528380831,74.6144717975765,78.2305645212353
77.5,81.03435140868501,77.83752777300026,80.46528715999551,78.48087777194915,75.03666174146869,79.0455776463056
80.0,81.76845083805433,78.63752777300029,81.20684500366416,79.33868705662373,75.9851024286925,79.83099469362537
82.5,82.66692185116051,79.62758719283593,82.01998423401443,80.36712444912335,77.30996737213825,80.78054886747171
85.0,83.43358982687998,80.52758719283591,82.77525122642456,81.28305423355704,78.55777150163374,81.63738776941702
87.5,84.0,81.18982856673472,83.33175513861906,81.99354289375016,79.58926845276092,82.29067704764608
90.0,84.40076749445562,81.58982856673471,83.73175513861906,82.36163805672358,80.18760992003261,82.70672775132238
92.5,84.83435140868502,81.8566725593005,84.11998423401444,82.59669265070127,80.48521706466491,83.05185667275583
95.0,85.33435140868502,82.0566725593005,84.61998423401442,82.88110479329855,80.594066438298,83.42673658620457
97.5,86.23435140868503,82.66588846059686,85.40684500366416,83.52751959002244,80.89511680387106,84.15106708546537
100.0,87.16692185116051,83.59897445130926,86.36426890385724,84.50719191032415,81.6421991414204,85.08141173702329
103.0,87.93435140868503,84.39897445130926,87.11998423401442,85.32324478621132,82.39108158827611,85.85722860545168
106.0,88.40076749445561,84.96588846059687,87.65000634017072,85.84067556017696,83.07582993739825,86.38413092086402
109.0,88.76845083805432,85.26588846059688,88.052284481936,86.13496494337917,83.45487442904098,86.73962363243663
112.0,89.33435140868504,85.66588846059688,88.52192748204644,86.5958455231524,83.93812789223688,87.23018899564315
115.0,89.73435140868503,86.06588846059687,88.93695776218266,86.98472869827192,84.4788934954284,87.6457052713175
118.0,89.93435140868502,86.06588846059687,89.13924275721992,87.04575521564081,84.61332172837876,87.78901018627309
122.0,90.23435140868501,85.97662798253904,89.33924275721992,87.05608926265764,84.41385517768205,87.9159004111523
125.0,90.73435140868503,86.28888547155002,89.82645994933287,87.48173448818912,84.45520326999537,88.33717224293562
128.0,91.23435140868503,86.78888547155003,90.32386986096213,87.99338254853775,84.87627769038157,88.83195611254746
132.0,91.33435140868502,86.88888547155003,90.46653957825424,88.14536306608542,84.93393986220383,88.94924614798592
136.0,91.23435140868503,86.7026545034034,90.35126317223464,88.02116938096634,84.51636096733121,88.80577055949156
140.0,91.26845083805432,86.7026545034034,90.32386986096213,88.04875850366088,84.2960393111083,88.7985641010313
145.0,91.30228461396018,86.96194867563767,90.39366590096782,88.13867302448942,84.53764461444783,88.89535795376099
150.0,90.93663575667186,86.78888547155003,90.11104165806829,87.8420882545378,84.44573414982766,88.61027730537893
155.0,90.63663575667186,86.47662798253906,89.79728484062565,87.47925727750336,84.26934963456324,88.30394181036876
160.0,90.43663575667188,86.04898359150843,89.57172729776471,87.07339722707187,83.98443224594547,88.02705581924808
165.0,90.23663575667186,85.56194867563767,89.41688698638106,86.69476133631515,83.49647699174109,87.7541071113449
170.0,90.2053180676647,85.10265450340339,89.28693201565363,86.42028667996722,82.76841123936784,87.55647541914387
175.0,90.13663575667186,84.892378988098,89.28693201565363,86.4366646122237,82.1819924013454,87.47337039942944
180.0,90.0053180676647,84.99237898809801,89.1985280666198,86.50197948322104,81.90229451327764,87.40399212102979
185.0,89.7053180676647,85.07641629732152,88.97172729776472,86.33834124939526,81.90295872056701,87.21111612151206
190.0,89.2404416794549,84.57641629732153,88.5010740230561,85.74884236362627,81.59334037666213,86.72941094182747
195.0,89.00531806766472,83.692378988098,88.08693201565364,85.20109810878189,80.8501324784409,86.2856566115577
200.0,89.7053180676647,84.10982855556756,88.84367019549539,86.02335442670476,81.25013997830186,86.97556047834298
206.0,89.77977745790568,84.96726558859612,89.2717272977647,86.47715983936007,81.49994290845679,87.31688160821584
212.0,89.41592692226706,85.05062128010363,89.08693201565366,86.28314387778882,81.14733583585812,87.09210753044992
218.0,89.0948570588317,85.0179278976485,88.91688698638107,86.00934103433092,80.86026692081226,86.86555218397376
224.0,88.83257218046559,85.17641629732151,88.91688698638107,86.06570700298413,80.91584125167441,86.81340768695365
230.0,88.3552196930838,85.4026545034034,88.86189813238985,85.9507295769674,80.82045560215721,86.65686013502516
236.0,87.65866027600833,85.57641629732153,88.82294230691988,85.60950483852929,80.71214858371513,86.41209251373304
240.0,86.87641629732151,86.0026545034034,88.40107402305611,85.42922847561736,80.85999139821838,86.1245664270726
250.0,86.72758719283593,85.52179738688895,87.51425954792549,84.7923487975279,80.15389438409913,85.55475552183304
258.0,87.84576719438469,85.19506458035829,87.63228457628182,84.67256367477653,79.54358465383888,85.80404454544858
265.0,88.40986628672329,84.86194867563765,87.90597807488021,84.94354314976486,79.64548431153634,86.06701019662208
272.0,88.67977745790569,84.53546263134683,88.12294230691987,85.00659034090368,79.60528445617946,86.18907391081854
280.0,88.81592692226707,84.27641629732153,88.28242230727827,84.97806969406987,79.21759863386558,86.23365427933632
290.0,88.42349685065979,84.21792789764851,88.03904179623622,84.75147366301368,78.33236424805659,85.93974103910588
300.0,88.0948570588317,84.04391724861637,87.92683455312961,84.67226920611307,77.83775713647609,85.73584698368728
307.0,87.86096514237182,83.65062128010362,87.61487193905668,84.4132191058159,77.96263106459706,85.46316059136487
315.0,87.72349685065979,82.792378988098,87.16272615755047,83.7009007250709,77.43760611422512,85.03102934834942
325.0,87.48656646311248,82.13469773360899,86.76685864490463,83.13393803650463,76.71852974819302,84.62944901261397
335.0,87.3234968506598,81.63469773360899,86.56952137770935,82.66813369529652,76.2328538108429,84.36605027194028
345.0,86.97717895989803,81.53469773360898,86.62992432109263,82.52411722747094,75.9938327008525,84.21527696663134
355.0,87.71592538879982,81.95999961744991,87.416158672187,83.2663736501423,76.40488143940537,84.92894538172828
365.0,88.71592538879982,82.16503937590753,88.46510687535927,84.14525333668527,77.06757218248927,85.84688204668959
375.0,88.90261155895365,81.90791075563449,88.82321580577664,84.37012253696653,77.26975307742201,86.06679386670945
387.0,88.25866027600834,81.63113467688883,88.51463057767091,83.78316539548125,76.92416697001292,85.59620133937986
400.0,87.34258273663016,80.9231203439938,88.0924682731696,82.96626500743663,75.84800017765912,84.9051082068804
412.0,86.80034112939828,81.04165288164495,87.78147278830733,82.47081921573213,75.2728684559711,84.52117314731491
425.0,86.56726558859611,81.06672073686062,87.70343598990846,82.28729830737512,75.05731938493172,84.38440603051122
437.0,86.32526453928848,81.20137735040872,87.5239058528243,81.80861585504803,74.79206967447085,84.17698235226277
450.0,86.092378988098,81.22057765478033,87.4239058528243,81.5626424219522,74.19535804202397,84.0183892821555
462.0,85.7599996174499,81.66718462137126,87.58147278830731,81.39927094814503,73.75132967868916,84.00789260162176
475.0,85.77244826645844,83.0795147828385,87.7400715105354,82.24309125527387,72.56604834201119,84.34878195789312
487.0,86.50231994589775,84.07625435142637,87.62868282207319,82.48616858161917,72.44887941674986,84.70307702463074
500.0,88.07977745790569,84.22990957385144,87.29246827316959,82.21312203243616,72.77054708716224,85.12947680969074
515.0,89.0441577493485,83.97245249207644,87.46573363004048,82.39382615569362,72.59557174258279,85.56707611703396
530.0,89.57449351030439,83.29780984381857,87.48116121025241,82.51551725338494,72.48273388789681,85.74365283163911
545.0,90.10542400732662,83.19780984381858,87.68045208696076,82.5610848990686,73.13555240740023,86.06494716667281
560.0,90.57609175449223,82.88230649956841,87.80164765691404,82.42801768667184,72.7617317293278,86.2994398245863
580.0,90.61430637862281,82.46322504785601,87.77575619602062,81.91204119950825,72.50110067633325,86.23368148487063
600.0,90.62761355743555,81.83308937677077,87.64785327884222,81.34853870118624,71.99611569045958,86.11097130192042
615.0,90.44511556931755,81.12457993687899,87.45604051898292,81.00240796749745,71.52895359888655,85.87563796479154
630.0,89.90464358834795,79.95218761292406,87.14682427672244,80.59456646984744,71.17775407758717,85.37414979265587
650.0,89.5575988212754,79.40146480937388,86.86152956030945,80.24360062103847,71.00639217961321,85.03548930286803
670.0,89.6268113883801,79.1719180290656,86.99798959963483,80.36602406408024,70.52210207161198,85.1090006475421
690.0,89.37245431186855,78.94552333168527,87.09430527821483,80.27423476987599,69.95274583064678,84.97620309241347
710.0,88.76001642302818,77.94171952330976,87.25912638386662,79.93245062071196,69.60908182015626,84.63438306759843
730.0,88.50034112939827,75.83401118403297,87.58844499392838,80.01129886753279,70.03919720107847,84.56542553390024
750.0,88.60836933851773,76.6524231134238,86.51905626793494,80.61802376021953,71.90782501470488,84.31863435582511
775.0,88.84376119654482,77.58493054864311,86.34087617714226,80.94686999469428,71.78022039322515,84.45182692306477
800.0,88.68528746757073,77.43736534393184,86.32857449879847,80.6211442328183,70.99022982604811,84.31866689785544
825.0,88.38866490030833,77.68493054864311,86.29144540931466,80.21659001260618,70.1419473757208,84.11584016348614
850.0,88.09099930883406,77.78246753146328,86.3334569194629,79.61211950406344,68.8391439394503,83.92105619407754
875.0,87.53288092656521,77.96268190818898,86.19213933834233,78.91980105831186,68.32340357008391,83.54132751144465
900.0,86.66239477036437,78.00449239072294,86.30144691825778,78.4290436293073,67.46969870234963,83.13368072001674
925.0,85.5885439959479,77.68509485802376,85.78751362868313,77.53301272620506,65.58719464995124,82.35622058959912
950.0,85.50654363985346,76.31065864377771,85.59363745229255,77.36655121401051,63.772936149575,82.13557116122252
975.0,85.56226044405474,73.9948466445546,85.12163751871611,76.49829893090818,63.512490420368835,81.80201388583836
1000.0,85.70131827952113,71.07704191626861,85.15966289043618,77.16445815506434,66.30632247439789,81.8687581748735
1030.0,87.18528746757073,74.85507704354387,84.63733585350474,79.20385497480406,68.47147783875263,82.71745957431915
1060.0,87.71903234364801,80.00807851055698,84.95797426520362,78.17627362691206,66.94115232693898,83.32621142038971
1090.0,86.6770397714101,81.21323574403132,85.63478370926056,77.10651748323752,65.63304894441956,83.08997972353289
1120.0,85.27499736119995,82.13341139788129,86.24695808101157,76.08113192044834,63.90291347096485,82.85445481562911
1150.0,84.20450671220273,81.04885135917307,86.06115131671129,75.36881139782216,62.834329569239316,82.20482091361652
1180.0,83.27499736119995,80.05299799878154,85.06221508370285,75.00395910785927,61.406510591393555,81.2556017056421
1220.0,82.26373727955804,78.78859177923461,84.21754886773552,72.06008267211138,57.44251078968793,80.21013451846508
1250.0,81.58915630129641,76.92002361533636,83.06753817460711,70.69586825976326,56.641232141569986,79.11945932889401
1280.0,79.57466843276418,76.43371855981438,83.11969814954041,69.11045372658188,54.777477689481884,78.42874696543127
1320.0,76.77703977141009,76.08135366160674,83.78336284927371,68.6715063771869,54.81680074675867,78.25825841688001
1360.0,78.19066301838193,75.840363060939,84.10367506342922,69.75276770149125,54.922310108459044,78.70773442876343
1400.0,79.60943953665229,75.18436202808596,84.29223585031048,71.17368431110597,57.14122994036805,79.10290321642786
1450.0,80.49460130037079,76.76801107083918,84.21042509155637,70.99321828124224,58.98105737082395,79.41107400085247
1500.0,81.28608372933472,74.78558171302573,84.6371315977486,72.62978320051944,59.20253129904444,79.77356043821071
1550.0,81.2227336154897,72.8765313174099,84.79517495122958,72.65961478945125,58.618445372539355,79.75658573586412
1600.0,81.8688610570937,71.8084609611568,84.74958438800391,72.76202641103326,59.91617100478376,79.88843839874323
1650.0,81.83921037081454,72.6708338338135,84.85904504398727,72.12999604549125,59.669896935382496,79.95294122941178
1700.0,81.41730789387731,74.27896989520116,84.8222547579361,72.43090174784598,59.796288712929794,79.88895851140524
1750.0,82.4120845806878,75.84142122357896,84.66975644932596,72.5199437988181,60.05290092363728,80.20856116889377
1800.0,83.01496244492466,75.77283899448726,84.45325213057596,71.2758070309589,59.58233257781043,80.26239469711784
1850.0,82.2567153621151,75.79124872640115,84.16152683582332,71.98331083903824,59.192646585423546,79.85343912639445
1900.0,82.52457993687898,77.219032343648,84.36092247932226,72.87805179983118,58.76584823500579,80.20905496001107
1950.0,83.92592476994778,78.45597330084368,84.58986679767779,73.68202450042256,61.07966548607874,80.99942808672782
2000.0,83.02661939649464,78.43808321351722,84.74524183959821,73.6508362092959,59.18030495160875,80.73911194163138
2060.0,83.12023581327293,78.35905592381314,84.82397210097191,74.82265594503312,61.22139490956823,80.85654594264152
2120.0,83.50084968059335,78.12545420369875,84.98228942578345,74.6566607753042,60.41614668791408,81.03202334298044
2180.0,83.23316872174291,75.81861981293832,85.01386385793174,73.91096434653625,58.870627233848694,80.72861895915264
2240.0,84.43167423934987,75.28594782122285,85.47909429894044,75.38790496361827,60.50410557558462,81.46142774191377
2300.0,85.03728798244133,74.53907858744407,85.34765808024565,75.3995206805941,60.688613374780886,81.61857612479496
2360.0,85.25327412490556,74.56054155769111,85.42093281511015,75.1891402613059,61.424277216633726,81.74134391249018
2400.0,85.49417633457007,75.67406327003758,85.52416021734786,74.99886855261411,62.08500311004687,81.93844333823182
2500.0,85.2236262000267,76.06512911208583,85.41684417370737,74.87815393916986,62.68607811225408,81.7842321420468
2580.0,85.09415784860771,76.1954735506012,85.48799091430942,75.65755916226912,63.170628523160104,81.80414471053285
2650.0,84.53051385117169,76.48126242595501,85.2313544195748,75.53967209326237,62.23413455687725,81.45700710507253
2720.0,83.88379217556482,76.33821129888742,85.69001801345749,75.45655843492398,59.937398631420564,81.42631940510458
2800.0,83.39003514763905,75.20360391550548,85.85796617339967,74.09895103884652,58.19572768236682,81.22590050546069
2900.0,83.18938741782677,74.17829830441292,85.99253734540063,73.98926142203561,58.97738407772124,81.1916477652297
3000.0,83.33509895460995,74.6542029903538,85.97095248447522,74.76747724241271,59.27108883846762,81.27756808852396
3070.0,82.2716752558138,73.54010271092208,85.57568925269132,74.75609671919077,57.74754998747804,80.6659250853583
3150.0,81.08836433477438,70.60599462947562,84.78671401833411,73.7994068827307,58.31605772223443,79.69149308743138
3250.0,79.62081413224277,67.31036112689506,83.65648399625933,72.69597454336332,58.33407033186643,78.43099551250097
3350.0,79.00167912607151,67.38165166118674,83.51122420574168,71.79020586172157,56.266916457025246,78.12795872072391
