Freq "Ceiling Bounce"
22.4 47.78407839372548
23.0 48.47387961222816
23.6 49.20076749445562
24.0 50.066921851160515
25.0 51.600767494455624
25.8 52.83513059177983
26.5 54.23358982687998
27.2 55.36692185116053
28.0 56.90076749445561
29.0 58.235130591779836
30.0 59.668450838054326
30.7 60.86845083805434
31.5 61.93435140868502
32.5 62.93435140868502
33.5 63.76845083805432
34.5 64.66845083805433
35.5 65.70306957104253
36.5 66.66845083805433
37.5 67.56845083805433
38.7 68.23663575667187
40.0 68.90306957104251
41.2 69.60306957104251
42.5 70.27150800786939
43.7 70.83663575667187
45.0 71.20306957104252
46.2 71.40306957104251
47.5 71.27001488257477
48.7 70.67150800786939
50.0 70.48219967332305
51.5 71.02758719283592
53.0 72.32758719283594
54.5 73.78982856673473
56.0 74.88982856673472
58.0 75.55260953202216
60.0 75.7489851487955
61.5 75.7489851487955
63.0 75.88219967332304
65.0 75.88219967332304
67.0 75.91916705502754
69.0 76.01916705502752
71.0 76.25667255930051
73.0 76.52758719283591
75.0 77.06588846059687
77.5 77.83752777300028
80.0 78.63752777300029
82.5 79.62758719283592
85.0 80.52758719283592
87.5 81.18982856673472
90.0 81.58982856673472
92.5 81.8566725593005
95.0 82.05667255930051
97.5 82.66588846059688
100.0 83.59897445130926
103.0 84.39897445130924
106.0 84.96588846059687
109.0 85.26588846059687
112.0 85.66588846059686
115.0 86.06588846059687
118.0 86.06588846059687
122.0 85.97662798253906
125.0 86.28888547155003
128.0 86.78888547155003
132.0 86.88888547155003
136.0 86.70265450340341
140.0 86.70265450340341
145.0 86.96194867563766
150.0 86.78888547155003
155.0 86.47662798253907
160.0 86.04898359150842
165.0 85.56194867563767
170.0 85.1026545034034
175.0 84.89237898809799
180.0 84.992378988098
185.0 85.07641629732153
190.0 84.57641629732152
195.0 83.692378988098
200.0 84.10982855556756
206.0 84.9672655885961
212.0 85.05062128010364
218.0 85.01792789764852
224.0 85.17641629732152
230.0 85.4026545034034
236.0 85.57641629732153
240.0 86.00265450340339
250.0 85.52179738688895
258.0 85.19506458035829
265.0 84.86194867563766
272.0 84.53546263134683
280.0 84.27641629732153
290.0 84.2179278976485
300.0 84.04391724861638
307.0 83.65062128010364
315.0 82.792378988098
325.0 82.13469773360899
335.0 81.63469773360899
345.0 81.534697733609
355.0 81.95999961744991
365.0 82.16503937590751
375.0 81.9079107556345
387.0 81.63113467688882
400.0 80.92312034399382
412.0 81.04165288164495
425.0 81.0667207368606
437.0 81.20137735040873
450.0 81.22057765478033
462.0 81.66718462137125
475.0 83.07951478283849
487.0 84.07625435142639
500.0 84.22990957385144
515.0 83.97245249207646
530.0 83.29780984381856
545.0 83.19780984381858
560.0 82.88230649956843
580.0 82.46322504785601
600.0 81.83308937677076
615.0 81.12457993687897
630.0 79.95218761292406
650.0 79.40146480937389
670.0 79.17191802906558
690.0 78.94552333168527
710.0 77.94171952330976
730.0 75.83401118403296
750.0 76.65242311342381
775.0 77.5849305486431
800.0 77.43736534393183
825.0 77.68493054864312
850.0 77.78246753146328
875.0 77.96268190818897
900.0 78.00449239072293
925.0 77.68509485802375
950.0 76.31065864377771
975.0 73.99484664455461
1000.0 71.07704191626863
1030.0 74.85507704354389
1060.0 80.00807851055697
1090.0 81.21323574403132
1120.0 82.1334113978813
1150.0 81.04885135917306
1180.0 80.05299799878152
1220.0 78.7885917792346
1250.0 76.92002361533638
1280.0 76.4337185598144
1320.0 76.08135366160673
1360.0 75.84036306093898
1400.0 75.18436202808594
1450.0 76.76801107083918
1500.0 74.78558171302572
1550.0 72.87653131740988
1600.0 71.8084609611568
1650.0 72.6708338338135
1700.0 74.27896989520114
1750.0 75.84142122357895
1800.0 75.77283899448727
1850.0 75.79124872640115
1900.0 77.21903234364801
1950.0 78.45597330084368
2000.0 78.4380832135172
2060.0 78.35905592381313
2120.0 78.12545420369877
2180.0 75.81861981293832
2240.0 75.28594782122286
2300.0 74.53907858744405
2360.0 74.56054155769112
2400.0 75.67406327003758
2500.0 76.06512911208583
2580.0 76.1954735506012
2650.0 76.48126242595501
2720.0 76.33821129888743
2800.0 75.20360391550547
2900.0 74.17829830441292
3000.0 74.6542029903538
3070.0 73.54010271092207
3150.0 70.60599462947563
3250.0 67.31036112689507
3350.0 67.38165166118675
3450.0 70.82320753866264
3550.0 72.09431792156639
3650.0 72.63162666475968
3750.0 73.0521931937179
3870.0 71.1142305843116
4000.0 71.39058914804498
4120.0 69.24205313523953
4250.0 71.26994067853263
4370.0 71.20174601124772
4500.0 71.18395269084586
4620.0 71.50901938276999
4750.0 71.8666541182005
4870.0 72.80010099674696
5000.0 72.5602463116381
5150.0 73.17833425668982
5300.0 75.42606546453067
5450.0 73.55394335703114
5600.0 72.48252351346221
5800.0 70.2628761923967
6000.0 67.8143063786228
6150.0 71.40391141983602
6300.0 71.32153112641276
6500.0 69.93921365459772
6700.0 69.65063106910448
6900.0 65.80887783737343
7100.0 67.79681273552734
7300.0 67.44526939363821
7500.0 65.95701066576632
7750.0 67.85040313445141
8000.0 72.08305422053513
8250.0 72.90657766034221
8500.0 70.23574488964638
8750.0 70.7791204846379
9000.0 69.45366398410077
9250.0 71.0812384704215
9500.0 72.28235666946924
9750.0 73.68475661198423
10000.0 72.47687719851862
10300.0 72.17049624827823
10600.0 67.35065109639628
10900.0 71.52664543441658
11200.0 73.29639864179813
11500.0 70.80907701268153
11800.0 73.1288293533216
12200.0 71.69278065358078
12500.0 72.53104124982409
12800.0 74.7953446369909
13200.0 70.91540503897689
13600.0 61.71096677189192
14000.0 61.84763442392929
14500.0 66.57577144153166
15000.0 64.07256170539051
15500.0 63.051480885382006
16000.0 70.05837336870943
16500.0 73.58528970510321
17000.0 67.7987239941735
17500.0 70.59037884047719
18000.0 70.64610334316876
18500.0 70.92586227494482
19000.0 69.16096338287458
19500.0 69.9444200238741
