Freq "Ceiling Bounce"
22.4 47.78407839372548
23.0 48.47387961222819
23.6 49.20076749445562
24.0 50.06692185116049
25.0 51.600767494455624
25.8 52.83513059177983
26.5 54.23358982687998
27.2 55.3669218511605
28.0 56.90076749445561
29.0 58.235130591779836
30.0 59.668450838054326
30.7 60.86845083805434
31.5 61.93435140868502
32.5 62.93435140868502
33.5 63.76845083805432
34.5 64.66845083805433
35.5 65.70306957104252
36.5 66.66845083805433
37.5 67.56845083805433
38.7 68.23663575667186
40.0 68.90306957104252
41.2 69.60306957104252
42.5 70.27150800786937
43.7 70.83663575667185
45.0 71.20306957104253
46.2 71.40306957104252
47.5 71.27001488257477
48.7 70.67150800786939
50.0 70.48219967332304
51.5 71.02758719283592
53.0 72.32758719283592
54.5 73.78982856673471
56.0 74.8898285667347
58.0 75.55260953202217
60.0 75.74898514879551
61.5 75.74898514879551
63.0 75.88219967332304
65.0 75.88219967332304
67.0 75.91916705502754
69.0 76.01916705502754
71.0 76.2566725593005
73.0 76.52758719283592
75.0 77.06588846059688
77.5 77.83752777300026
80.0 78.63752777300029
82.5 79.62758719283593
85.0 80.52758719283591
87.5 81.18982856673472
90.0 81.58982856673471
92.5 81.8566725593005
95.0 82.0566725593005
97.5 82.66588846059686
100.0 83.59897445130926
103.0 84.39897445130926
106.0 84.96588846059687
109.0 85.26588846059688
112.0 85.66588846059688
115.0 86.06588846059687
118.0 86.06588846059687
122.0 85.97662798253904
125.0 86.28888547155002
128.0 86.78888547155003
132.0 86.88888547155003
136.0 86.7026545034034
140.0 86.7026545034034
145.0 86.96194867563767
150.0 86.78888547155003
155.0 86.47662798253906
160.0 86.04898359150843
165.0 85.56194867563767
170.0 85.10265450340339
175.0 84.892378988098
180.0 84.99237898809801
185.0 85.07641629732152
190.0 84.57641629732153
195.0 83.692378988098
200.0 84.10982855556756
206.0 84.96726558859612
212.0 85.05062128010363
218.0 85.0179278976485
224.0 85.17641629732151
230.0 85.4026545034034
236.0 85.57641629732153
240.0 86.0026545034034
250.0 85.52179738688895
258.0 85.19506458035829
265.0 84.86194867563765
272.0 84.53546263134683
280.0 84.27641629732153
290.0 84.21792789764851
300.0 84.04391724861637
307.0 83.65062128010362
315.0 82.792378988098
325.0 82.13469773360899
335.0 81.63469773360899
345.0 81.53469773360898
355.0 81.95999961744991
365.0 82.16503937590753
375.0 81.90791075563449
387.0 81.63113467688883
400.0 80.9231203439938
412.0 81.04165288164495
425.0 81.06672073686062
437.0 81.20137735040872
450.0 81.22057765478033
462.0 81.66718462137126
475.0 83.0795147828385
487.0 84.07625435142637
500.0 84.22990957385144
515.0 83.97245249207644
530.0 83.29780984381857
545.0 83.19780984381858
560.0 82.88230649956841
580.0 82.46322504785601
600.0 81.83308937677077
615.0 81.12457993687899
630.0 79.95218761292406
650.0 79.40146480937388
670.0 79.1719180290656
690.0 78.94552333168527
710.0 77.94171952330976
730.0 75.83401118403297
750.0 76.6524231134238
775.0 77.58493054864311
800.0 77.43736534393184
825.0 77.68493054864311
850.0 77.78246753146328
875.0 77.96268190818898
900.0 78.00449239072294
925.0 77.68509485802376
950.0 76.31065864377771
975.0 73.9948466445546
1000.0 71.07704191626861
1030.0 74.85507704354387
1060.0 80.00807851055698
1090.0 81.21323574403132
1120.0 82.13341139788129
1150.0 81.04885135917307
1180.0 80.05299799878154
1220.0 78.78859177923461
1250.0 76.92002361533636
1280.0 76.43371855981438
1320.0 76.08135366160674
1360.0 75.840363060939
1400.0 75.18436202808596
1450.0 76.76801107083918
1500.0 74.78558171302573
1550.0 72.8765313174099
1600.0 71.8084609611568
1650.0 72.6708338338135
1700.0 74.27896989520116
1750.0 75.84142122357896
1800.0 75.77283899448726
1850.0 75.79124872640115
1900.0 77.219032343648
1950.0 78.45597330084368
2000.0 78.43808321351722
2060.0 78.35905592381314
2120.0 78.12545420369875
2180.0 75.81861981293832
2240.0 75.28594782122285
2300.0 74.53907858744407
2360.0 74.56054155769111
2400.0 75.67406327003758
2500.0 76.06512911208583
2580.0 76.1954735506012
2650.0 76.48126242595501
2720.0 76.33821129888742
2800.0 75.20360391550548
2900.0 74.17829830441292
3000.0 74.6542029903538
3070.0 73.54010271092208
3150.0 70.60599462947562
3250.0 67.31036112689506
3350.0 67.38165166118674
3450.0 70.82320753866266
3550.0 72.09431792156639
3650.0 72.6316266647597
3750.0 73.05219319371788
3870.0 71.11423058431158
4000.0 71.39058914804497
4120.0 69.24205313523953
4250.0 71.26994067853263
4370.0 71.2017460112477
4500.0 71.18395269084584
4620.0 71.50901938276999
4750.0 71.8666541182005
4870.0 72.80010099674695
5000.0 72.56024631163811
5150.0 73.17833425668982
5300.0 75.42606546453067
5450.0 73.55394335703116
5600.0 72.48252351346221
5800.0 70.26287619239669
6000.0 67.81430637862282
6150.0 71.40391141983602
6300.0 71.32153112641278
6500.0 69.93921365459771
6700.0 69.65063106910446
6900.0 65.80887783737342
7100.0 67.79681273552735
7300.0 67.4452693936382
7500.0 65.95701066576632
7750.0 67.8504031344514
8000.0 72.08305422053515
8250.0 72.90657766034221
8500.0 70.23574488964637
8750.0 70.7791204846379
9000.0 69.45366398410076
9250.0 71.08123847042151
9500.0 72.28235666946925
9750.0 73.68475661198423
10000.0 72.47687719851864
10300.0 72.17049624827824
10600.0 67.35065109639628
10900.0 71.52664543441657
11200.0 73.29639864179812
11500.0 70.80907701268153
11800.0 73.1288293533216
12200.0 71.69278065358078
12500.0 72.5310412498241
12800.0 74.7953446369909
13200.0 70.91540503897687
13600.0 61.71096677189189
14000.0 61.84763442392929
14500.0 66.57577144153167
15000.0 64.07256170539051
15500.0 63.051480885382006
16000.0 70.05837336870943
16500.0 73.58528970510321
17000.0 67.7987239941735
17500.0 70.59037884047719
18000.0 70.64610334316876
18500.0 70.92586227494482
19000.0 69.16096338287457
19500.0 69.9444200238741
