Freq "Floor Bounce"
22.4 43.56253856017648
23.0 43.57718942722224
23.6 43.5694439577984
24.0 43.79452606119787
25.0 44.894526061197865
25.8 46.029792539501045
26.5 48.0389037134517
27.2 49.81820393286952
28.0 52.08709113173444
29.0 54.05646967444605
30.0 56.19899602853596
30.7 57.93890371345171
31.5 59.64205002851202
32.5 61.06279712377821
33.5 62.35213900827125
34.5 63.809837116262514
35.5 65.3021497057575
36.5 66.69599486168174
37.5 67.86006956731659
38.7 68.82467256483137
40.0 69.85623412800453
41.2 70.78829514874181
42.5 71.75393205141762
43.7 72.48675438384197
45.0 73.1200864081225
46.2 73.453164556962
47.5 73.48675438384197
48.7 73.1200864081225
50.0 73.02161539501633
51.5 73.82467256483137
53.0 75.22925631145421
54.5 76.66006956731658
56.0 77.78980031363386
58.0 78.42161539501632
60.0 78.62161539501632
61.5 78.68751596564701
63.0 78.95393205141762
65.0 79.12161539501632
67.0 79.32161539501632
69.0 79.6216153950163
71.0 80.02161539501634
73.0 80.58751596564703
75.0 81.28751596564703
77.5 82.18751596564701
80.0 82.92161539501633
82.5 83.8200864081225
85.0 84.58675438384198
87.5 85.153164556962
90.0 85.55393205141762
92.5 85.98751596564702
95.0 86.48751596564702
97.5 87.38751596564703
100.0 88.3200864081225
103.0 89.08751596564703
106.0 89.5539320514176
109.0 89.92161539501632
112.0 90.48751596564703
115.0 90.88751596564703
118.0 91.08751596564701
122.0 91.38751596564701
125.0 91.88751596564703
128.0 92.38751596564703
132.0 92.48751596564702
136.0 92.38751596564703
140.0 92.42161539501632
145.0 92.45544917092218
150.0 92.08980031363386
155.0 91.78980031363386
160.0 91.58980031363387
165.0 91.38980031363386
170.0 91.3584826246267
175.0 91.28980031363386
180.0 91.1584826246267
185.0 90.8584826246267
190.0 90.3936062364169
195.0 90.15848262462671
200.0 90.8584826246267
206.0 90.93294201486768
212.0 90.56909147922906
218.0 90.2480216157937
224.0 89.98573673742759
230.0 89.5083842500458
236.0 88.81182483297033
240.0 88.02958085428351
250.0 87.88075174979792
258.0 88.99893175134669
265.0 89.56303084368528
272.0 89.83294201486768
280.0 89.96909147922906
290.0 89.57666140762178
300.0 89.2480216157937
307.0 89.01412969933382
315.0 88.87666140762178
325.0 88.63973102007448
335.0 88.47666140762179
345.0 88.13034351686002
355.0 88.86908994576181
365.0 89.86908994576181
375.0 90.05577611591565
387.0 89.41182483297034
400.0 88.49574729359216
412.0 87.95350568636027
425.0 87.72043014555811
437.0 87.47842909625048
450.0 87.24554354506
462.0 86.9131641744119
475.0 86.92561282342044
487.0 87.65548450285975
500.0 89.23294201486769
515.0 90.1973223063105
530.0 90.72765806726639
545.0 91.25858856428862
560.0 91.72925631145422
580.0 91.76747093558481
600.0 91.78077811439755
615.0 91.59828012627955
630.0 91.05780814530995
650.0 90.7107633782374
670.0 90.7799759453421
690.0 90.52561886883055
710.0 89.91318097999017
730.0 89.65350568636026
750.0 89.76153389547973
775.0 89.99692575350682
800.0 89.83845202453273
825.0 89.54182945727032
850.0 89.24416386579605
875.0 88.68604548352721
900.0 87.81555932732637
925.0 86.7417085529099
950.0 86.65970819681546
975.0 86.71542500101674
1000.0 86.85448283648313
1030.0 88.33845202453273
1060.0 88.87219690061
1090.0 87.83020432837209
1120.0 86.42816191816195
1150.0 85.35767126916473
1180.0 84.42816191816195
1220.0 83.41690183652004
1250.0 82.74232085825841
1280.0 80.72783298972618
1320.0 77.93020432837208
1360.0 79.34382757534392
1400.0 80.76260409361429
1450.0 81.64776585733279
1500.0 82.43924828629672
1550.0 82.3758981724517
1600.0 83.02202561405569
1650.0 82.99237492777654
1700.0 82.5704724508393
1750.0 83.5652491376498
1800.0 84.16812700188666
1850.0 83.4098799190771
1900.0 83.67774449384098
1950.0 85.07908932690978
2000.0 84.17978395345664
2060.0 84.27340037023492
2120.0 84.65401423755534
2180.0 84.38633327870491
2240.0 85.58483879631187
2300.0 86.19045253940332
2360.0 86.40643868186756
2400.0 86.64734089153207
2500.0 86.3767907569887
2580.0 86.2473224055697
2650.0 85.68367840813369
2720.0 85.03695673252682
2800.0 84.54319970460105
2900.0 84.34255197478876
3000.0 84.48826351157194
3070.0 83.4248398127758
3150.0 82.24152889173638
3250.0 80.77397868920477
3350.0 80.1548436830335
3450.0 80.91250727002932
3550.0 82.97774449384097
3650.0 83.58719502611015
3750.0 84.01222048077513
3870.0 83.90372121744353
4000.0 82.53495077978407
4120.0 81.9737563840213
4250.0 82.34748247852839
4370.0 82.19800414036065
4500.0 82.20287528084614
4620.0 81.87151532976688
4750.0 82.51310958811494
4870.0 83.02997429662979
5000.0 82.64304692246019
5150.0 81.15883350906233
5300.0 81.86224156964352
5450.0 81.86068896018821
5600.0 81.71329496423911
5800.0 82.52603651908788
6000.0 83.82709167732334
6150.0 84.44832932958889
6300.0 84.76501743647319
6500.0 85.01546365224115
6700.0 83.58171704613518
6900.0 82.80806797442139
7100.0 79.58762205402506
7300.0 79.18954919974905
7500.0 81.7356334321243
7750.0 84.27710485879638
8000.0 83.11278228127395
8250.0 83.81782769857662
8500.0 83.46018580218637
8750.0 80.7398758891454
9000.0 77.20131095701608
9250.0 85.38382369970563
9500.0 83.89793031129057
9750.0 84.36432010201978
10000.0 84.0582133328028
10300.0 85.56139682819571
10600.0 79.29005396519989
10900.0 83.67253736957773
11200.0 86.27171119122715
11500.0 85.54978149879162
11800.0 86.20480680884852
12200.0 86.53892618487691
12500.0 86.7193769196298
12800.0 85.86616203162116
13200.0 83.86941118926234
13600.0 71.52508139777984
14000.0 76.81770701468203
14500.0 77.55881143079078
15000.0 79.26020575615301
15500.0 75.22417067707683
16000.0 85.51698661020868
16500.0 88.71255349592656
17000.0 84.19981173621876
17500.0 86.90360464224278
18000.0 85.40873266153893
18500.0 84.71586924289893
19000.0 84.7621654878443
19500.0 84.31456163421723
