Freq "Floor Bounce"
22.4 42.40937400321451
23.0 42.42402487026021
23.6 42.4162794008364
24.0 42.641361504235874
25.0 43.74136150423587
25.8 44.87662798253902
26.5 46.885739156489734
27.2 48.665039375907526
28.0 50.93392657477244
29.0 52.90330511748405
30.0 55.04583147157396
30.7 56.78573915648971
31.5 58.48888547155002
32.5 59.909632566816185
33.5 61.198974451309255
34.5 62.65667255930052
35.5 64.1489851487955
36.5 65.54283030471973
37.5 66.70690501035459
38.7 67.67150800786939
40.0 68.70306957104252
41.2 69.63513059177983
42.5 70.60076749445562
43.7 71.33358982687999
45.0 71.96692185116049
46.2 72.29999999999998
47.5 72.33358982687996
48.7 71.96692185116049
50.0 71.86845083805431
51.5 72.67150800786939
53.0 74.07609175449221
54.5 75.50690501035459
56.0 76.63663575667186
58.0 77.26845083805433
60.0 77.46845083805432
61.5 77.53435140868503
63.0 77.80076749445561
65.0 77.96845083805431
67.0 78.16845083805433
69.0 78.46845083805432
71.0 78.86845083805433
73.0 79.43435140868502
75.0 80.13435140868502
77.5 81.03435140868503
80.0 81.76845083805432
82.5 82.6669218511605
85.0 83.43358982687997
87.5 84.0
90.0 84.40076749445561
92.5 84.83435140868502
95.0 85.33435140868504
97.5 86.23435140868501
100.0 87.16692185116051
103.0 87.93435140868502
106.0 88.40076749445562
109.0 88.76845083805433
112.0 89.33435140868502
115.0 89.73435140868501
118.0 89.93435140868503
122.0 90.23435140868503
125.0 90.73435140868503
128.0 91.23435140868501
132.0 91.33435140868504
136.0 91.23435140868501
140.0 91.26845083805433
145.0 91.3022846139602
150.0 90.93663575667186
155.0 90.63663575667186
160.0 90.43663575667186
165.0 90.23663575667186
170.0 90.2053180676647
175.0 90.13663575667186
180.0 90.00531806766472
185.0 89.7053180676647
190.0 89.2404416794549
195.0 89.0053180676647
200.0 89.7053180676647
206.0 89.77977745790568
212.0 89.41592692226706
218.0 89.0948570588317
224.0 88.83257218046558
230.0 88.35521969308378
236.0 87.65866027600835
240.0 86.87641629732153
250.0 86.72758719283591
258.0 87.84576719438469
265.0 88.4098662867233
272.0 88.67977745790569
280.0 88.81592692226708
290.0 88.4234968506598
300.0 88.0948570588317
307.0 87.86096514237184
315.0 87.7234968506598
325.0 87.48656646311247
335.0 87.32349685065981
345.0 86.97717895989803
355.0 87.71592538879983
365.0 88.71592538879983
375.0 88.90261155895365
387.0 88.25866027600833
400.0 87.34258273663015
412.0 86.80034112939828
425.0 86.56726558859611
437.0 86.3252645392885
450.0 86.092378988098
462.0 85.75999961744989
475.0 85.77244826645844
487.0 86.50231994589777
500.0 88.07977745790569
515.0 89.04415774934851
530.0 89.57449351030438
545.0 90.10542400732663
560.0 90.57609175449221
580.0 90.61430637862281
600.0 90.62761355743555
615.0 90.44511556931755
630.0 89.90464358834794
650.0 89.55759882127542
670.0 89.62681138838012
690.0 89.37245431186857
710.0 88.76001642302818
730.0 88.50034112939828
750.0 88.60836933851775
775.0 88.84376119654482
800.0 88.68528746757073
825.0 88.38866490030833
850.0 88.09099930883406
875.0 87.53288092656523
900.0 86.66239477036436
925.0 85.58854399594792
950.0 85.50654363985348
975.0 85.56226044405476
1000.0 85.70131827952113
1030.0 87.18528746757073
1060.0 87.71903234364802
1090.0 86.67703977141008
1120.0 85.27499736119995
1150.0 84.20450671220271
1180.0 83.27499736119995
1220.0 82.26373727955803
1250.0 81.58915630129641
1280.0 79.5746684327642
1320.0 76.7770397714101
1360.0 78.19066301838194
1400.0 79.60943953665229
1450.0 80.49460130037079
1500.0 81.2860837293347
1550.0 81.22273361548969
1600.0 81.8688610570937
1650.0 81.83921037081454
1700.0 81.41730789387731
1750.0 82.41208458068782
1800.0 83.01496244492466
1850.0 82.25671536211512
1900.0 82.52457993687896
1950.0 83.92592476994778
2000.0 83.02661939649465
2060.0 83.12023581327294
2120.0 83.50084968059333
2180.0 83.23316872174293
2240.0 84.43167423934986
2300.0 85.03728798244133
2360.0 85.25327412490554
2400.0 85.49417633457006
2500.0 85.22362620002671
2580.0 85.0941578486077
2650.0 84.53051385117168
2720.0 83.88379217556484
2800.0 83.39003514763907
2900.0 83.18938741782677
3000.0 83.33509895460996
3070.0 82.27167525581382
3150.0 81.0883643347744
3250.0 79.62081413224276
3350.0 79.00167912607151
3450.0 79.75934271306731
3550.0 81.82457993687898
3650.0 82.43403046914814
3750.0 82.85905592381314
3870.0 82.75055666048152
4000.0 81.38178622282209
4120.0 80.8205918270593
4250.0 81.1943179215664
4370.0 81.04483958339864
4500.0 81.04971072388413
4620.0 80.71835077280487
4750.0 81.35994503115296
4870.0 81.87680973966778
5000.0 81.48988236549818
5150.0 80.00566895210034
5300.0 80.70907701268153
5450.0 80.7075244032262
5600.0 80.5601304072771
5800.0 81.37287196212587
6000.0 82.67392712036134
6150.0 83.2951647726269
6300.0 83.6118528795112
6500.0 83.86229909527917
6700.0 82.4285524891732
6900.0 81.6549034174594
7100.0 78.43445749706308
7300.0 78.03638464278706
7500.0 80.58246887516232
7750.0 83.1239403018344
8000.0 81.95961772431195
8250.0 82.66466314161462
8500.0 82.30702124522438
8750.0 79.5867113321834
9000.0 76.04814640005407
9250.0 84.23065914274363
9500.0 82.74476575432855
9750.0 83.21115554505779
10000.0 82.90504877584078
10300.0 84.40823227123373
10600.0 78.13688940823788
10900.0 82.51937281261574
11200.0 85.11854663426517
11500.0 84.39661694182962
11800.0 85.05164225188653
12200.0 85.38576162791492
12500.0 85.56621236266781
12800.0 84.71299747465915
13200.0 82.71624663230034
13600.0 70.37191684081785
14000.0 75.66454245772002
14500.0 76.4056468738288
15000.0 78.10704119919102
15500.0 74.07100612011483
16000.0 84.36382205324666
16500.0 87.55938893896456
17000.0 83.04664717925678
17500.0 85.75044008528079
18000.0 84.25556810457692
18500.0 83.56270468593695
19000.0 83.6090009308823
19500.0 83.16139707725523
