Freq "Front Wall Bounce"
22.4 44.003345372990594
23.0 44.63968470015817
23.6 45.614533774273525
24.0 46.65739103511504
25.0 48.36545736350604
25.8 49.83344934412378
26.5 51.544442188020724
27.2 53.00227231096949
28.0 54.772648431131614
29.0 56.345100934728265
30.0 57.98845654626879
30.7 59.40195831410924
31.5 60.672971917377026
32.5 61.78683695097149
33.5 62.88683695097146
34.5 63.98683695097148
35.5 65.20130813607778
36.5 66.37297191737704
37.5 67.38748929892043
38.7 68.24412398190063
40.0 69.0871668922436
41.2 69.91606664920141
42.5 70.6871668922436
43.7 71.32946066855592
45.0 71.84412398190062
46.2 72.1160666492014
47.5 72.0160666492014
48.7 71.68879404668058
50.0 71.85000634017072
51.5 72.752284481936
53.0 74.152284481936
54.5 75.51998423401443
56.0 76.51998423401444
58.0 77.03175513861906
60.0 77.21704993328868
61.5 77.24607766783812
63.0 77.43175513861907
65.0 77.60359507493895
67.0 77.7477056434894
69.0 78.03338849099711
71.0 78.36264712636356
73.0 78.90684500366413
75.0 79.59366590096782
77.5 80.46528715999551
80.0 81.20684500366414
82.5 82.01998423401443
85.0 82.77525122642457
87.5 83.33175513861907
90.0 83.73175513861906
92.5 84.11998423401442
95.0 84.61998423401444
97.5 85.40684500366415
100.0 86.36426890385724
103.0 87.11998423401444
106.0 87.65000634017073
109.0 88.052284481936
112.0 88.52192748204642
115.0 88.93695776218266
118.0 89.1392427572199
122.0 89.33924275721992
125.0 89.82645994933287
128.0 90.32386986096213
132.0 90.46653957825426
136.0 90.35126317223464
140.0 90.32386986096213
145.0 90.39366590096782
150.0 90.1110416580683
155.0 89.79728484062566
160.0 89.57172729776471
165.0 89.41688698638107
170.0 89.28693201565365
175.0 89.28693201565365
180.0 89.19852806661982
185.0 88.97172729776472
190.0 88.5010740230561
195.0 88.08693201565366
200.0 88.8436701954954
206.0 89.27172729776471
212.0 89.08693201565364
218.0 88.91688698638106
224.0 88.91688698638106
230.0 88.86189813238985
236.0 88.82294230691988
240.0 88.4010740230561
250.0 87.5142595479255
258.0 87.6322845762818
265.0 87.90597807488021
272.0 88.12294230691988
280.0 88.28242230727827
290.0 88.03904179623622
300.0 87.92683455312961
307.0 87.6148719390567
315.0 87.16272615755048
325.0 86.76685864490464
335.0 86.56952137770935
345.0 86.62992432109263
355.0 87.41615867218698
365.0 88.46510687535928
375.0 88.82321580577664
387.0 88.5146305776709
400.0 88.09246827316959
412.0 87.78147278830733
425.0 87.70343598990847
437.0 87.5239058528243
450.0 87.42390585282429
462.0 87.58147278830732
475.0 87.74007151053542
487.0 87.6286828220732
500.0 87.2924682731696
515.0 87.46573363004046
530.0 87.48116121025241
545.0 87.68045208696077
560.0 87.80164765691404
580.0 87.77575619602064
600.0 87.64785327884223
615.0 87.45604051898292
630.0 87.14682427672243
650.0 86.86152956030945
670.0 86.99798959963482
690.0 87.09430527821485
710.0 87.25912638386663
730.0 87.58844499392839
750.0 86.51905626793496
775.0 86.34087617714226
800.0 86.32857449879849
825.0 86.29144540931466
850.0 86.33345691946292
875.0 86.19213933834234
900.0 86.3014469182578
925.0 85.78751362868314
950.0 85.59363745229254
975.0 85.12163751871611
1000.0 85.15966289043618
1030.0 84.63733585350474
1060.0 84.95797426520362
1090.0 85.63478370926056
1120.0 86.24695808101157
1150.0 86.0611513167113
1180.0 85.06221508370285
1220.0 84.21754886773553
1250.0 83.06753817460711
1280.0 83.11969814954043
1320.0 83.7833628492737
1360.0 84.10367506342921
1400.0 84.29223585031048
1450.0 84.21042509155637
1500.0 84.63713159774859
1550.0 84.79517495122957
1600.0 84.7495843880039
1650.0 84.85904504398727
1700.0 84.8222547579361
1750.0 84.66975644932594
1800.0 84.45325213057598
1850.0 84.16152683582332
1900.0 84.36092247932227
1950.0 84.5898667976778
2000.0 84.74524183959821
2060.0 84.8239721009719
2120.0 84.98228942578343
2180.0 85.01386385793172
2240.0 85.47909429894045
2300.0 85.34765808024565
2360.0 85.42093281511013
2400.0 85.52416021734786
2500.0 85.41684417370736
2580.0 85.4879909143094
2650.0 85.23135441957481
2720.0 85.69001801345748
2800.0 85.85796617339966
2900.0 85.99253734540063
3000.0 85.97095248447522
3070.0 85.5756892526913
3150.0 84.7867140183341
3250.0 83.65648399625931
3350.0 83.5112242057417
3450.0 84.33544021928026
3550.0 84.96769309460934
3650.0 85.6061995652401
3750.0 85.99078206665402
3870.0 86.13487547908309
4000.0 86.22706105232905
4120.0 86.48665679131915
4250.0 86.96611342763734
4370.0 85.86419187499884
4500.0 84.8017441313906
4620.0 84.61731479012877
4750.0 85.49912397116225
4870.0 85.96260224208824
5000.0 85.181533634575
5150.0 84.27455580418894
5300.0 85.03832669915737
5450.0 85.50663387283007
5600.0 86.08286037221785
5800.0 85.81016309165972
6000.0 85.98921584588058
6150.0 86.68713300107635
6300.0 87.93147098584629
6500.0 86.79616068718231
6700.0 85.28276600322157
6900.0 85.04281408523731
7100.0 83.80997911363072
7300.0 84.78959941498601
7500.0 85.85039903078317
7750.0 87.48315747040846
8000.0 87.47382427484905
8250.0 87.54614642416477
8500.0 87.82904949428362
8750.0 87.31032850616702
9000.0 86.02733729032104
9250.0 87.34645167162618
9500.0 87.13618807790444
9750.0 86.96760073604896
10000.0 90.94516681992847
10300.0 91.76018506326115
10600.0 86.75277259647522
10900.0 86.96197912804085
11200.0 90.20131020455247
11500.0 89.7572269675837
11800.0 89.78240741842701
12200.0 88.02991690992448
12500.0 88.48398304292436
12800.0 86.92672918723619
13200.0 88.73605913411842
13600.0 84.75015016810778
14000.0 88.22001763404106
14500.0 89.20451667441439
15000.0 86.91174299848515
15500.0 81.77975535830788
16000.0 85.93046972215174
16500.0 88.01333821418929
17000.0 82.90871404077095
17500.0 81.2998909219763
18000.0 85.80895219121427
18500.0 87.26710181389369
19000.0 83.02248168838027
19500.0 81.50769464336022
