Freq "Early Reflections DI"
22.4 31.49019597517787
23.0 31.611842361938187
23.6 31.494218108027525
24.0 31.32168046998325
25.0 31.145368455205897
25.8 30.98853444697187
26.5 30.848466667907644
27.2 30.65714176031841
28.0 30.49880019286013
29.0 30.36264182358613
30.0 30.240900835692287
30.7 30.17625450806571
31.5 30.08874974213768
32.5 30.05810600540113
33.5 30.048583487773982
34.5 30.057983499251037
35.5 30.034306628397673
36.5 30.048384994170846
37.5 30.104831917779876
38.7 30.19924425744003
40.0 30.298234018136696
41.2 30.424837473912447
42.5 30.598731802538055
43.7 30.762878810527752
45.0 30.94173021584365
46.2 31.03926971937807
47.5 31.075296563237032
48.7 31.034686263903694
50.0 30.9674230800145
51.5 30.84354742986855
53.0 30.76470960657025
54.5 30.674976028668482
56.0 30.617455176788525
58.0 30.5821805812802
60.0 30.554046853907522
61.5 30.560744324140188
63.0 30.54267926811788
65.0 30.541444450941057
67.0 30.568423551387582
69.0 30.60969459736539
71.0 30.60118944763515
73.0 30.618757632079067
75.0 30.613945389314964
77.5 30.60021804353859
80.0 30.58953875020994
82.5 30.600712605770468
85.0 30.601811194613674
87.5 30.5931600267985
90.0 30.615934491094436
92.5 30.612875750178034
95.0 30.628897750774314
97.5 30.621524274624875
100.0 30.61911949124473
103.0 30.628198782216813
106.0 30.608623420473236
109.0 30.623273318267323
112.0 30.657444293834317
115.0 30.63902908747704
118.0 30.674287449880524
122.0 30.671962743802297
125.0 30.624110965457504
128.0 30.612167767828552
132.0 30.63158807912845
136.0 30.649929960216966
140.0 30.665604602639704
145.0 30.69483075763003
150.0 30.708520186549634
155.0 30.68126751374345
160.0 30.637445905643787
165.0 30.612193550724086
170.0 30.61793841336622
175.0 30.6431531503612
180.0 30.68681524291901
185.0 30.745000843033367
190.0 30.778064054136436
195.0 30.82898261997839
200.0 30.86248977884648
206.0 30.844021115027743
212.0 30.846238715221546
218.0 30.870239607625848
224.0 30.892610637712025
230.0 30.95839022000888
236.0 30.999937370887793
240.0 31.010105937841416
250.0 31.087877987061532
258.0 31.167750220934053
265.0 31.274803110621477
272.0 31.299297952950667
280.0 31.31575239662773
290.0 31.367052949002996
300.0 31.449167976897897
307.0 31.485729710261523
315.0 31.4410390715382
325.0 31.421750000070716
335.0 31.49559304440814
345.0 31.52295952396362
355.0 31.526632382777592
365.0 31.595916895447402
375.0 31.69981580881067
387.0 31.764273454397056
400.0 31.82506701748011
412.0 31.877309266880957
425.0 31.91604269898974
437.0 31.93373799945529
450.0 31.99019399949323
462.0 32.07886934715226
475.0 32.18571670570816
487.0 32.36898851971297
500.0 32.49936531633453
515.0 32.579332534577304
530.0 32.55754318584721
545.0 32.535992292297635
560.0 32.46237036256248
580.0 32.37045007375863
600.0 32.36035434530595
615.0 32.35553202856623
630.0 32.44632675801445
650.0 32.552069532909016
670.0 32.738391183028384
690.0 32.8626045148593
710.0 32.9232645458998
730.0 32.92347901393644
750.0 32.98659200709126
775.0 33.079227988122256
800.0 33.2016089285964
825.0 33.39158980054219
850.0 33.52423968290519
875.0 33.659542857436236
900.0 33.6447217371373
925.0 33.645400796821036
950.0 33.69016606940713
975.0 33.73265421112808
1000.0 33.70607040508192
1030.0 33.737283305259524
1060.0 33.766412401711094
1090.0 33.75214250749332
1120.0 33.66555894231966
1150.0 33.590385531360766
1180.0 33.58990871827376
1220.0 33.60075866351562
1250.0 33.63000655069905
1280.0 33.682501158788526
1320.0 33.60558026020482
1360.0 33.40754696506461
1400.0 33.2036680016778
1450.0 33.22937167340028
1500.0 33.63239547990045
1550.0 33.86114946768103
1600.0 33.680172352718685
1650.0 33.235154580870955
1700.0 32.51566714795551
1750.0 31.805854067865056
1800.0 31.36588181570538
1850.0 30.225761605875988
1900.0 29.976222895907455
1950.0 30.826399653389146
2000.0 31.558874250153536
2060.0 31.762083262210382
2120.0 32.373237989471264
2180.0 33.36811668925337
2240.0 33.36356635450568
2300.0 33.40276236982625
2360.0 33.78719472503799
2400.0 34.537683839867256
2500.0 34.10454080694514
2580.0 34.23653151145933
2650.0 34.43541334901104
2720.0 34.026500246324844
2800.0 34.140389713791166
2900.0 34.19649405190779
3000.0 33.98930274561512
3070.0 34.09257191436009
3150.0 33.825293985647946
3250.0 34.424576165826394
3350.0 34.32113669222947
3450.0 34.01846242706624
3550.0 33.73096243751776
3650.0 33.59631805456229
3750.0 33.88141522453418
3870.0 34.25973925519715
4000.0 34.15005638864751
4120.0 33.97242145140319
4250.0 33.46112747383307
4370.0 33.322428163619435
4500.0 33.221998377791806
4620.0 33.48828522787704
4750.0 33.49203140719865
4870.0 33.81767960755198
5000.0 33.99249644930785
5150.0 34.13831638431424
5300.0 34.31401687777152
5450.0 34.59822550568974
5600.0 34.538129093073735
5800.0 34.69363199751609
6000.0 34.53036300711976
6150.0 34.53224398224519
6300.0 34.802151194838444
6500.0 34.80697014884727
6700.0 34.80967018582702
6900.0 34.98047168727898
7100.0 35.272062117499175
7300.0 35.39118801212889
7500.0 35.463341986242625
7750.0 35.2717683659929
8000.0 35.094572358947076
8250.0 34.7976602676779
8500.0 34.93010171600251
8750.0 35.14455631059832
9000.0 35.20184155618159
9250.0 35.122431135089315
9500.0 35.145668909804556
9750.0 35.082617422849424
10000.0 34.77894803096291
10300.0 34.25801882739199
10600.0 33.85004769251252
10900.0 33.73017729893539
11200.0 33.81767805331938
11500.0 33.898593723494145
11800.0 33.87266446103693
12200.0 34.17208763641446
12500.0 34.53741658425817
12800.0 34.67962694890747
13200.0 34.31131577455288
13600.0 33.94704505323577
14000.0 33.56223282560285
14500.0 34.53224997080605
15000.0 35.40638963028489
15500.0 35.21023771149255
16000.0 34.909085315761985
16500.0 35.399015039258956
17000.0 35.15810253459408
17500.0 34.62435405171318
18000.0 34.907970957988624
18500.0 36.178066958261596
19000.0 35.97125460456881
19500.0 35.40998997208317
