Freq "Listening Window"
22.4 7.160969019712454
23.0 8.167077165223148
23.6 10.46634377673
24.0 12.492070806435564
25.0 14.021906733595287
25.8 15.663594523708113
26.5 17.402439108730604
27.2 17.706125114633394
28.0 17.99778913878093
29.0 18.068788908096778
30.0 19.003178401266425
30.7 20.24747775646931
31.5 21.26914118749714
32.5 23.66589589087654
33.5 24.746443918278416
34.5 26.017284567608627
35.5 28.26453806372858
36.5 29.692290256013408
37.5 30.426800835711063
38.7 31.191217686053207
40.0 32.63991321433663
41.2 32.07371530888936
42.5 32.67963054807335
43.7 34.47845681200427
45.0 36.121901125243696
46.2 38.1183323643982
47.5 40.96291505036875
48.7 43.33394953136427
50.0 45.05332243329154
51.5 46.57423693269341
53.0 47.91856476708533
54.5 49.06016187065826
56.0 50.90378467740736
58.0 52.75914640359038
60.0 54.34600095967626
61.5 55.81251316550613
63.0 57.412507223041146
65.0 58.98003294234368
67.0 60.605430514139485
69.0 62.483990799184056
71.0 64.2416711302836
73.0 65.75281887921282
75.0 67.48399079918407
77.5 69.29315871906849
80.0 71.12448764304285
82.5 73.35712598473218
85.0 75.32293110248064
87.5 76.92293110248063
90.0 78.52293110248063
92.5 79.7343573213356
95.0 80.71199695642737
97.5 81.33461706421345
100.0 81.67976991419725
103.0 81.90128503993292
106.0 81.75686156553041
109.0 81.32293110248064
112.0 80.90076749445562
115.0 80.54498217571201
118.0 80.59002197288079
122.0 80.90076749445562
125.0 81.2447289505772
128.0 81.52293110248064
132.0 81.72293110248063
136.0 81.78925841531061
140.0 81.75609803813525
145.0 81.72293110248063
150.0 81.74523538608283
155.0 81.80051167804048
160.0 81.96692185116049
165.0 82.16692185116051
170.0 82.4
175.0 82.5669218511605
180.0 82.58951489542683
185.0 82.4782330650839
190.0 82.24523538608281
195.0 82.01173585711585
200.0 81.74523538608283
206.0 81.42293110248063
212.0 81.03435732133559
218.0 80.5343573213356
224.0 79.9343573213356
230.0 79.35711996599535
236.0 78.8130058166541
240.0 78.3130058166541
250.0 77.91300581665409
258.0 77.53588035141759
265.0 77.23588035141759
272.0 77.10204066493431
280.0 77.23588035141759
290.0 77.6130058166541
300.0 78.0699738260637
307.0 78.54753759997563
315.0 78.93614605110727
325.0 79.06846270750857
335.0 78.92472454359539
345.0 78.7020406649343
355.0 78.59079136849066
365.0 78.40204066493432
375.0 78.3249728743346
387.0 78.31378289779819
400.0 78.29156062781861
412.0 78.41378289779819
425.0 78.51378289779818
437.0 78.63665939792249
450.0 78.86971618928136
462.0 79.00406331639358
475.0 79.0297606189123
487.0 78.99533041399592
500.0 78.85307665372495
515.0 78.79533041399593
530.0 78.9158061654439
545.0 79.0573724696949
560.0 79.19002197288079
580.0 79.23434563061504
600.0 79.19051745064966
615.0 79.03534957926027
630.0 78.90202915499756
650.0 78.75992744307254
670.0 78.58308251146873
690.0 78.37410266254976
710.0 77.79845208497032
730.0 77.07836319550879
750.0 76.61086734881428
775.0 76.55094139295012
800.0 76.85320671702432
825.0 77.01284853824173
850.0 77.07802631523492
875.0 77.05509655986357
900.0 77.07581056890159
925.0 77.53903973240129
950.0 78.0390397324013
975.0 78.2880865973549
1000.0 78.15082183366614
1030.0 77.72929153986563
1060.0 77.26503288493849
1090.0 76.94586161003615
1120.0 76.90465282826761
1150.0 76.98576604168153
1180.0 77.04851482319698
1220.0 76.87965775558816
1250.0 76.7329172204269
1280.0 76.77236611214167
1320.0 76.9890457877233
1360.0 77.13269554966725
1400.0 77.15653712243612
1450.0 77.01042569179135
1500.0 76.70873322750563
1550.0 76.58898389330828
1600.0 76.52666941944427
1650.0 76.36264561652912
1700.0 76.352871648711
1750.0 76.56205220801218
1800.0 76.65423559041974
1850.0 76.85441032232312
1900.0 76.07839062945523
1950.0 75.751760924673
2000.0 76.03589466057052
2060.0 76.44093773410525
2120.0 76.5574607686709
2180.0 76.69586153213285
2240.0 76.4911764846323
2300.0 75.9067758378861
2360.0 75.94656274424352
2400.0 76.58169420926453
2500.0 77.72008890912453
2580.0 78.27384755743628
2650.0 78.17705633913488
2720.0 78.08619723955009
2800.0 77.58679452260564
2900.0 77.30079596949328
3000.0 76.94701437032255
3070.0 76.87857645099325
3150.0 77.13914648725009
3250.0 76.89750158659854
3350.0 76.71872675963586
3450.0 76.3913445711258
3550.0 76.06496102888094
3650.0 76.1750977156944
3750.0 76.41528734992717
3870.0 76.69562417305272
4000.0 76.62444756152262
4120.0 76.27663680436603
4250.0 75.84535487264016
4370.0 76.22977391327537
4500.0 76.61893801517064
4620.0 76.89286051350244
4750.0 77.50798436819747
4870.0 78.06422416986646
5000.0 78.5563614809516
5150.0 79.77224588852856
5300.0 80.52392089001604
5450.0 80.1272501052094
5600.0 80.30899929959594
5800.0 79.63503692182091
6000.0 79.33132528880525
6150.0 78.54870214571288
6300.0 77.60338937034949
6500.0 76.94557760533604
6700.0 76.60410920330354
6900.0 76.52090186332393
7100.0 76.04886451238596
7300.0 76.4700622008751
7500.0 76.68965177831272
7750.0 77.3154925800233
8000.0 77.61596300589005
8250.0 77.99374120412271
8500.0 77.76271673736242
8750.0 77.40142109399726
9000.0 78.11229059472255
9250.0 78.38293668170834
9500.0 78.32422066191953
9750.0 78.62922319961126
10000.0 78.58865473189017
10300.0 78.8951408512623
10600.0 79.34524380947404
10900.0 78.31972822174332
11200.0 77.3714921508655
11500.0 76.6960160391118
11800.0 77.37129414763156
12200.0 78.70175274749121
12500.0 79.13367746496837
12800.0 78.32189926067045
13200.0 76.78521896072921
13600.0 75.83172907069837
14000.0 78.87914924827774
14500.0 78.07125474289639
15000.0 76.37467460290888
15500.0 77.68069063750801
16000.0 76.6235784569066
16500.0 73.13060650688855
17000.0 72.8244433639372
17500.0 76.93680974031301
18000.0 77.15641363253938
18500.0 76.72290552168245
19000.0 77.1365628133982
19500.0 77.92666864072548
