Freq "On Axis"
22.4 -5.90000000000002
23.0 -2.799999999999997
23.6 3.200000000000003
24.0 7.500000000000014
25.0 10.500000000000014
25.8 13.200000000000003
26.5 15.600000000000009
27.2 16.500000000000014
28.0 17.200000000000003
29.0 17.500000000000014
30.0 18.700000000000003
30.7 20.09999999999998
31.5 21.299999999999997
32.5 23.799999999999997
33.5 25.000000000000014
34.5 26.299999999999997
35.5 28.60000000000001
36.5 30.10000000000001
37.5 30.89999999999999
38.7 31.60000000000001
40.0 33.000000000000014
41.2 32.39999999999999
42.5 32.89999999999999
43.7 34.60000000000001
45.0 36.000000000000014
46.2 37.8
47.5 40.60000000000001
48.7 42.89999999999999
50.0 44.60000000000001
51.5 46.10000000000001
53.0 47.500000000000014
54.5 48.8
56.0 50.7
58.0 52.60000000000001
60.0 54.3
61.5 55.8
63.0 57.60000000000001
65.0 59.2
67.0 60.89999999999999
69.0 62.7
71.0 64.50000000000001
73.0 65.99999999999999
75.0 67.6
77.5 69.4
80.0 71.2
82.5 73.40000000000002
85.0 75.4
87.5 77.00000000000001
90.0 78.6
92.5 79.8
95.0 80.8
97.5 81.5
100.0 81.8
103.0 82.00000000000001
106.0 81.9
109.0 81.4
112.0 80.99999999999999
115.0 80.60000000000001
118.0 80.7
122.0 80.99999999999999
125.0 81.3
128.0 81.6
132.0 81.8
136.0 81.8
140.0 81.8
145.0 81.8
150.0 81.8
155.0 81.9
160.0 82.00000000000001
165.0 82.2
170.0 82.39999999999999
175.0 82.6
180.0 82.6
185.0 82.6
190.0 82.3
195.0 82.09999999999998
200.0 81.8
206.0 81.5
212.0 81.2
218.0 80.7
224.0 80.1
230.0 79.50000000000001
236.0 79.0
240.0 78.49999999999999
250.0 78.10000000000001
258.0 77.7
265.0 77.39999999999999
272.0 77.3
280.0 77.39999999999999
290.0 77.8
300.0 78.3
307.0 78.8
315.0 79.2
325.0 79.3
335.0 79.2
345.0 78.9
355.0 78.8
365.0 78.6
375.0 78.49999999999999
387.0 78.49999999999999
400.0 78.40000000000002
412.0 78.6
425.0 78.7
437.0 78.9
450.0 79.1
462.0 79.2
475.0 79.4
487.0 79.3
500.0 79.2
515.0 79.1
530.0 79.2
545.0 79.2
560.0 79.3
580.0 79.3
600.0 79.3
615.0 79.2
630.0 79.1
650.0 79.1
670.0 78.9
690.0 78.8
710.0 78.2
730.0 77.5
750.0 77.00000000000001
775.0 77.00000000000001
800.0 77.3
825.0 77.5
850.0 77.6
875.0 77.6
900.0 77.6
925.0 78.0
950.0 78.49999999999999
975.0 78.6
1000.0 78.40000000000002
1030.0 78.0
1060.0 77.6
1090.0 77.39999999999999
1120.0 77.3
1150.0 77.39999999999999
1180.0 77.5
1220.0 77.39999999999999
1250.0 77.3
1280.0 77.3
1320.0 77.39999999999999
1360.0 77.39999999999999
1400.0 77.39999999999999
1450.0 77.39999999999999
1500.0 77.39999999999999
1550.0 77.39999999999999
1600.0 77.3
1650.0 76.9
1700.0 76.6
1750.0 77.09999999999998
1800.0 77.2
1850.0 76.8
1900.0 76.6
1950.0 76.8
2000.0 76.7
2060.0 77.00000000000001
2120.0 77.6
2180.0 77.39999999999999
2240.0 77.00000000000001
2300.0 76.7
2360.0 77.00000000000001
2400.0 77.6
2500.0 78.40000000000002
2580.0 79.0
2650.0 79.0
2720.0 78.9
2800.0 78.7
2900.0 78.49999999999999
3000.0 78.2
3070.0 78.2
3150.0 78.2
3250.0 78.3
3350.0 78.10000000000001
3450.0 77.9
3550.0 77.6
3650.0 77.39999999999999
3750.0 77.6
3870.0 77.6
4000.0 77.6
4120.0 77.39999999999999
4250.0 77.2
4370.0 77.2
4500.0 77.09999999999998
4620.0 77.2
4750.0 77.3
4870.0 77.39999999999999
5000.0 77.7
5150.0 78.3
5300.0 78.8
5450.0 78.9
5600.0 78.8
5800.0 78.6
6000.0 78.8
6150.0 78.9
6300.0 78.8
6500.0 78.6
6700.0 78.3
6900.0 78.2
7100.0 78.0
7300.0 78.2
7500.0 78.49999999999999
7750.0 78.8
8000.0 79.0
8250.0 79.3
8500.0 79.3
8750.0 79.3
9000.0 79.50000000000001
9250.0 79.4
9500.0 79.2
9750.0 78.6
10000.0 77.5
10300.0 76.9
10600.0 76.7
10900.0 77.00000000000001
11200.0 77.3
11500.0 77.09999999999998
11800.0 77.9
12200.0 79.3
12500.0 80.5
12800.0 80.7
13200.0 79.8
13600.0 78.40000000000002
14000.0 78.3
14500.0 78.7
15000.0 78.8
15500.0 78.10000000000001
16000.0 75.90000000000002
16500.0 73.40000000000002
17000.0 72.8
17500.0 74.59999999999998
18000.0 77.7
18500.0 79.7
19000.0 80.2
19500.0 80.4
