Freq "Sound Power DI"
22.4 31.991341941905773
23.0 31.96787294644892
23.6 31.78793471737572
24.0 31.61961616477359
25.0 31.45243581491772
25.8 31.291662687849083
26.5 31.140190571557923
27.2 30.957251545635614
28.0 30.802143097772728
29.0 30.69396260896943
30.0 30.60254158175877
30.7 30.56705200913524
31.5 30.509538164527157
32.5 30.51424729692559
33.5 30.54311927221704
34.5 30.609486005354057
35.5 30.63176267944047
36.5 30.708985809588313
37.5 30.829053146125972
38.7 31.007452577217094
40.0 31.182514339445163
41.2 31.382690814623885
42.5 31.636520109231355
43.7 31.823778035801553
45.0 31.976615547089267
46.2 31.988720453752904
47.5 31.903255597980177
48.7 31.732061096359928
50.0 31.552318780306564
51.5 31.35261218615392
53.0 31.234044525994904
54.5 31.11696949120369
56.0 31.070670240497748
58.0 31.040570603520905
60.0 31.054070804731765
61.5 31.0992137789367
63.0 31.147322664894318
65.0 31.198055777717357
67.0 31.267071625792966
69.0 31.336734637639367
71.0 31.324676109434463
73.0 31.31295406868179
75.0 31.270810956665485
77.5 31.217296882937035
80.0 31.170908052809622
82.5 31.171289219514193
85.0 31.17916968177991
87.5 31.18984344080428
90.0 31.25444012264576
92.5 31.273245424553664
95.0 31.308693761531458
97.5 31.312609650228126
100.0 31.305521705577704
103.0 31.29943486702841
106.0 31.27142781405159
109.0 31.27729833647031
112.0 31.340160643926893
115.0 31.33212538689773
118.0 31.375325173406807
122.0 31.364812266099023
125.0 31.30475522633361
128.0 31.276485726154434
132.0 31.3034096649386
136.0 31.31706909811352
140.0 31.35497154948665
145.0 31.391201352872528
150.0 31.406788493427186
155.0 31.327856216984316
160.0 31.27103604414917
165.0 31.230709785903926
170.0 31.246757674157735
175.0 31.286991455281708
180.0 31.362770259639248
185.0 31.45998787745829
190.0 31.525401420554743
195.0 31.6011708068838
200.0 31.64683916763211
206.0 31.605045365974874
212.0 31.581893283442625
218.0 31.62338147325694
224.0 31.69261781223409
230.0 31.79005166958885
236.0 31.81784268667684
240.0 31.854130109833932
250.0 32.01365003922602
258.0 32.21321875819268
265.0 32.399930762709204
272.0 32.459446788990846
280.0 32.56117395703825
290.0 32.72040206975308
300.0 32.861779239173046
307.0 32.900835085695036
315.0 32.82562862824733
325.0 32.84505125653948
335.0 32.973526159857286
345.0 33.005371337636575
355.0 33.05848227485566
365.0 33.24200559090171
375.0 33.44083606056037
387.0 33.52234579289899
400.0 33.63644169130194
412.0 33.7335701716939
425.0 33.79172117102797
437.0 33.78624457846344
450.0 33.8053479196185
462.0 33.92766560678966
475.0 34.12963820668462
487.0 34.426779853991135
500.0 34.74267169366466
515.0 34.94337507462424
530.0 35.00275745246799
545.0 34.996898622329326
560.0 34.94510548832443
580.0 34.81911640743317
600.0 34.794248283718815
615.0 34.725775198235326
630.0 34.757217123286935
650.0 34.82220710241795
670.0 34.96150776223561
690.0 35.03809706948866
710.0 35.08817427769823
730.0 35.133473699327496
750.0 35.34159288888604
775.0 35.58590341135303
800.0 35.85899633915426
825.0 36.14079587140736
850.0 36.36286915809164
875.0 36.60208722273249
900.0 36.58258562187085
925.0 36.63587717266955
950.0 36.78425615914638
975.0 36.825644743259005
1000.0 36.743512248785024
1030.0 36.697452318002775
1060.0 36.738793419109456
1090.0 36.78485583199
1120.0 36.71105412903728
1150.0 36.64918538509271
1180.0 36.6688834842933
1220.0 36.65737739251375
1250.0 36.71329104859866
1280.0 36.8219882848076
1320.0 36.88168641701685
1360.0 36.740881353545646
1400.0 36.58158009028594
1450.0 36.47869906117451
1500.0 36.90407273625944
1550.0 37.38463304770721
1600.0 37.20140997127562
1650.0 36.680931243822016
1700.0 36.054015277985044
1750.0 35.44575681553921
1800.0 35.15959599195507
1850.0 33.75394514620815
1900.0 33.104538249474516
1950.0 34.406401287995834
2000.0 35.22566924182746
2060.0 35.26127538493934
2120.0 35.817136709959385
2180.0 37.177907139531484
2240.0 37.19755052910463
2300.0 37.261111422908684
2360.0 37.73337561889704
2400.0 38.65411320154446
2500.0 38.11259141617339
2580.0 38.06042816915824
2650.0 38.5820172491584
2720.0 38.154699547602746
2800.0 38.44159300033995
2900.0 38.67053978713838
3000.0 38.36451549265375
3070.0 38.541541749289195
3150.0 38.03593772185614
3250.0 38.72058130644825
3350.0 38.6005884714661
3450.0 38.24466524877096
3550.0 37.86395529316363
3650.0 37.48761741061827
3750.0 37.61080650845004
3870.0 37.93769064969065
4000.0 37.90590727476358
4120.0 37.78270525431765
4250.0 37.305954352798764
4370.0 37.0213162011332
4500.0 36.97374729881659
4620.0 37.1856363440242
4750.0 37.20782569204934
4870.0 37.62329769315129
5000.0 37.84842475291333
5150.0 37.88282960248992
5300.0 38.11560610344665
5450.0 38.45889691772376
5600.0 38.31031025110012
5800.0 38.31759526985256
6000.0 37.94308767518686
6150.0 38.201248017157454
6300.0 38.747505856758266
6500.0 38.894805347100075
6700.0 39.018869173813655
6900.0 39.444099337047405
7100.0 39.93705806125482
7300.0 39.98234211586842
7500.0 39.943013698331924
7750.0 39.45901512228991
8000.0 38.67595677095751
8250.0 37.94990743536799
8500.0 38.3738357052781
8750.0 38.998059901061424
9000.0 39.37136616219381
9250.0 39.431488234681254
9500.0 39.59538821712886
9750.0 39.510848948174484
10000.0 39.15025818578053
10300.0 38.25810944839121
10600.0 37.66743392490275
10900.0 37.594517341433644
11200.0 37.792416912494105
11500.0 37.855411684962775
11800.0 37.637670883129715
12200.0 38.00958609692937
12500.0 38.716276237428744
12800.0 39.410984631419055
13200.0 39.50173570892446
13600.0 38.988990723443706
14000.0 37.967111628696784
14500.0 38.71078230144437
15000.0 39.56346263884545
15500.0 39.402031110469935
16000.0 39.27317073057907
16500.0 39.964081544159114
17000.0 39.3467304151084
17500.0 38.521750478300376
18000.0 38.70774017300671
18500.0 40.8055189340314
19000.0 40.5896794383827
19500.0 39.80337535125257
