Freq "Front Wall Bounce"
22.4 55.11780405369886
23.0 56.49618266044497
23.6 57.632902680299324
24.0 58.793219290280106
25.0 60.23900807381385
25.8 61.498034659559224
26.5 62.42913257723532
27.2 62.00469030724845
28.0 61.728773025400656
29.0 61.41962539079978
30.0 60.408024314055965
30.7 60.11363091016629
31.5 60.517538868876485
32.5 61.1700285910682
33.5 62.50142755076088
34.5 64.07716591844655
35.5 65.69812796225749
36.5 67.20553587767405
37.5 68.70167034727008
38.7 70.44514519797671
40.0 70.73885103151919
41.2 71.07135174137875
42.5 70.87846374965584
43.7 70.31529077420944
45.0 70.33322048951113
46.2 71.24251244428321
47.5 72.67805883809423
48.7 73.21431219561464
50.0 73.59099859071374
51.5 73.6933151458969
53.0 73.93049548673177
54.5 73.66921467507244
56.0 73.97181937443831
58.0 74.78569308559887
60.0 75.55292468421189
61.5 76.25358604163502
63.0 76.85358604163504
65.0 77.45358604163502
67.0 77.9818844619561
69.0 78.58188446195611
71.0 79.16639300062181
73.0 79.74992190601229
75.0 80.20574436464763
77.5 80.64761212100748
80.0 81.14761212100748
82.5 81.67594936708856
85.0 82.26180385619097
87.5 82.67594936708859
90.0 82.97594936708857
92.5 83.2190887624264
95.0 83.51974012128588
97.5 83.77660722778283
100.0 83.9489212844656
103.0 84.07660722778283
106.0 84.09103250952741
109.0 84.09103250952741
112.0 84.11974012128586
115.0 83.9489212844656
118.0 83.79103250952741
122.0 83.663438666009
125.0 83.463438666009
128.0 83.20703612372033
132.0 83.00770450570765
136.0 82.80770450570765
140.0 82.52270087084213
145.0 82.32460894073652
150.0 82.06961526805641
155.0 81.9696152680564
160.0 81.84123652708409
165.0 81.78509526014686
170.0 81.65681782173492
175.0 81.53086697094147
180.0 81.40535613400486
185.0 81.32716419020205
190.0 81.26824550850178
195.0 81.32716419020205
200.0 81.46824550850178
206.0 81.65197146817523
212.0 81.76824550850178
218.0 82.00535613400486
224.0 82.11519212430848
230.0 82.06961526805641
236.0 81.86961526805639
240.0 81.58958877315739
250.0 81.47412481799562
258.0 81.3998192280507
265.0 81.3151921243085
272.0 81.2151921243085
280.0 81.06961526805638
290.0 80.88084436082481
300.0 80.66604776966263
307.0 80.66537294533137
315.0 81.0808443608248
325.0 81.65443414855874
335.0 82.11519212430848
345.0 82.4360087356677
355.0 82.70535613400484
365.0 82.91519212430849
375.0 83.1151921243085
387.0 83.2895887731574
400.0 83.3111098470468
412.0 83.20278392021818
425.0 83.08663903011488
437.0 82.90535613400483
450.0 82.71519212430849
462.0 82.67412481799562
475.0 82.81110984704678
487.0 83.25874581870393
500.0 83.6035295745376
515.0 83.58065638723134
530.0 83.5523499375643
545.0 83.68065638723132
560.0 83.85874581870392
580.0 83.77882565009259
600.0 83.61038115914754
615.0 83.69426453950204
630.0 83.68701074723354
650.0 83.61293063553417
670.0 83.40751671021725
690.0 83.20428160042742
710.0 83.08342946600447
730.0 82.61494983762556
750.0 82.08564370223209
775.0 81.92441829517661
800.0 81.64414742030296
825.0 81.59806738422974
850.0 81.65654073597594
875.0 81.59211227225046
900.0 81.96203282589845
925.0 82.44150565194832
950.0 83.54780629314847
975.0 84.47687889157494
1000.0 85.45688866440139
1030.0 85.79457594671702
1060.0 85.5541799150025
1090.0 84.94008468767946
1120.0 84.40961789459709
1150.0 83.71168010258125
1180.0 83.31092809186758
1220.0 83.65428900795864
1250.0 83.718596156605
1280.0 84.05024262718942
1320.0 83.59780399669478
1360.0 83.14950794525873
1400.0 82.6841087778068
1450.0 82.1368055591662
1500.0 82.2336155021518
1550.0 82.2336155021518
1600.0 82.26439436101695
1650.0 82.39508732208874
1700.0 82.2968816495244
1750.0 81.82863394925396
1800.0 81.52016358953355
1850.0 81.38262703722664
1900.0 81.25461288197897
1950.0 80.99502647762505
2000.0 81.20034271213585
2060.0 81.39000077548228
2120.0 82.01405537074858
2180.0 81.7115920161198
2240.0 81.29824551049352
2300.0 81.4459457037408
2360.0 82.04038230604586
2400.0 82.46474391737205
2500.0 82.19751203096813
2580.0 82.23877434109582
2650.0 82.07551938555532
2720.0 82.10252874742797
2800.0 81.96232210050736
2900.0 81.97222268393686
3000.0 81.77217844011659
3070.0 81.37726685420755
3150.0 81.19507436920802
3250.0 81.23736155109832
3350.0 81.29895781028227
3450.0 81.78741436952008
3550.0 82.25740047042467
3650.0 82.30827637459932
3750.0 81.23513610473921
3870.0 81.33813463985037
4000.0 81.62739459327328
4120.0 81.86119949649873
4250.0 82.21770814484645
4370.0 82.41179236313862
4500.0 82.8627391257203
4620.0 82.20831467760149
4750.0 82.03173049983057
4870.0 81.99851255471731
5000.0 82.54937487895307
5150.0 82.714838075315
5300.0 83.7434740578378
5450.0 84.15892133487678
5600.0 84.58618073112582
5800.0 84.26279814881059
6000.0 84.03396776779418
6150.0 83.40950066483794
6300.0 83.48490753029044
6500.0 83.91879277609846
6700.0 84.3070098482497
6900.0 84.54855945704647
7100.0 84.67667067019096
7300.0 85.09474978642467
7500.0 85.39062178450159
7750.0 85.59184627518889
8000.0 86.36489104086552
8250.0 85.92937588511228
8500.0 84.9223308436863
8750.0 84.10372612871934
9000.0 83.70751671021725
9250.0 83.7268085025165
9500.0 84.82003082544334
9750.0 85.81309258255504
10000.0 86.28644406392264
10300.0 85.97674157142892
10600.0 85.50731451146675
10900.0 84.54787755491043
11200.0 84.9666564268466
11500.0 84.20187109701843
11800.0 82.98477251613149
12200.0 83.70771378787818
12500.0 84.17285287317584
12800.0 82.7653068077853
13200.0 82.0612177925901
13600.0 83.56242423790435
14000.0 81.40504465044253
14500.0 80.88167070978301
15000.0 81.63927651140443
15500.0 82.78949298762772
16000.0 85.2329883169403
16500.0 84.70920110960294
17000.0 84.23160646071929
17500.0 85.08203353075707
18000.0 84.96342881324763
18500.0 87.24110463399464
19000.0 85.80082819745571
19500.0 82.84820324317225
