Freq,On Axis,Listening Window,Sound Power,Early Reflections,Early Reflections DI,Sound Power DI,DI offset
22.4,23.811392405063273,21.505124563615098,25.848875814843367,23.8328530602938,27.672271503321298,25.65624874877173,30
23.0,24.311392405063273,22.16456625491928,26.723179304032456,24.59004541363295,27.57452084128633,25.441386950886823,30
23.6,24.911392405063268,22.897365248424947,27.79718237024524,25.556533347344967,27.34083190107998,25.10018287817971,30
24.0,25.411392405063268,23.89554315304555,28.638050142294176,26.526715910552653,27.368827242492898,25.257493010751375,30
25.0,26.011392405063262,25.233737966620524,29.583935868960182,27.71899277100816,27.514745195612363,25.64980209766034,30
25.8,26.611392405063256,27.3084458873047,30.9711798049466,29.49537864178815,27.81306724551655,26.3372660823581,30
26.5,27.21139240506328,31.837680046891265,34.51774883228167,33.599930273352115,28.23774977353915,27.319931214609596,30
27.2,28.111392405063256,31.408507715474784,33.43119808028867,32.626115945631355,28.78239176984343,27.977309635186117,30
28.0,29.311392405063273,30.444421058203503,32.4467840965372,31.828793256343786,28.615627801859716,27.997636961666302,30
29.0,30.811392405063273,30.111468096603986,32.22192160884576,31.901477496016113,28.209990600587872,27.889546487758224,30
30.0,32.21139240506328,29.83073222630928,32.26046484009986,32.25328645100258,27.5774457753067,27.570267386209423,30
30.7,33.81139240506327,30.92841665051843,33.391432408817266,33.421210427188,27.507206223330428,27.536984241701163,30
31.5,35.51139240506326,32.78696131904,35.13202341191287,35.14037925462107,27.646582064418936,27.654937907127135,30
32.5,37.31139240506327,34.8612337905969,37.10775993282918,37.04074932132188,27.820484469275016,27.753473857767716,30
33.5,39.21139240506328,37.16747880791105,39.82570669734453,39.26222559919823,27.90525320871282,27.341772110566524,30
34.5,40.91139240506327,39.74433015872022,43.061423045260696,41.81046147743139,27.93386868128883,26.68290711345952,30
35.5,42.611392405063256,43.47514439593233,47.56942591823211,45.60998095992174,27.86516343601059,25.90571847770022,30
36.5,44.31139240506327,47.13995849758014,50.55826303081177,49.069903695164285,28.070054802415854,26.581695466768366,30
37.5,45.91139240506327,50.92030832491159,52.97315637017887,52.49998668959641,28.420321635315176,27.947151954732718,30
38.7,47.51139240506326,53.226601064825616,53.79842615812562,53.804722236186606,29.42187882863901,29.428174906699994,30
40.0,49.31139240506327,50.12788652842379,51.25604639064052,50.5426547815034,29.585231746920385,28.871840137783266,30
41.2,50.81139240506327,50.21450942213197,51.29416039234076,50.348538150154454,29.865971271977514,28.92034902979121,30
42.5,52.31139240506327,51.7067741967106,52.071964703455606,51.492430081553906,30.214344115156692,29.63480949325499,30
43.7,53.61139240506327,53.58242346551374,53.17390476209273,53.21097411241077,30.371449353102975,30.40851870342101,30
45.0,55.01139240506326,55.131786345830676,54.626467507716754,55.02732792036565,30.104458425465026,30.505318838113922,30
46.2,56.41139240506327,56.190796611257596,57.07014348099062,57.60040482440428,28.590391786853317,29.120653130266973,30
47.5,57.81139240506327,57.12769606972783,60.22115265951605,61.07612179056345,26.051574279164385,26.906543410211782,30
48.7,59.11139240506327,56.79906765801003,57.5953228548196,58.356623949576914,28.442443708433117,29.203744803190432,30
50.0,60.41139240506327,58.17405031821387,57.38140903384826,58.186370416856434,29.98767990135744,30.792641284365615,30
51.5,61.61139240506327,60.72510780847135,58.20940025947823,59.47160013930781,31.25350766916354,32.51570754899312,30
53.0,62.711392405063265,62.19248205109962,59.41746101310396,60.771528873232185,31.420953177867432,32.77502103799566,30
54.5,63.81139240506327,63.13377785568157,60.726390760938045,61.99972989102231,31.13404796465926,32.40738709474353,30
56.0,64.71139240506326,64.02734357877232,61.8381939623433,63.03417683599375,30.99316674277857,32.18914961642902,30
58.0,65.61139240506328,65.02980332418697,63.02209279481487,64.00704447558708,31.022758848599892,32.007710529372105,30
60.0,66.61139240506327,66.10829272616871,64.20560715235185,65.0917016327853,31.01659109338341,31.902685573816868,30
61.5,67.51139240506326,67.1055666502475,65.2682851591589,66.11903150824065,30.986535142006844,31.83728149108859,30
63.0,68.31139240506327,67.87985628783746,66.16382619164273,66.93245900783343,30.947397280004026,31.71603009619473,30
65.0,69.01139240506326,68.59689010108296,67.0538572078764,67.7297619151049,30.86712818597806,31.543032893206558,30
67.0,69.61139240506326,69.22108547610915,67.74270088532698,68.42307483624909,30.798010639860067,31.47838459078217,30
69.0,70.11139240506327,69.83889777188718,68.34528391187555,69.0300163583326,30.808881413554573,31.49361386001162,30
71.0,70.61139240506328,70.38516596923654,68.98429726555695,69.62029156645866,30.764874402777878,31.400868703679592,30
73.0,71.11139240506327,70.89378088907806,69.82230469562454,70.36222124434023,30.531559644737825,31.07147619345352,30
75.0,71.51139240506326,71.4129332158627,70.61840772551969,71.04454403828998,30.36838917757271,30.794525490343005,30
77.5,71.81139240506327,71.81318910726797,71.2580927954334,71.56003112227019,30.253157984997785,30.555096311834575,30
80.0,72.01139240506326,71.95612135564046,71.74071810931623,71.8354781758504,30.120643179790065,30.21540324632423,30
82.5,72.21139240506326,72.21215989951888,72.20022984989261,72.15437076426083,30.057789135258048,30.011930049626272,30
85.0,72.31139240506327,72.26825397059369,72.55806167363998,72.36228371439556,29.90597025619813,29.710192296953707,30
87.5,72.31139240506327,72.2126656649088,72.74435453955304,72.44590610289684,29.766759562011956,29.468311125355754,30
90.0,72.31139240506327,72.28936832287705,72.73733100163727,72.4837061252184,29.80566219765865,29.55203732123978,30
92.5,72.31139240506327,72.30241681612999,72.56027838364837,72.43976969955084,29.862647116579154,29.742138432481624,30
95.0,72.21139240506326,72.33508116833546,72.32743187698416,72.37887994925207,29.956201219083397,30.0076492913513,30
97.5,72.11139240506326,72.16774300631936,71.98773972301144,72.17581314536895,29.991929860950407,30.18000328330791,30
100.0,72.01139240506326,72.06774300631936,71.85010170872395,72.07933034788245,29.988412658436914,30.217641297595407,30
103.0,72.01139240506326,72.12442779844974,71.93332362887179,72.14830662603354,29.9761211724162,30.191104169577955,30
106.0,72.01139240506326,72.24727853250934,72.07261682618925,72.26761321355187,29.979665318957473,30.174661706320094,30
109.0,72.11139240506326,72.36925246367106,72.10942021035305,72.38471500762999,29.984537456041068,30.25983225331801,30
112.0,72.21139240506326,72.40090146245835,72.13874697997291,72.42157909094682,29.97932237151153,30.262154482485442,30
115.0,72.41139240506327,72.54548996798538,72.18044587705187,72.51058035716827,30.03490961081711,30.36504409093351,30
118.0,72.61139240506327,72.79038511625221,72.31391501289491,72.65452060717355,30.135864509078658,30.4764701033573,30
122.0,72.81139240506327,72.97856619068982,72.43338336093164,72.76911232818456,30.209453862505256,30.545182829758176,30
125.0,73.01139240506326,73.1121658580691,72.5588031771373,72.85521002452624,30.25695583354286,30.553362680931798,30
128.0,73.11139240506328,73.08962547014714,72.54382265713146,72.8459523714311,30.243673098716044,30.545802813015683,30
132.0,73.11139240506328,73.1353183792213,72.54307577586154,72.85674053612361,30.278577843097693,30.592242603359765,30
136.0,73.11139240506328,73.078823978335,72.45202053012908,72.76446375097846,30.31436022735653,30.62680344820592,30
140.0,73.01139240506326,72.86827175383173,72.15731601171935,72.50374030398065,30.364531449851086,30.71095574211239,30
145.0,72.81139240506327,72.71368879636792,71.69480866978638,72.15118208912425,30.56250670724367,31.018880126581536,30
150.0,72.81139240506327,72.69064220332646,71.52296746959651,72.06791296778816,30.6227292355383,31.167674733729953,30
155.0,72.81139240506327,72.63585054926445,71.4026614771809,71.98957485850563,30.646275690758813,31.233189072083547,30
160.0,72.81139240506327,72.69141936033255,71.42333901712898,72.01588627120758,30.67553308912497,31.268080343203565,30
165.0,73.01139240506326,72.9034308281819,71.55795307593529,72.17119027962404,30.732240548557854,31.34547775224661,30
170.0,73.31139240506327,73.1047362710003,71.68261453911559,72.28558382152355,30.81915244947676,31.422121731884715,30
175.0,73.61139240506327,73.33970256050974,71.78657117818689,72.41156261557838,30.92813994493136,31.553131382322846,30
180.0,73.71139240506326,73.41928581562841,71.73111472959901,72.38245515754451,31.0368306580839,31.6881710860294,30
185.0,73.71139240506326,73.39895960634462,71.5295371574016,72.25445691244146,31.144502693903164,31.869422448943013,30
190.0,73.61139240506327,73.26394573600167,71.12724970758445,71.96938892868732,31.29455680731435,32.13669602841722,30
195.0,73.41139240506327,73.03023014675084,70.70253046870684,71.69770876482694,31.332521381923897,32.327699678044,30
200.0,73.11139240506328,72.74218722266343,70.49778125412088,71.49413563488748,31.248051587775947,32.24440596854255,30
206.0,72.81139240506327,72.47582850016678,70.00942037034984,71.1866935044019,31.289134995764883,32.46640812981694,30
212.0,72.71139240506326,72.31418294450518,69.54127581733287,70.9597074857815,31.354475458723684,32.7729071271723,30
218.0,72.41139240506327,72.17528823649427,69.23312222799605,70.75615136720678,31.419136869287485,32.94216600849822,30
224.0,72.11139240506326,71.84356808573135,68.76722783805116,70.33610926413496,31.507458821596387,33.07634024768019,30
230.0,71.61139240506327,71.29842832937729,68.00988484204308,69.66389121976516,31.634537109612126,33.28854348733421,30
236.0,71.01139240506326,70.755500482194,67.29647230774866,69.02732845943257,31.728172022761427,33.459028174445336,30
240.0,70.81139240506327,70.49058835963963,66.88916044803888,68.69158207017695,31.79900628946268,33.60142791160075,30
250.0,71.01139240506326,70.73186947430871,67.03345416669883,68.89720447708537,31.834664997223342,33.69841530760988,30
258.0,71.61139240506327,71.41717591598929,67.72426830590643,69.62880083768745,31.78837507830184,33.692907610082855,30
265.0,72.21139240506326,72.03760255889586,68.54297526143422,70.40225718056152,31.635345378334335,33.49462729746163,30
272.0,72.41139240506327,72.33532983127188,69.0935082475296,70.84884761618603,31.486482215085843,33.24182158374228,30
280.0,72.41139240506327,72.39038511625222,69.3793236257846,71.02407259647089,31.36631251978133,33.011061490467625,30
290.0,72.21139240506326,72.16799555475329,69.39781474789322,70.91017283447198,31.25782272028131,32.77018080686007,30
300.0,72.11139240506326,72.07959738612705,69.52578819222448,70.9341981071945,31.145399278932544,32.553809193902566,30
307.0,72.31139240506327,72.26799555475328,69.77258202859831,71.12926992956044,31.138725625192848,32.49541352615498,30
315.0,72.41139240506327,72.46774300631935,70.00913847926331,71.3540565549581,31.113686451361247,32.45860452705604,30
325.0,72.41139240506327,72.49089369317788,70.23507589890089,71.42683377596705,31.064059917210827,32.25581779427699,30
335.0,72.51139240506326,72.38139596888746,70.05956365896547,71.21215026287803,31.169245706009434,32.32183230992199,30
345.0,72.91139240506327,72.56606357922318,69.55195030985661,70.96779823180576,31.598265347417424,33.014113269366575,30
355.0,73.51139240506326,73.200022246948,69.5207073418204,71.32689279279784,31.87312945415016,33.6793149051276,30
365.0,73.81139240506327,73.53126115213674,69.97941462222714,71.7691585361452,31.762102615991537,33.5518465299096,30
375.0,73.71139240506326,73.45282668850756,69.86536122433864,71.54145654091302,31.91137014759454,33.587465464168915,30
387.0,73.41139240506327,73.24954528949687,69.58147098800951,71.28266058794085,31.966884701556012,33.66807430148735,30
400.0,73.31139240506327,73.07502422916451,69.15325855519457,71.01217623986635,32.06284798929816,33.921765673969944,30
412.0,73.31139240506327,73.02435681702381,68.39700057104037,70.75595987781406,32.26839693920975,34.62735624598345,30
425.0,73.41139240506327,73.22093522529113,68.53236269806176,71.12085374084475,32.10008148444638,34.68857252722937,30
437.0,73.51139240506326,73.44802816173514,69.35719630891178,71.5746715374194,31.873356624315733,34.09083185282336,30
450.0,73.41139240506327,73.28290655149318,69.42478377954524,71.51314959795495,31.769756953538234,33.85812277194795,30
462.0,72.91139240506327,72.78471085332426,69.009505008929,71.0613695647862,31.72334128853805,33.77520584439526,30
475.0,72.71139240506326,72.59969517677861,68.85667601005638,70.91312575682171,31.686569419956896,33.743019166722235,30
487.0,72.71139240506326,72.43955311220384,68.79834556352814,70.79541906233938,31.644134049864462,33.641207548675695,30
500.0,72.61139240506327,72.18162117766335,68.35152910705132,70.41576523776557,31.765855939897776,33.830092070612025,30
515.0,72.91139240506327,72.40214144303914,68.31185290558732,70.49619345647766,31.905947986561486,34.090288537451826,30
530.0,73.21139240506325,72.68075231496273,68.5460144603543,70.82569695416588,31.855055360796854,34.13473785460843,30
545.0,73.71139240506326,73.14754114175673,69.12222023764807,71.49856644025546,31.648974701501274,34.02532090410867,30
560.0,74.31139240506327,73.74609624770137,69.57417716392844,72.0918719802523,31.65422426744908,34.171919083772934,30
580.0,74.51139240506326,73.97272419902602,69.57480472804798,72.24173358246573,31.73099061656029,34.39791947097804,30
600.0,74.31139240506327,74.0101494088996,69.71751471680332,72.3684703813352,31.641679027564393,34.29263469209627,30
615.0,73.71139240506326,73.56795389251037,69.33662344937244,71.90691830269304,31.66103558981733,34.231330443137935,30
630.0,73.21139240506325,73.02620245874624,68.70167988407907,71.23307827484219,31.793124183904055,34.32452257466717,30
650.0,73.01139240506326,72.68138775429244,68.36232329377862,70.8959465201452,31.785441234147243,34.31906446051383,30
670.0,72.91139240506327,72.61499871973942,68.3739313702652,70.9186401973541,31.696358522385324,34.24106734947422,30
690.0,72.91139240506327,72.5260068729515,67.88209411481301,70.523413725972,32.00259314697949,34.643912758138484,30
710.0,73.21139240506325,72.7634011829651,67.61026406542852,70.28385612760262,32.47954505536248,35.15313711753657,30
730.0,73.51139240506326,73.25925915188508,67.87927626742415,70.52849206394423,32.73076708794085,35.37998288446093,30
750.0,73.71139240506326,73.59304910840096,67.91381873790881,70.60192073393209,32.99112837446887,35.67923037049215,30
775.0,74.21139240506328,73.7537512210086,67.6676341651729,70.39301255505745,33.360738665951146,36.0861170558357,30
800.0,74.61139240506326,73.87741232750011,67.35544753355587,70.22644383079432,33.65096849670579,36.521964793944235,30
825.0,74.91139240506327,74.20071130848477,67.37562167143126,70.43244767604976,33.76826363243501,36.82508963705351,30
850.0,75.11139240506327,74.40525932847568,67.38773414030352,70.45966192769734,33.94559740077834,37.01752518817216,30
875.0,75.21139240506326,74.32678411785015,66.84216087467344,70.04183310456705,34.284951013283106,37.48462324317671,30
900.0,75.21139240506326,74.48060555655097,66.84959354962967,70.19026805200562,34.29033750454535,37.631012006921296,30
925.0,75.01139240506326,74.32498569530114,66.87450719247965,70.21696033715445,34.10802535814669,37.45047850282148,30
950.0,74.61139240506326,73.94337479200135,66.44929112534372,69.75527784016181,34.18809695183954,37.49408366665763,30
975.0,74.31139240506327,73.53974249737509,65.90115314345536,69.14083651534708,34.39890598202801,37.63858935391973,30
1000.0,74.41139240506327,73.55140738164,65.5836340926678,68.9537076943972,34.59769968724281,37.96777328897221,30
1030.0,74.51139240506326,73.73327356113415,65.75851209336186,69.24486173841277,34.48841182272139,37.974761467772296,30
1060.0,74.31139240506327,73.5724219621302,65.65161777301024,69.20201533091864,34.370406631211566,37.92080418911996,30
1090.0,73.91139240506327,73.1583280710572,65.08377613315534,68.73972983339223,34.418598237664966,38.07455193790186,30
1120.0,73.61139240506327,72.73927532820164,64.64624509237372,68.29274265075371,34.446532677447934,38.093030235827925,30
1150.0,73.61139240506327,72.65027157264794,64.2977861049316,68.07622084788592,34.57405072476202,38.352485467716335,30
1180.0,73.61139240506327,72.38986052016891,63.860235485060386,67.6897265567532,34.70013396341571,38.52962503510852,30
1220.0,73.71139240506326,72.57140382436494,63.95446525364095,67.78132724668336,34.790076577681575,38.61693857072399,30
1250.0,73.71139240506326,72.56185141424953,64.22954986977453,67.94561370555401,34.61623770869552,38.332301544475,30
1280.0,73.71139240506326,72.4886319294779,63.9327150236728,67.7573441556135,34.73128777386441,38.555916905805105,30
1320.0,73.91139240506327,72.75960114765282,64.57386713324746,68.17450545371351,34.58509569393931,38.185734014405355,30
1360.0,74.11139240506327,72.8454220897931,64.67153383153904,68.24677311378659,34.598648976006515,38.17388825825407,30
1400.0,74.11139240506327,72.99867230146577,64.84571696392861,68.382402255676,34.616270045789776,38.152955337537165,30
1450.0,73.91139240506327,73.13374876334946,65.38771884624883,68.79968729769031,34.33406146565915,37.74602991710063,30
1500.0,73.61139240506327,72.65875285891302,64.51185334965054,68.15658411586936,34.502168743043654,38.14689950926248,30
1550.0,73.31139240506327,72.24818151364211,64.17739861720777,67.81365598383125,34.434525529810855,38.07078289643434,30
1600.0,73.21139240506325,71.86017311188056,63.43721594944331,67.40046967270482,34.45970343917574,38.42295716243724,30
1650.0,72.91139240506327,71.57633038200113,63.044452518600394,67.28499110855157,34.291339273449566,38.53187786340074,30
1700.0,72.51139240506326,70.84448495782034,61.809430885761515,66.47895446991076,34.36553048790958,39.03505407205883,30
1750.0,72.11139240506326,70.221833762998,60.949004007385966,65.75369179736047,34.46814196563753,39.27282975561204,30
1800.0,71.91139240506327,69.74534014366039,60.07475016308787,65.01835991126892,34.72698023239147,39.670589980572515,30
1850.0,71.81139240506327,69.63021788257274,60.15851262180058,65.09721219852872,34.533005684044014,39.471705260772154,30
1900.0,71.81139240506327,69.74184314791825,60.63000175522649,65.514339218967,34.22750392895125,39.11184139269176,30
1950.0,71.91139240506327,69.81287074666314,60.721936337679224,65.7607947687766,34.05207597788653,39.09093440898391,30
2000.0,72.71139240506326,70.65276537611095,61.54326906545816,66.58780762350197,34.064957752608976,39.10949631065279,30
2060.0,73.81139240506327,71.73969117234863,62.632731796636946,67.76436869578596,33.97532247656267,39.10695937571168,30
2120.0,74.71139240506326,72.53527648938551,63.45645295256763,68.7392820347968,33.79599445458871,39.07882353681788,30
2180.0,75.11139240506327,72.80107999982954,63.71462630568995,69.06118763672843,33.739892363101106,39.08645369413959,30
2240.0,75.41139240506327,73.28481673142504,64.19481379045034,69.18631885940395,34.098497872021085,39.0900029409747,30
2300.0,75.61139240506328,73.62175426514473,64.57839297383937,69.26296448751793,34.3587897776268,39.04336129130536,30
2360.0,75.91139240506327,73.92937876133693,64.72294925698736,69.4155407715655,34.51383798977143,39.20642950434957,30
2400.0,76.01139240506326,74.31771565725779,65.097970984587,69.54622990929289,34.7714857479649,39.2197446726708,30
2500.0,75.51139240506326,73.73923469539564,64.5889061344957,68.91928803930664,34.819946656089,39.150328560899936,30
2580.0,74.11139240506327,72.42090509854098,63.4056234439158,67.75625036913868,34.6646547294023,39.015281654625184,30
2650.0,73.41139240506327,71.68473554036831,62.58119448408233,67.08030903442194,34.604426505946364,39.10354105628598,30
2720.0,73.51139240506326,71.71436408497993,62.414974759430805,67.0596470711614,34.65471701381854,39.29938932554913,30
2800.0,73.91139240506327,72.183276947386,62.887087113153314,67.47211205091308,34.71116489647292,39.29618983423269,30
