Freq,On Axis,Listening Window,Sound Power,Early Reflections,Early Reflections DI,Sound Power DI,DI offset
22.4,24.39999999999999,22.093732158551816,26.437483409780086,24.421460655230547,27.67227150332127,25.65624874877173,30
23.0,24.89999999999999,22.753173849855997,27.311786898969203,25.178653008569697,27.5745208412863,25.441386950886795,30
23.6,25.499999999999986,23.485972843361694,28.385789965181957,26.145140942281714,27.34083190107998,25.100182878179737,30
24.0,25.999999999999986,24.48415074798227,29.226657737230894,27.11532350548937,27.368827242492898,25.257493010751375,30
25.0,26.60000000000001,25.82234556155727,30.1725434638969,28.307600365944907,27.514745195612363,25.64980209766037,30
25.8,27.200000000000003,27.897053482241446,31.559787399883348,30.083986236724897,27.81306724551655,26.3372660823581,30
26.5,27.799999999999997,32.42628764182798,35.106356427218415,34.18853786828883,28.23774977353915,27.319931214609568,30
27.2,28.700000000000003,31.99711531041153,34.019805675225385,33.21472354056807,28.782391769843457,27.977309635186145,30
28.0,29.89999999999999,31.03302865314025,33.03539169147392,32.417400851280505,28.615627801859745,27.99763696166633,30
29.0,31.39999999999999,30.700075691540732,32.81052920378251,32.49008509095283,28.2099906005879,27.889546487758224,30
30.0,32.8,30.419339821246027,32.849072435036575,32.8418940459393,27.577445775306728,27.57026738620945,30
30.7,34.39999999999999,31.517024245455147,33.98004000375401,34.00981802212475,27.5072062233304,27.536984241701134,30
31.5,36.10000000000001,33.37556891397675,35.72063100684959,35.72898684955776,27.646582064418993,27.654937907127163,30
32.5,37.89999999999999,35.44984138553362,37.69636752776593,37.62935691625863,27.820484469274987,27.753473857767688,30
33.5,39.8,37.7560864028478,40.414314292281276,39.85083319413498,27.90525320871282,27.341772110566524,30
34.5,41.499999999999986,40.332937753656964,43.65003064019744,42.399069072368135,27.93386868128883,26.68290711345952,30
35.5,43.2,44.06375199086908,48.15803351316886,46.19858855485846,27.86516343601062,25.90571847770022,30
36.5,44.89999999999999,47.728566092516886,51.14687062574849,49.65851129010103,28.070054802415854,26.581695466768394,30
37.5,46.499999999999986,51.508915919848334,53.5617639651156,53.088594284533144,28.42032163531519,27.947151954732732,30
38.7,48.10000000000001,53.81520865976236,54.387033753062354,54.393329831123324,29.421878828639038,29.428174906700008,30
40.0,49.89999999999999,50.71649412336053,51.84465398557724,51.131262376440134,29.5852317469204,28.871840137783295,30
41.2,51.39999999999999,50.803117017068686,51.882767987277504,50.937145745091186,29.8659712719775,28.920349029791183,30
42.5,52.89999999999999,52.295381791647316,52.660572298392324,52.081037676490624,30.214344115156692,29.63480949325499,30
43.7,54.2,54.17103106045046,53.76251235702948,53.799581707347485,30.371449353102975,30.40851870342098,30
45.0,55.60000000000001,55.72039394076742,55.215075102653486,55.61593551530238,30.10445842546504,30.505318838113936,30
46.2,57.0,56.779404206194314,57.658751075927356,58.189012419341026,28.59039178685329,29.12065313026696,30
47.5,58.39999999999999,57.71630366466458,60.80976025445277,61.664729385500195,26.051574279164385,26.90654341021181,30
48.7,59.7,57.38767525294678,58.18393044975633,58.94523154451366,28.442443708433117,29.203744803190446,30
50.0,61.000000000000014,58.76265791315059,57.970016628784975,58.77497801179318,29.98767990135741,30.792641284365615,30
51.5,62.2,61.31371540340807,58.798007854414976,60.06020773424456,31.25350766916351,32.51570754899309,30
53.0,63.3,62.78108964603635,60.00606860804071,61.36013646816893,31.420953177867418,32.77502103799564,30
54.5,64.4,63.722385450618305,61.31499835587478,62.58833748595903,31.134047964659274,32.40738709474353,30
56.0,65.3,64.61595117370904,62.42680155728003,63.62278443093048,30.993166742778556,32.189149616429006,30
58.0,66.2,65.61841091912372,63.6107003897516,64.59565207052381,31.022758848599906,32.00771052937212,30
60.0,67.2,66.69690032110545,64.79421474728859,65.68030922772203,31.01659109338341,31.902685573816854,30
61.5,68.1,67.69417424518424,65.85689275409565,66.70763910317739,30.986535142006858,31.83728149108859,30
63.0,68.89999999999999,68.4684638827742,66.75243378657947,67.52106660277018,30.947397280004026,31.71603009619473,30
65.0,69.60000000000001,69.1854976960197,67.64246480281312,68.31836951004162,30.867128185978075,31.543032893206572,30
67.0,70.2,69.80969307104588,68.33130848026373,69.01168243118583,30.798010639860053,31.478384590782156,30
69.0,70.7,70.42750536682392,68.93389150681227,69.61862395326935,30.808881413554573,31.49361386001165,30
71.0,71.2,70.97377356417327,69.57290486049368,70.2088991613954,30.764874402777878,31.400868703679592,30
73.0,71.7,71.48238848401479,70.41091229056126,70.95082883927697,30.531559644737825,31.071476193453535,30
75.0,72.10000000000001,72.00154081079943,71.20701532045642,71.63315163322673,30.368389177572695,30.794525490343005,30
77.5,72.40000000000002,72.40179670220472,71.84670039037012,72.14863871720691,30.253157984997813,30.555096311834603,30
80.0,72.6,72.5447289505772,72.32932570425298,72.42408577078713,30.120643179790065,30.215403246324215,30
82.5,72.8,72.80076749445563,72.78883744482935,72.74297835919758,30.057789135258048,30.011930049626272,30
85.0,72.9,72.85686156553042,73.14666926857673,72.95089130933229,29.90597025619813,29.710192296953693,30
87.5,72.9,72.80127325984553,73.33296213448979,73.03451369783356,29.76675956201197,29.46831112535574,30
90.0,72.9,72.87797591781379,73.325938596574,73.07231372015512,29.805662197658663,29.55203732123978,30
92.5,72.9,72.89102441106672,73.1488859785851,73.02837729448757,29.862647116579154,29.742138432481624,30
95.0,72.8,72.9236887632722,72.9160394719209,72.9674875441888,29.956201219083397,30.0076492913513,30
97.5,72.7,72.7563506012561,72.57634731794818,72.76442074030568,29.99192986095042,30.180003283307926,30
100.0,72.6,72.65635060125608,72.43870930366067,72.66793794281918,29.9884126584369,30.217641297595407,30
103.0,72.6,72.71303539338648,72.52193122380852,72.73691422097028,29.9761211724162,30.191104169577955,30
106.0,72.6,72.83588612744607,72.66122442112598,72.85622080848862,29.97966531895746,30.174661706320094,30
109.0,72.7,72.9578600586078,72.6980278052898,72.97332260256671,29.984537456041096,30.25983225331801,30
112.0,72.8,72.98950905739507,72.72735457490964,73.01018668588354,29.97932237151153,30.26215448248543,30
115.0,73.0,73.13409756292211,72.76905347198858,73.099187952105,30.03490961081711,30.365044090933523,30
118.0,73.2,73.37899271118896,72.90252260783164,73.24312820211028,30.135864509078672,30.476470103357315,30
122.0,73.4,73.56717378562654,73.02199095586838,73.35771992312128,30.209453862505256,30.54518282975816,30
125.0,73.59999999999998,73.70077345300582,73.14741077207404,73.44381761946298,30.256955833542847,30.553362680931784,30
128.0,73.7,73.67823306508387,73.1324302520682,73.43455996636784,30.24367309871603,30.54580281301567,30
132.0,73.7,73.72392597415804,73.13168337079826,73.44534813106033,30.278577843097708,30.59224260335978,30
136.0,73.7,73.66743157327174,73.04062812506582,73.3530713459152,30.314360227356545,30.62680344820592,30
140.0,73.59999999999998,73.45687934876847,72.74592360665609,73.09234789891737,30.3645314498511,30.710955742112375,30
145.0,73.4,73.30229639130467,72.2834162647231,72.73978968406097,30.5625067072437,31.018880126581564,30
150.0,73.4,73.2792497982632,72.11157506453323,72.6565205627249,30.6227292355383,31.167674733729967,30
155.0,73.4,73.22445814420117,71.99126907211765,72.57818245344235,30.646275690758813,31.23318907208352,30
160.0,73.4,73.28002695526929,72.01194661206573,72.6044938661443,30.675533089124997,31.268080343203565,30
165.0,73.59999999999998,73.49203842311863,72.146560670872,72.75979787456076,30.73224054855787,31.345477752246623,30
170.0,73.89999999999999,73.69334386593702,72.27122213405234,72.87419141646029,30.819152449476732,31.422121731884687,30
175.0,74.2,73.92831015544647,72.37517877312364,73.00017021051511,30.92813994493136,31.55313138232283,30
180.0,74.3,74.00789341056513,72.31972232453575,72.97106275248123,31.0368306580839,31.688171086029385,30
185.0,74.3,73.98756720128137,72.11814475233832,72.84306450737819,31.144502693903178,31.86942244894304,30
190.0,74.2,73.85255333093842,71.71585730252117,72.55799652362406,31.294556807314365,32.13669602841725,30
195.0,74.0,73.61883774168757,71.29113806364357,72.28631635976366,31.33252138192391,32.327699678044,30
200.0,73.7,73.33079481760016,71.08638884905761,72.08274322982422,31.248051587775947,32.24440596854255,30
206.0,73.4,73.06443609510352,70.59802796528656,71.77530109933863,31.289134995764883,32.466408129816955,30
212.0,73.3,72.90279053944191,70.12988341226962,71.54831508071824,31.35447545872367,32.77290712717229,30
218.0,73.0,72.76389583143099,69.82172982293277,71.3447589621435,31.419136869287485,32.94216600849822,30
224.0,72.7,72.43217568066807,69.35583543298787,70.9247168590717,31.507458821596373,33.07634024768019,30
230.0,72.2,71.88703592431402,68.59849243697983,70.25249881470191,31.63453710961211,33.288543487334195,30
236.0,71.6,71.34410807713074,67.88507990268539,69.61593605436929,31.728172022761456,33.45902817444535,30
240.0,71.39999999999999,71.07919595457635,67.47776804297561,69.28018966511368,31.799006289462667,33.60142791160074,30
250.0,71.6,71.32047706924546,67.62206176163556,69.48581207202209,31.83466499722337,33.69841530760989,30
258.0,72.2,72.00578351092604,68.31287590084318,70.21740843262417,31.78837507830187,33.692907610082855,30
265.0,72.8,72.62621015383257,69.13158285637094,70.99086477549827,31.635345378334307,33.49462729746163,30
272.0,73.0,72.92393742620861,69.68211584246633,71.43745521112277,31.486482215085843,33.24182158374228,30
280.0,73.0,72.97899271118895,69.96793122072133,71.61268019140762,31.36631251978133,33.011061490467625,30
290.0,72.8,72.75660314969004,69.98642234282994,71.49878042940873,31.25782272028131,32.7701808068601,30
300.0,72.7,72.6682049810638,70.1143957871612,71.52280570213124,31.145399278932558,32.553809193902595,30
307.0,72.9,72.85660314969003,70.36118962353505,71.71787752449715,31.138725625192876,32.49541352615498,30
315.0,73.0,73.05635060125609,70.59774607420005,71.94266414989484,31.113686451361247,32.45860452705604,30
325.0,73.0,73.0795012881146,70.8236834938376,72.01544137090379,31.064059917210813,32.25581779427699,30
335.0,73.1,72.97000356382419,70.64817125390222,71.80075785781477,31.16924570600942,32.32183230992197,30
345.0,73.50000000000001,73.15467117415993,70.14055790479334,71.55640582674248,31.598265347417453,33.01411326936659,30
355.0,74.1,73.78862984188471,70.10931493675712,71.91550038773455,31.87312945415016,33.6793149051276,30
365.0,74.4,74.11986874707348,70.56802221716386,72.35776613108195,31.762102615991537,33.551846529909625,30
375.0,74.3,74.04143428344429,70.45396881927537,72.13006413584974,31.911370147594553,33.587465464168915,30
387.0,74.0,73.83815288443361,70.17007858294623,71.87126818287759,31.966884701556026,33.66807430148738,30
400.0,73.89999999999999,73.66363182410124,69.74186615013129,71.60078383480307,32.06284798929818,33.92176567396996,30
412.0,73.89999999999999,73.61296441196055,68.98560816597711,71.34456747275078,32.268396939209765,34.627356245983435,30
425.0,74.0,73.80954282022788,69.12097029299848,71.7094613357815,32.10008148444638,34.6885725272294,30
437.0,74.1,74.03663575667186,69.94580390384851,72.16327913235612,31.873356624315733,34.09083185282334,30
450.0,74.0,73.8715141464299,70.01339137448196,72.10175719289167,31.769756953538234,33.85812277194795,30
462.0,73.50000000000001,73.373318448261,69.59811260386572,71.64997715972294,31.723341288538066,33.77520584439529,30
475.0,73.3,73.18830277171533,69.4452836049931,71.50173335175845,31.686569419956882,33.743019166722235,30
487.0,73.3,73.02816070714056,69.38695315846489,71.38402665727612,31.644134049864434,33.641207548675666,30
500.0,73.2,72.77022877260006,68.94013670198807,71.00437283270232,31.765855939897747,33.830092070612,30
515.0,73.50000000000001,72.99074903797587,68.90046050052406,71.0848010514144,31.905947986561472,34.09028853745181,30
530.0,73.8,73.26935990989948,69.13462205529105,71.4143045491026,31.855055360796882,34.13473785460843,30
545.0,74.3,73.73614873669347,69.71082783258478,72.08717403519219,31.648974701501274,34.02532090410868,30
560.0,74.90000000000002,74.3347038426381,70.16278475886519,72.68047957518904,31.654224267449067,34.17191908377292,30
580.0,75.1,74.56133179396274,70.1634123229847,72.83034117740247,31.730990616560263,34.39791947097804,30
600.0,74.90000000000002,74.59875700383633,70.30612231174005,72.95707797627195,31.64167902756438,34.29263469209627,30
615.0,74.3,74.1565614874471,69.92523104430917,72.49552589762979,31.661035589817317,34.231330443137935,30
630.0,73.8,73.61481005368299,69.29028747901579,71.8216858697789,31.793124183904084,34.3245225746672,30
650.0,73.59999999999998,73.26999534922916,68.95093088871535,71.48455411508192,31.785441234147243,34.319064460513815,30
670.0,73.50000000000001,73.20360631467616,68.96253896520192,71.50724779229083,31.69635852238534,34.24106734947425,30
690.0,73.50000000000001,73.11461446788822,68.47070170974975,71.11202132090874,32.00259314697948,34.64391275813847,30
710.0,73.8,73.35200877790182,68.19887166036526,70.87246372253934,32.47954505536248,35.15313711753656,30
730.0,74.1,73.8478667468218,68.46788386236089,71.11709965888095,32.73076708794085,35.3799828844609,30
750.0,74.3,74.18165670333768,68.50242633284554,71.19052832886882,32.99112837446886,35.679230370492135,30
775.0,74.8,74.34235881594535,68.25624176010965,70.9816201499942,33.360738665951146,36.0861170558357,30
800.0,75.2,74.46601992243683,67.94405512849262,70.81505142573106,33.65096849670577,36.52196479394421,30
825.0,75.5,74.7893189034215,67.96422926636801,71.02105527098651,33.768263632434994,36.825089637053495,30
850.0,75.7,74.99386692341241,67.97634173524027,71.04826952263407,33.94559740077834,37.017525188172144,30
875.0,75.8,74.91539171278687,67.43076846961019,70.63044069950377,34.284951013283106,37.484623243176685,30
900.0,75.8,75.06921315148769,67.43820114456642,70.77887564694235,34.290337504545334,37.63101200692127,30
925.0,75.6,74.91359329023787,67.46311478741639,70.80556793209117,34.108025358146705,37.45047850282148,30
950.0,75.2,74.53198238693808,67.03789872028047,70.34388543509853,34.188096951839555,37.494083666657616,30
975.0,74.90000000000002,74.12835009231182,66.4897607383921,69.72944411028381,34.39890598202801,37.63858935391971,30
1000.0,74.99999999999999,74.14001497657674,66.17224168760453,69.54231528933394,34.597699687242795,37.96777328897221,30
1030.0,75.1,74.32188115607089,66.34711968829859,69.83346933334951,34.488411822721375,37.974761467772296,30
1060.0,74.90000000000002,74.16102955706694,66.24022536794696,69.79062292585536,34.37040663121158,37.92080418911998,30
1090.0,74.5,73.74693566599393,65.67238372809209,69.32833742832896,34.418598237664966,38.074551937901845,30
1120.0,74.2,73.32788292313838,65.23485268731046,68.88135024569046,34.44653267744792,38.09303023582791,30
1150.0,74.2,73.23887916758468,64.88639369986832,68.66482844282267,34.57405072476202,38.35248546771636,30
1180.0,74.2,72.97846811510564,64.4488430799971,68.27833415168993,34.70013396341571,38.52962503510854,30
1220.0,74.3,73.16001141930168,64.54307284857767,68.3699348416201,34.79007657768159,38.61693857072402,30
1250.0,74.3,73.15045900918626,64.81815746471126,68.53422130049073,34.616237708695536,38.332301544475,30
1280.0,74.3,73.07723952441462,64.52132261860955,68.34595175055024,34.73128777386438,38.55591690580508,30
1320.0,74.5,73.34820874258956,65.1624747281842,68.76311304865024,34.58509569393932,38.18573401440537,30
1360.0,74.7,73.43402968472982,65.26014142647578,68.8353807087233,34.598648976006515,38.17388825825404,30
1400.0,74.7,73.58727989640252,65.43432455886536,68.97100985061275,34.616270045789776,38.152955337537165,30
1450.0,74.5,73.7223563582862,65.97632644118558,69.38829489262704,34.33406146565916,37.74602991710063,30
1500.0,74.2,73.24736045384977,65.10046094458725,68.7451917108061,34.50216874304367,38.14689950926251,30
1550.0,73.89999999999999,72.83678910857883,64.76600621214449,68.40226357876797,34.434525529810855,38.07078289643434,30
1600.0,73.8,72.44878070681729,64.02582354438006,67.98907726764155,34.45970343917574,38.42295716243723,30
1650.0,73.50000000000001,72.16493797693785,63.63306011353713,67.87359870348831,34.29133927344954,38.53187786340072,30
1700.0,73.1,71.43309255275707,62.39803848069823,67.06756206484751,34.36553048790957,39.03505407205884,30
1750.0,72.7,70.81044135793472,61.537611602322684,66.34229939229722,34.4681419656375,39.27282975561204,30
1800.0,72.49999999999999,70.3339477385971,60.6633577580246,65.60696750620563,34.72698023239147,39.6705899805725,30
1850.0,72.40000000000002,70.21882547750945,60.7471202167373,65.68581979346544,34.533005684044014,39.471705260772154,30
1900.0,72.40000000000002,70.33045074285498,61.218609350163234,66.10294681390374,34.227503928951236,39.111841392691744,30
1950.0,72.49999999999999,70.40147834159988,61.31054393261597,66.34940236371334,34.052075977886545,39.09093440898391,30
2000.0,73.3,71.2413729710477,62.131876660394894,67.17641521843869,34.064957752609004,39.1094963106528,30
2060.0,74.4,72.32829876728535,63.221339391573665,68.3529762907227,33.97532247656265,39.10695937571168,30
2120.0,75.3,73.12388408432223,64.04506054750436,69.32788962973355,33.79599445458868,39.078823536817865,30
2180.0,75.7,73.38968759476626,64.30323390062667,69.64979523166515,33.739892363101106,39.08645369413959,30
2240.0,76.00000000000001,73.87342432636179,64.78342138538709,69.7749264543407,34.098497872021085,39.0900029409747,30
2300.0,76.2,74.21036186008146,65.16700056877609,69.85157208245465,34.35878977762681,39.043361291305374,30
2360.0,76.5,74.51798635627365,65.3115568519241,70.00414836650225,34.5138379897714,39.20642950434956,30
2400.0,76.6,74.90632325219454,65.68657857952371,70.13483750422961,34.77148574796493,39.21974467267083,30
2500.0,76.09999999999998,74.32784229033238,65.17751372943245,69.50789563424338,34.819946656089,39.150328560899936,30
2580.0,74.7,73.00951269347772,63.99423103885252,68.34485796407543,34.66465472940229,39.0152816546252,30
2650.0,74.0,72.27334313530503,63.16980207901908,67.66891662935866,34.604426505946364,39.10354105628595,30
2720.0,74.1,72.30297167991667,63.00358235436754,67.64825466609814,34.65471701381853,39.29938932554913,30
2800.0,74.5,72.77188454232275,63.47569470809003,68.06071964584983,34.71116489647292,39.29618983423272,30
2900.0,74.8,73.24686977124937,63.92470328653539,68.55406055774331,34.69280921350605,39.322166484713975,30
3000.0,74.99999999999999,73.49795951008996,63.96730050053573,68.66824834172529,34.82971116836467,39.53065900955423,30
3070.0,74.7,73.23740402314057,63.576927751932644,68.28883070933232,34.948573313808254,39.660476271207926,30
3150.0,74.99999999999999,73.48744481505888,63.68744502673175,68.46973537368986,35.01770944136902,39.79999978832713,30
3250.0,75.2,73.82582294439617,63.80484420791018,68.56364471428401,35.262178230112156,40.020978736485986,30
3350.0,75.1,73.69948809354713,63.7193828182795,68.48296379557614,35.21652429797099,39.98010527526763,30
3450.0,74.90000000000002,73.31966443598606,63.17231797938726,68.02044919890443,35.299215237081626,40.1473464565988,30
3550.0,74.4,72.84265236790286,62.86348315391362,67.62559438108252,35.217057986820336,39.97916921398924,30
3650.0,73.8,72.16475516008951,62.13878496988495,66.96007468402023,35.204680476069285,40.02597019020456,30
3750.0,73.50000000000001,71.84879472740492,61.85485322897357,66.57462270605134,35.27417202135358,39.993941498431354,30
3870.0,73.8,72.4217993292188,62.44877073669376,67.10398071193208,35.31781861728672,39.97302859252504,30
4000.0,74.4,73.09059969920254,63.03327897651829,67.84933692517497,35.241262774027575,40.05732072268425,30
4120.0,74.3,73.23951139454071,63.21849417150122,68.08869827379365,35.15081312074706,40.02101722303949,30
