Freq "Rear Wall Bounce"
20.5078 61.89896336890382
23.4375 65.42515468543493
26.3672 68.48951046464575
29.2969 71.56568875065751
32.2266 74.33705748312696
35.1563 76.71985249687276
38.0859 78.67382105234842
41.0156 80.09362508317341
43.9453 81.12228621597261
46.875 81.83569035201536
49.8047 82.37766438737015
52.7344 82.8230927949435
55.6641 83.23285859588347
58.5938 83.6373888876502
61.5234 83.95131921511523
64.4531 84.22748585990178
67.3828 84.56902481594062
70.3125 84.91775573578434
73.2422 85.19868155221833
76.1719 85.49907859841136
79.1016 85.75036126840008
82.0313 85.9550705306412
84.9609 85.99787263861865
87.8906 86.24920573230625
90.8203 86.39741982831288
93.75 86.486447616633
96.6797 86.5346275370876
102.539 86.74381756067864
105.469 86.73117704954964
108.398 86.7681110146634
111.328 86.8697977008402
117.188 86.97609725086572
120.117 87.05405239664154
125.977 86.9079658494312
128.906 86.79600276714297
134.766 86.8537190982826
137.695 86.84665883104186
143.555 86.6473959786145
149.414 86.41792208999665
155.273 86.26845181114369
158.203 86.30497027064831
164.063 86.29262373435859
169.922 86.10763945107985
175.781 85.89465102146433
181.641 85.64996082752057
190.43 85.45319655203058
196.289 85.4322117065653
202.148 85.19084037331146
210.938 84.90004655357461
216.797 84.82532052833541
225.586 84.52468474638238
234.375 84.32090633327324
240.234 84.1229670280911
249.023 83.55082454521161
257.813 83.87726844644924
266.602 83.2308123226625
278.32 83.33166187844006
287.109 83.07298181147252
295.898 82.6772006665375
307.617 82.8867653386979
319.336 82.48441910382326
331.055 82.80046964822951
342.773 82.43967470482879
354.492 81.57403221244401
366.211 81.16801128911513
377.93 81.59641024960149
392.578 81.14561967155745
407.227 80.95440110871257
421.875 80.8651246100658
436.523 81.63418986896644
451.172 81.19947460577532
465.82 81.60485167157401
483.398 80.70016401287138
500.977 80.88899240302493
518.555 80.69774220169876
536.133 79.67848845183978
553.711 79.13170990187358
574.219 79.63605140679104
594.727 79.71307565914142
615.234 79.17873346015145
638.672 81.66141828230872
659.18 82.67024090457159
682.617 82.7206529853584
706.055 82.63114351701151
732.422 82.13171193422218
758.789 81.74550583689516
785.156 80.38494709495666
811.523 79.9820407922059
840.82 80.21068256037167
870.117 79.82882206676543
902.344 78.21313158902403
931.641 76.87066146343818
966.797 75.7094186474048
999.023 75.56984865094557
1034.18 75.71344718836119
1072.27 75.02029011461775
1110.35 74.13379740821163
1148.44 73.46427923583829
1189.45 73.6738090468313
1230.47 73.8283245267674
1274.41 73.65115729241211
1318.36 73.77635440715659
1365.23 73.75573505955664
1415.04 72.89422487687487
1464.84 73.2534930903909
1514.65 73.20204349352355
1570.31 73.1909550339251
1623.05 73.31978755332023
1681.64 73.00655647853367
1740.23 72.60128040462787
1801.76 71.5155039192569
1866.21 70.97000382647593
1930.66 70.59183314702304
2000.98 70.63245910021547
2071.29 71.50946326000809
2144.53 70.99621207284548
2217.77 71.18838485466529
2296.88 71.17542107770362
2378.91 71.75288471471936
2460.94 72.14538880063407
2548.83 72.76173137823437
2639.65 73.20815462889396
2733.4 73.69615374934857
2827.15 73.6396265625833
2926.76 73.2789879197478
3032.23 72.80245263616614
3137.7 72.74205688934542
3249.02 72.93464360837828
3363.28 72.13599189312879
3483.4 72.53623308617054
3606.45 72.20888372940709
3732.42 71.8890221509107
3864.26 72.37721273753036
3999.02 72.76054440525924
4139.65 73.0122420159103
4286.13 73.07889363905392
4438.48 71.70984043835335
4593.75 71.78644702603145
4757.81 71.5832496960734
4924.8 71.30472063676966
5097.66 71.12142934259452
5279.3 70.46795777773472
5463.87 70.56171139411232
5657.23 70.18460280401293
5856.45 70.08054210558015
6061.52 69.49094569978428
6275.39 69.38513238823596
6498.05 69.31076843856296
6726.56 69.3037622210812
6963.87 69.29658424452202
7209.96 68.87979789115477
7464.84 68.66899410301406
7728.52 67.72389908913783
8000.98 67.02658986731512
8282.23 66.95622156960074
8575.2 66.91601094804632
8876.95 66.67475635563912
9190.43 66.19377926504998
9512.7 65.57900450204939
9849.61 64.51536524232475
10195.3 64.4512428712081
10555.7 64.96597180443985
10927.7 64.82850691992702
11314.5 64.61404485239014
11712.9 63.99726802770992
12126.0 64.61387471800188
12553.7 65.34418474170309
12996.1 64.97076563947941
13453.1 64.92184730189969
13927.7 64.87307321298239
14419.9 65.1872814844024
14929.7 65.27078606059182
15454.1 65.42490006821386
15999.0 65.25915483766369
16564.5 64.27737055983832
17147.5 65.08301048565556
17753.9 65.52983721424124
18377.9 65.46418500136824
19028.3 65.31703437470502
19699.2 65.47171247548347
19998.0 65.39425668512682
