Freq "Rear Wall Bounce"
20.5078 61.971494531273805
23.4375 65.49768584780492
26.3672 68.56204162701573
29.2969 71.6382199130275
32.2266 74.40958864549694
35.1563 76.79238365924274
38.0859 78.7463522147184
41.0156 80.16615624554339
43.9453 81.19481737834259
46.875 81.90822151438535
49.8047 82.45019554974013
52.7344 82.89562395731349
55.6641 83.30538975825345
58.5938 83.70992005002019
61.5234 84.02385037748522
64.4531 84.30001702227176
67.3828 84.6415559783106
70.3125 84.99028689815432
73.2422 85.27121271458832
76.1719 85.57160976078134
79.1016 85.82289243077007
82.0313 86.02760169301118
84.9609 86.07040380098863
87.8906 86.32173689467623
90.8203 86.46995099068286
93.75 86.55897877900298
96.6797 86.60715869945759
102.539 86.81634872304862
105.469 86.80370821191963
108.398 86.84064217703339
111.328 86.94232886321018
117.188 87.0486284132357
120.117 87.12658355901152
125.977 86.98049701180119
128.906 86.86853392951295
134.766 86.92625026065258
137.695 86.91918999341185
143.555 86.71992714098448
149.414 86.49045325236663
155.273 86.34098297351368
158.203 86.3775014330183
164.063 86.36515489672857
169.922 86.18017061344983
175.781 85.96718218383431
181.641 85.72249198989056
190.43 85.52572771440056
196.289 85.50474286893528
202.148 85.26337153568144
210.938 84.9725777159446
216.797 84.8978516907054
225.586 84.59721590875236
234.375 84.39343749564323
240.234 84.19549819046108
249.023 83.6233557075816
257.813 83.94979960881922
266.602 83.30334348503249
278.32 83.40419304081004
287.109 83.1455129738425
295.898 82.74973182890749
307.617 82.95929650106788
319.336 82.55695026619324
331.055 82.87300081059949
342.773 82.51220586719877
354.492 81.646563374814
366.211 81.24054245148511
377.93 81.66894141197147
392.578 81.21815083392744
407.227 81.02693227108256
421.875 80.93765577243579
436.523 81.70672103133643
451.172 81.2720057681453
465.82 81.677382833944
483.398 80.77269517524137
500.977 80.96152356539491
518.555 80.77027336406874
536.133 79.75101961420977
553.711 79.20424106424356
574.219 79.70858256916102
594.727 79.78560682151141
615.234 79.25126462252143
638.672 81.7339494446787
659.18 82.74277206694157
682.617 82.79318414772838
706.055 82.70367467938149
732.422 82.20424309659217
758.789 81.81803699926515
785.156 80.45747825732664
811.523 80.05457195457588
840.82 80.28321372274165
870.117 79.90135322913541
902.344 78.28566275139401
931.641 76.94319262580817
966.797 75.78194980977479
999.023 75.64237981331556
1034.18 75.78597835073117
1072.27 75.09282127698773
1110.35 74.20632857058162
1148.44 73.53681039820827
1189.45 73.74634020920128
1230.47 73.90085568913739
1274.41 73.72368845478209
1318.36 73.84888556952657
1365.23 73.82826622192663
1415.04 72.96675603924486
1464.84 73.32602425276089
1514.65 73.27457465589353
1570.31 73.26348619629509
1623.05 73.39231871569021
1681.64 73.07908764090365
1740.23 72.67381156699786
1801.76 71.58803508162688
1866.21 71.04253498884592
1930.66 70.66436430939302
2000.98 70.70499026258545
2071.29 71.58199442237807
2144.53 71.06874323521546
2217.77 71.26091601703527
2296.88 71.2479522400736
2378.91 71.82541587708934
2460.94 72.21791996300405
2548.83 72.83426254060436
2639.65 73.28068579126395
2733.4 73.76868491171855
2827.15 73.71215772495329
2926.76 73.35151908211779
3032.23 72.87498379853612
3137.7 72.8145880517154
3249.02 73.00717477074826
3363.28 72.20852305549877
3483.4 72.60876424854052
3606.45 72.28141489177708
3732.42 71.96155331328069
3864.26 72.44974389990034
3999.02 72.83307556762922
4139.65 73.08477317828029
4286.13 73.1514248014239
4438.48 71.78237160072334
4593.75 71.85897818840144
4757.81 71.65578085844338
4924.8 71.37725179913964
5097.66 71.19396050496451
5279.3 70.54048894010471
5463.87 70.6342425564823
5657.23 70.25713396638291
5856.45 70.15307326795013
6061.52 69.56347686215426
6275.39 69.45766355060594
6498.05 69.38329960093294
6726.56 69.37629338345118
6963.87 69.369115406892
7209.96 68.95232905352475
7464.84 68.74152526538404
7728.52 67.79643025150781
8000.98 67.09912102968511
8282.23 67.02875273197073
8575.2 66.9885421104163
8876.95 66.7472875180091
9190.43 66.26631042741997
9512.7 65.65153566441937
9849.61 64.58789640469473
10195.3 64.52377403357808
10555.7 65.03850296680983
10927.7 64.901038082297
11314.5 64.68657601476012
11712.9 64.0697991900799
12126.0 64.68640588037186
12553.7 65.41671590407307
12996.1 65.0432968018494
13453.1 64.99437846426967
13927.7 64.94560437535237
14419.9 65.25981264677239
14929.7 65.3433172229618
15454.1 65.49743123058384
15999.0 65.33168600003367
16564.5 64.3499017222083
17147.5 65.15554164802555
17753.9 65.60236837661122
18377.9 65.53671616373822
19028.3 65.389565537075
19699.2 65.54424363785346
19998.0 65.4667878474968
