Freq "Side Wall Bounce"
20.5078 53.69640657496808
23.4375 58.24647673941894
26.3672 62.635956520690144
29.2969 66.82234095381865
32.2266 70.44939389374213
35.1563 73.5060287391089
38.0859 75.98492219495898
41.0156 77.79752212650111
43.9453 79.17968985617324
46.875 80.14923997955339
49.8047 80.91655069597783
52.7344 81.54410371466803
55.6641 82.11021436538695
58.5938 82.66033015096056
61.5234 83.08273763643032
64.4531 83.48386887781223
67.3828 83.935306756783
70.3125 84.34120510879733
73.2422 84.69534462571968
76.1719 85.06915208121022
79.1016 85.33295958388791
82.0313 85.6690962209999
84.9609 85.92073588843103
87.8906 86.05621422318347
90.8203 86.06324185364099
93.75 86.3846374271369
96.6797 86.60181017666807
102.539 86.75525687571178
105.469 86.79008810015938
108.398 86.87583768444864
111.328 87.01534159479255
117.188 87.16184903850656
120.117 87.27654335501498
125.977 87.26071963869977
128.906 87.18265628827119
134.766 87.14403416201645
137.695 87.09789206173365
143.555 86.92246375913211
149.414 86.89625878495193
155.273 86.9109003999743
158.203 86.91613425895015
164.063 86.85037271891646
169.922 86.64026410214099
175.781 86.43670195011497
181.641 86.33106263107045
190.43 86.27242424975103
196.289 86.15202878374856
202.148 86.0156750624896
210.938 85.89978504020505
216.797 85.68644423414891
225.586 85.61781347417164
234.375 85.6349866791107
240.234 85.39428898582881
249.023 85.29571904666497
257.813 85.29580021211487
266.602 84.79447209673107
278.32 84.67114058952184
287.109 84.52277443016371
295.898 84.61710852149642
307.617 84.43096642375968
319.336 84.1967981549135
331.055 84.1356246637813
342.773 83.82003008221773
354.492 84.12076703740284
366.211 84.36006349335264
377.93 84.4122816217926
392.578 83.62190768982575
407.227 83.15212235332682
421.875 83.8764628228706
436.523 83.81709926383894
451.172 84.77944205210616
465.82 84.7760963261699
483.398 84.50223123171115
500.977 84.60254618000982
518.555 84.12685742842686
536.133 83.97718970856229
553.711 84.2930080486923
574.219 84.13303576838311
594.727 83.5660675098511
615.234 83.62704268200794
638.672 84.7723187328094
659.18 85.31541020004269
682.617 85.08719407425247
706.055 84.4282484312162
732.422 83.82270488527871
758.789 83.77382372323768
785.156 84.11938980281394
811.523 83.74933121254621
840.82 84.24160967742506
870.117 84.12846591215018
902.344 84.28673423524133
931.641 83.37521383469822
966.797 82.7992772762371
999.023 82.30395893538535
1034.18 82.44744398437604
1072.27 82.04109577680336
1110.35 81.24222840773712
1148.44 81.43982924181978
1189.45 81.73765615006914
1230.47 81.93440965801594
1274.41 82.24381759601017
1318.36 81.87137980240217
1365.23 81.19999733393266
1415.04 80.72654374844832
1464.84 80.79966325868494
1514.65 80.96060311282824
1570.31 80.50813985866762
1623.05 79.86179379611166
1681.64 79.46066451832309
1740.23 80.19016663451035
1801.76 80.3264759918577
1866.21 80.00021447162047
1930.66 79.13619014883199
2000.98 79.59183003286083
2071.29 80.35581799741338
2144.53 80.03476047962579
2217.77 79.38097815472503
2296.88 80.42398146503228
2378.91 81.24087142931629
2460.94 81.25927568752468
2548.83 81.8433056765622
2639.65 83.08548843421046
2733.4 83.48229385803366
2827.15 83.65368676542157
2926.76 83.51214919330015
3032.23 83.19448570079257
3137.7 83.48718457967797
3249.02 83.30606378606089
3363.28 82.91015647665395
3483.4 83.05308492634884
3606.45 82.65280852440492
3732.42 82.49257458313475
3864.26 83.062950690087
3999.02 83.43346603925356
4139.65 83.7740904981683
4286.13 84.12413033457955
4438.48 83.79854384910197
4593.75 83.86585188457121
4757.81 83.80658619924093
4924.8 83.73668226483201
5097.66 83.58087915557732
5279.3 83.24593780557257
5463.87 82.88757307087766
5657.23 82.77145087482673
5856.45 82.99457085069271
6061.52 83.08235047812163
6275.39 83.49090131905409
6498.05 83.65661362193688
6726.56 83.47824141058356
6963.87 83.19368276888717
7209.96 82.811316672262
7464.84 82.74371766276509
7728.52 82.80715387802555
8000.98 83.00626835957945
8282.23 83.22501023256882
8575.2 83.13778643095404
8876.95 82.79534770452771
9190.43 82.38423044322545
9512.7 81.9096370912748
9849.61 81.54796758621048
10195.3 81.54275881301228
10555.7 81.54797161166962
10927.7 81.49837569776366
11314.5 81.13788848129269
11712.9 80.73387588809655
12126.0 81.07217437826331
12553.7 81.41125152319496
12996.1 81.43484768730764
13453.1 81.41813827696603
13927.7 81.33614747301574
14419.9 81.43045215790339
14929.7 81.68619634731871
15454.1 81.89476665647263
15999.0 81.85004072100732
16564.5 80.78798638052784
17147.5 80.96874225205697
17753.9 80.68657364203509
18377.9 79.73888405602531
19028.3 78.78901784055415
19699.2 77.98567015426602
19998.0 77.61005320413082
