Freq,Floor Bounce,Ceiling Bounce,Front Wall Bounce,Side Wall Bounce,Rear Wall Bounce,Total Early Reflection
20.5078,67.47406860456738,65.35483366824454,66.09210681454502,67.15615273424947,70.79790163779018,67.82473041617575
21.9727,69.65970182802945,67.60106039411244,68.3726353864554,69.29124427241202,72.55950540584516,69.85869691714642
23.4375,71.96986514678493,69.85345948916351,70.67818180461276,71.49458928104731,74.40871017392188,71.9757282969797
24.9023,74.28079967923733,72.11136653445605,73.02549776772156,73.66567388348439,76.1136089256865,74.05691022844378
26.3672,76.32415094092639,74.13142837893237,75.0935940238575,75.63809078779474,77.7534236201192,75.96242889459037
27.832,78.19843334946059,75.9704148554203,76.98571111916552,77.43319976335515,79.19583298997016,77.69395724376831
29.2969,79.68168298217205,77.39173881529076,78.45562506462402,78.8605003920567,80.38593174108219,79.0748909190112
30.7617,80.65485346415566,78.32494893676447,79.42749620879887,79.77237721698211,81.05845504318889,79.95121043868834
32.2266,81.22981653744472,78.86761168757363,80.00233254855614,80.30119124803215,81.3903133927784,80.4512553518101
33.6914,81.52809621060284,79.14946043693739,80.30427360135243,80.57513294924203,81.5238535900554,80.70284376515828
35.1562,81.82803982165264,79.40661204697658,80.59363389835434,80.83582979069486,81.6542851216025,80.94678783421087
36.6211,82.01485033045495,79.56670143720662,80.77569025874898,80.99613046432664,81.70798639520457,81.0927848218278
38.0859,82.12955544936962,79.65396503980881,80.88549893428983,81.08363987335282,81.70134812900943,81.16968843971864
39.5508,82.315904835757,79.82419995329086,81.0702869686039,81.24976188353811,81.78936117219347,81.32744669319082
41.0156,82.3973482577977,79.93964312521885,81.17461732567308,81.32837475522199,81.78410101099577,81.39838091893475
42.4805,82.63789941573859,80.06026012118978,81.36416237487494,81.5000897342414,81.87429945855878,81.56604120678114
43.9453,82.79669416342182,80.19171719315905,81.51484865600493,81.63564767148925,81.96011430155389,81.69925693829403
45.4102,82.91855283134616,80.3156221317337,81.6437645762821,81.75550895294477,82.03840571828474,81.8131512956516
46.875,83.07956031405996,80.49801376729634,81.81916908370329,81.92750439262453,82.17928056880966,81.97790827101703
48.3398,83.2574325571134,80.67425125641743,82.00021670510236,82.09816473319651,82.31097943994308,82.14510114430328
51.2695,83.60650654465611,81.01464771143429,82.3541682440574,82.43341790484452,82.57103852531834,82.47279297435604
52.7344,83.76914026736729,81.19764872394414,82.53119975324553,82.60711585678433,82.72371113142648,82.64130808334268
54.1992,83.92645374222558,81.3809958333716,82.70385618239405,82.77752992130475,82.88251154607555,82.8082599730328
55.6641,83.98541473540166,81.52071493951168,82.80662673176353,82.88180931068592,82.98140140259513,82.90460091769081
58.5938,84.6737332914287,82.21459126997807,83.50895304618989,83.5663469229797,83.6022391398011,83.58207550420514
60.0586,84.9397238648158,82.39185506310825,83.73929179778033,83.76228558534505,83.71419970500776,83.78353105915221
62.9883,85.29748935563684,82.70061351167502,84.0838715599679,84.07853302189028,83.94464794015225,84.09848552043289
64.4531,85.41744267582055,82.84195723669288,84.21695389335123,84.21094914828865,84.07542261753082,84.22873219106793
67.3828,85.76531821814062,83.226196961599,84.590358171322,84.57793558647677,84.43675893789593,84.59340683243356
68.8477,86.0218845607887,83.45057496440448,84.83951231993233,84.80829117282424,84.62259352435561,84.82499725299357
71.7773,86.42567751501694,83.85863682714086,85.26078081174668,85.19265971117508,84.90280810686153,85.20574643975245
74.707,86.87360756084233,84.33999200346697,85.73343806713906,85.65134258061275,85.30758130264049,85.65775529078837
77.6367,87.26180333791307,84.75285050011333,86.14365869449547,86.04759437414441,85.66357338299544,86.04978563639285
79.1016,87.48068459252276,84.96550035344785,86.36507206416869,86.26065257419117,85.85973251165666,86.26294676581877
82.0312,87.89422790141512,85.30111535713903,86.75201030778216,86.61916237231459,86.16195597758261,86.62837241678795
84.9609,88.11123095386529,85.57564439866195,86.99603079429859,86.8736593797103,86.43280223003991,86.87661918083795
87.8906,88.2474155524781,85.77487277292333,87.18214366596898,87.05426053432782,86.70349737022376,87.06580691287537
90.8203,88.68964451930704,86.09615311554408,87.5870703698805,87.38612635503024,86.78145340476762,87.39520486464691
95.2148,88.86444211565704,86.36044095398564,87.80962274622513,87.62489489559441,87.13313168447536,87.63713684044639
98.1445,89.05091645814768,86.51755976545475,87.99735912433279,87.78365016029201,87.22569415750884,87.79737835743782
101.074,89.12789211495182,86.57643154049732,88.08568244973569,87.83680995762258,87.23195073948823,87.8569738015964
105.469,89.42069550921028,86.72496862363205,88.34800895950731,88.01659339651637,87.27110766739501,88.05636458586943
108.398,89.5415441557856,86.80643875354124,88.47039576456137,88.09498770758535,87.26150463260421,88.14180476552424
112.793,89.55703738378442,86.88673702086727,88.5294686705448,88.1354763265172,87.23834426299138,88.17498729856781
117.188,89.45955066007154,86.79471381590012,88.45058888298446,88.04645737804779,87.11755991777525,88.08029328102278
120.117,89.48235530434032,86.7399622907931,88.45938419315425,88.03167402624483,87.11296117948363,88.07673303269543
124.512,89.4741742062934,86.88247570930533,88.51200185235159,88.08842124194601,87.27083226134216,88.14387506448179
128.906,89.2358491963778,86.73158710016051,88.32424456493032,87.90801863487853,87.1642613114622,87.96285115499384
133.301,89.16802848571913,86.6589430183922,88.27957745061607,87.82738273796197,87.01111170035499,87.88274506685599
139.16,88.88571280171338,86.25947978282036,87.94403596942927,87.49897031299977,86.61794508570328,87.54406948176809
143.555,88.33637688784864,85.80712587078179,87.47779487362506,87.06137470422479,86.29718718447192,87.08706456287761
147.949,88.34098621955187,85.57036864486723,87.44315943620917,86.87589521531241,85.97496059882202,86.95660023454703
153.809,88.43059431633367,85.31640933318145,87.4496824988939,86.73799039284707,85.49537712830198,86.84664588230801
159.668,87.81841296891126,84.76811603705583,86.89586741227812,86.16681115408637,85.07842908051298,86.29390241214165
165.527,88.16439258296819,84.8052106896376,87.17442211423852,86.21741468004366,84.56582431973652,86.40296331859626
171.387,87.89937992490702,84.596571058921,86.83946274474489,86.00275853505381,84.19300476442878,86.12496736003425
177.246,86.32699243810258,84.15757170189426,85.68284998538482,85.12267881707608,84.31123264802558,85.19806501831366
183.105,86.27284815699585,84.61388831809587,86.268416787598,85.32344393398732,84.87474950656443,85.52583686947871
188.965,88.24658679710124,85.3569361014757,87.93424691298405,86.61193169697133,84.61890108053234,86.77719663440169
196.289,88.88474711641524,84.13431690559243,87.64731893441426,86.07091284569557,82.54720501569155,86.4321189153656
203.613,88.14211528802268,83.96104572382956,86.83954740568741,85.33012965948966,82.83081543830073,85.83653464910776
210.938,87.07550530731042,84.89600142537381,86.70438235655664,85.35935834832442,82.76843465126805,85.6100659180179
218.262,86.9504683644311,84.74034224403088,86.75897168666943,85.50441113635895,82.67780751597256,85.58214494234872
225.586,86.88344749751916,84.4699278252312,86.6824986604373,85.43558510247051,83.24706006937981,85.5496345277834
232.91,87.12825592311222,84.67558530065776,86.94947725913924,85.58106308164922,82.7765422635013,85.69627637614855
241.699,86.70253363291987,83.92960091228184,86.59661623800093,85.2545114750999,82.46934673647634,85.27315546372566
250.488,86.7888873920527,83.6194618845438,86.52434599630526,85.08045206047582,82.67829319787596,85.22219342751485
259.277,87.42892415974427,83.58047391832915,86.85602265617614,84.72587721297815,82.92768874767403,85.46353263157336
268.066,89.10922517303113,84.66395719036304,88.12332767560017,85.99629628414073,82.25095463898847,86.66902962368472
276.855,88.73663580816411,83.79543594162095,87.48556255027528,85.36152756525608,80.92512148099304,86.053300250346
287.109,88.13305365632766,84.27988173967701,87.21099688901067,85.22734625339017,81.0777494805467,85.81158337243308
297.363,86.09778069661141,82.86391506129375,86.06326268743868,84.6591424643626,82.21007667917335,84.66331813337005
307.617,86.61262826644443,83.69441548496656,86.97429340198173,85.45218381862523,81.86993606564481,85.30330797608653
319.336,86.30668923264084,83.84372606052789,86.73779736074097,85.50796129087864,82.67852331032945,85.26888524084629
329.59,86.27621689432367,83.62316455278483,86.66280267108374,85.39442136019326,82.29014053093633,85.14292382872283
341.309,86.78966371076066,83.32890577153599,87.05986496421282,85.82844692801,82.5212918937642,85.47097429935589
353.027,86.87342817339729,83.70363248286205,87.41278751746913,86.02760532403994,82.4043888115693,85.67537620076766
366.211,87.07791908686798,83.72967693684414,87.62715143335863,86.49727938475097,82.72747749497289,85.9309411972806
379.395,86.1287527370452,83.59321454397228,87.04996324337318,85.9171259603401,82.23180377797648,85.32388108725196
392.578,86.01284363397035,84.26171331991661,87.50480135288237,86.1687799478553,81.78949699125096,85.54831768523479
405.762,85.96526099325327,83.52406474279762,87.32466466892615,86.26552315150656,82.13240884595639,85.43259302016676
420.41,85.70066451005617,83.4696485141386,87.3974089498533,86.28156802864082,82.11170290426075,85.39204037539685
435.059,86.39301181698781,82.69984650819676,87.70954157588163,86.80537971525703,82.47089835924761,85.72411189383382
451.172,86.24858361079072,83.10401905056786,87.81184634508168,86.97414728327072,82.70909499493548,85.83184933936342
465.82,84.90489089144701,83.78141307472292,87.61996091387174,86.76864915632765,82.99170289225012,85.56461771006039
483.398,83.94623156155373,83.87781828122193,87.38127697585821,86.3792728445007,82.58265390263819,85.19874521077931
499.512,84.69212877485387,83.55663032440626,87.58068712466769,86.47540335770181,81.84177041616233,85.29241252954614
517.09,83.53514736808367,83.06287049351981,86.98754553467364,86.06821149209418,82.00809273316987,84.74528956504228
536.133,84.59606458188529,82.44282405326513,87.5236868578008,85.75458774430518,81.71517876764094,84.92403916954808
555.176,83.9890062670038,83.15876709280434,87.60292699962669,86.12438915641088,81.3748231259783,84.99756302802349
574.219,82.08027995489525,82.84019026483575,86.75366999575469,84.97137701474703,81.47349781439466,84.08870585945415
594.727,83.12000068662947,81.89165808295742,87.25774908805664,85.19906267202768,80.39140137468858,84.2554199624349
615.234,82.27926256502808,81.7489339872789,87.00199644263373,85.2283747362311,79.71415615906895,83.96879628095571
637.207,81.32035633491807,81.67657793554612,86.38140589674067,84.07014526433508,79.56574333921407,83.27587547973098
659.18,80.55994190854751,80.58897091146429,86.59745467200254,84.16400670606193,78.73015019471704,83.0988943120447
682.617,81.68611660984419,80.87461683785645,87.39552532304987,84.6441099444102,80.17666267020452,83.85328310526772
707.52,81.83916763683716,82.5647887474859,87.09812525222584,83.84644306987977,79.86757539225695,83.74868262267317
732.422,81.58422790715986,82.09289823678697,87.16204361664859,83.81556563070457,78.85701775767741,83.59373105742296
757.324,79.05977756127402,80.53249814220419,86.39935665997915,83.1060269963648,78.09028613198609,82.54745240665048
785.156,80.46885454941585,78.66827055697148,86.41288613119444,82.95017303670329,76.46650053453261,82.37734550628599
811.523,78.97345394937733,76.29420953079918,85.67602001195101,82.46000935942698,76.83167169864754,81.55609661479185
840.82,80.26435382597624,77.14470745047016,85.65211609887628,81.99063534857974,75.30462457965493,81.56926115550066
870.117,77.68608283999988,75.54449484122752,84.67572234995588,81.8048852237993,76.48445030045757,80.67482732386917
900.879,78.49819940158189,75.9352865972671,84.50649152237433,81.42133215940741,74.34271797085651,80.47778233207465
933.105,81.5043700524627,80.63882150786925,81.83341953060982,79.87300402995844,76.68302584799011,80.44129408871828
965.332,78.56950459441126,80.46493679858673,81.73250498047854,79.58148526757253,76.0889654817265,79.67272810821075
1000.49,81.67453450325486,79.0409374675313,82.25919227874834,79.39252803472317,74.95479989370278,80.1174743169353
1035.64,83.3109067172857,80.61275467263555,82.98325333319904,80.16658464604085,75.73933848868546,81.26875951831133
1072.27,78.59422186930264,80.9545642921864,84.76858197829198,81.12547975961593,75.64009327541014,81.2252745613237
1108.89,80.69247695060974,80.75436652765042,84.28354862931032,80.61389209717406,72.9417613077865,81.06708946140893
1148.44,82.2966384611844,77.49151199171988,84.40852645233224,79.02988630530496,72.59807948024496,80.79146307773794
1189.45,82.44606539411004,73.0489763941809,83.99549267745071,78.49989510612214,73.46604092587089,80.33219321966699
1230.47,80.12996242435291,79.96347836875388,84.858566362621,81.21880212358711,74.1610508021314,81.25000223867683
1274.41,79.79050142665152,79.82560181460998,84.24451326821038,80.84997305988718,71.80813766970769,80.74723523130528
1319.82,77.53343171878032,78.25751771337882,83.93781736335492,80.9412565198158,70.88470288996302,80.0663475760126
1366.7,78.29576906879308,78.94106811626739,84.29502890449326,80.36520277943478,70.63605366091913,80.29465201836524
1413.57,78.48357301017485,78.48381862601848,83.76945704816283,79.37065449447732,71.82432545610196,79.83167147424348
1463.38,79.27334889694026,78.63051073540558,84.53480034409733,79.64409969558555,71.45998289123918,80.39636867487222
1516.11,78.13909530679535,77.14846376517285,85.24475798174122,80.55003987414219,72.5479584668316,80.66739276899638
1568.85,78.30930404759593,76.47878874953709,85.61351323156632,80.97434242714404,72.69311963668419,80.93530900643178
1624.51,78.69800671045095,75.63317783059229,85.59284498290027,80.57736300798689,72.49846125493339,80.82899189239004
1681.64,78.97587799997639,75.18203317669649,85.41375109857793,80.61266865384067,72.51720849591035,80.73945440661251
1741.7,77.92287699306281,73.10966705889004,85.71363116942004,80.62769893841869,72.94367787660973,80.72173953826304
1803.22,76.65680443848682,71.10193743163616,86.48028616972206,81.4034044143756,72.69364487918553,81.20968389976451
1866.21,76.72499280453407,67.4809190593514,86.52634605109252,81.51392821704566,73.57229144076311,81.2483946106684
1932.13,78.00615605451397,66.07650300567694,85.87472343119803,81.07477130879742,72.77540755412655,80.79940782734477
1999.51,77.16112534620758,70.5470847493091,85.7498044706863,80.92869770302461,73.01060914704571,80.66713442800635
2069.82,78.30232023116146,73.13407735868626,86.62519036397627,81.89159944634244,73.42921529410202,81.61114799207635
2143.07,78.85654200647318,75.61476925938737,86.38213167707025,81.79960501616479,73.04150919103958,81.58056851513906
2219.24,79.84957963875738,77.33569308023593,85.7360002542742,81.64646142537062,73.20105428403681,81.41366096567872
2296.88,79.9009503495655,79.00164238864222,85.73008923835137,81.9838367267805,73.05748305730155,81.64022716951983
2378.91,80.82350216948502,79.67205682405006,86.81997380397692,83.02656983555076,73.66205995012956,82.64076627054742
2462.4,81.56285264896378,80.57227236801033,85.7517442449559,82.66854348802008,73.26512038808227,82.2502968450645
2548.83,81.10727719555656,81.14756431005478,85.64312328360509,82.25111247291512,72.8115147850594,82.11128241710772
2639.65,81.42639994189014,81.51141636732082,86.87232567160264,83.66505590721377,73.61859203073347,83.10788698017399
2731.93,81.50276004687487,81.71388285497821,86.57706881144543,83.4038039883171,73.09800093376258,82.93930148524849
2828.61,81.1137865632259,81.76890216475194,85.88368149046833,82.55217254546893,71.94030898065907,82.36893071581076
2928.22,81.14076592118006,81.23365356250862,86.19558419728294,82.67353476743739,71.58464614782415,82.44928746930402
3030.76,81.12052273695924,81.28896350136485,86.43748904289639,83.03139904047468,71.6308743605009,82.64733239331171
3137.7,81.54649960935565,81.76348178316482,85.9187064702527,82.30065578865795,71.13818548947489,82.38765389343331
3249.02,81.83546366689065,82.37961481631541,85.93625172572638,82.1932889694324,70.19810409268162,82.52386352126604
3363.28,81.89573149954704,82.36777333237977,86.09595008822482,82.50212168623315,70.80233254090726,82.66781551734228
3481.93,82.5200320001175,82.26573893676519,85.89643255483854,82.55502438437996,70.84470786038634,82.6862853841193
3604.98,82.76081602613503,81.82298264364447,86.27314813304564,82.60592685255169,70.33501093268303,82.82379417562005
3732.42,82.95528710098621,81.24969102586559,86.7493759234403,82.81091333068414,71.17411610949817,83.04506985537988
3864.26,82.67025021829096,80.78128041209166,87.01258226733678,82.69022763157885,70.66511945169654,83.03080834465769
4000.49,83.2597663063915,80.92455081450191,86.91656851240839,82.4330426250143,70.28569715327856,83.06633960908721
4141.11,83.34148986681416,80.90792008344675,87.03710512891432,82.60212613721673,70.81780085368274,83.17527963619419
4287.6,83.64202494613572,80.54765667114607,86.16430500794192,82.17578833702272,70.46467432916656,82.7155197332023
4438.48,83.8716688508381,80.15018769572099,85.17137171640958,81.74177032611637,70.01496553814012,82.23092768916452
4595.21,83.84719729234457,80.60921931862859,84.64496160947057,80.62615711721445,68.74781385542168,81.88631763184762
4756.35,83.90361451015688,80.87479253342302,84.52047923642124,80.010580253888,67.60567585231472,81.80221346413222
4924.8,83.56299515898446,80.92884862250854,84.96200056779007,79.86809870280223,67.00806180197732,81.85537931419384
5097.66,83.6482854218172,80.88321062816166,84.56667985422187,79.35369620783307,66.31904770024394,81.64862005879611
5277.83,83.6213289925554,80.69630994284304,84.9317565810777,79.99588509233136,66.54738885922227,81.83738484845212
5463.87,83.8900928905873,80.62775611526996,84.52576433150486,79.59512251312515,66.06068170620038,81.69741499121348
5657.23,83.77716250832958,80.74420760461928,84.65332169012211,79.87577059481804,66.6687353897283,81.7673165751872
5856.45,83.72805665898179,80.82128411285265,84.81482793111115,79.66542978265555,66.19230016894485,81.79858536564767
6062.99,83.68052975231319,80.8314634162156,84.95424853057106,79.41895990122185,66.04648575418939,81.81208894805803
6276.86,83.51149931402576,80.28104220564242,84.48863960591079,79.1221268489002,65.50106346810385,81.44574293732647
6498.05,83.26132680564042,80.13058526267056,83.79740821569781,79.15911094557185,65.0705688015489,81.07416576995172
6726.56,83.28670493971661,80.19562076730635,83.65517628108633,79.33737225101689,64.92859168853336,81.06344570945957
6963.87,83.28299084437714,80.34717857926292,83.64519938098834,79.20074250649765,64.44543487172463,81.0635414215107
7209.96,83.23415320700663,80.04979156357619,84.07043280775379,79.29736467152973,64.95431910583211,81.17416577860762
7464.84,83.2019120394031,80.09780505435886,84.2788827551792,79.23073643764302,64.7511938459493,81.24439313955926
7727.05,83.29321336886018,80.24613284212532,84.20226390156371,79.24263154243707,64.73797128553637,81.26736087980672
7999.51,83.41230369045658,80.29451666489027,84.61211974372824,79.24603181044385,64.52931281245827,81.47690432754177
8282.23,83.65768656779724,79.89038725246424,85.16101601711402,79.43622515183353,64.23557752897277,81.75110084914265
8573.73,84.24641391209302,79.86635872917506,85.56649938369753,79.27255535050311,63.641739976717005,82.0951570950074
8876.95,84.42492163657182,79.95130936719531,85.616263282531,79.17554477269123,62.87708274790144,82.17474560740133
9188.96,84.4048250843958,79.66307066406834,85.78182552985335,79.06578695464316,63.67208608460176,82.20024568157602
9514.16,84.19600270938794,79.55018373668518,85.8917053683299,79.02143937442786,63.318287900201724,82.16546681024224
