Freq "Ceiling Bounce"
20.5078 65.35483366824452
21.9727 67.60106039411242
23.4375 69.85345948916353
24.9023 72.11136653445605
26.3672 74.13142837893238
27.832 75.97041485542029
29.2969 77.39173881529075
30.7617 78.32494893676447
32.2266 78.86761168757363
33.6914 79.14946043693739
35.1562 79.40661204697656
36.6211 79.56670143720663
38.0859 79.65396503980881
39.5508 79.82419995329084
41.0156 79.93964312521884
42.4805 80.06026012118978
43.9453 80.19171719315906
45.4102 80.31562213173372
46.875 80.49801376729633
48.3398 80.67425125641745
51.2695 81.01464771143429
52.7344 81.19764872394414
54.1992 81.38099583337159
55.6641 81.52071493951169
58.5938 82.21459126997806
60.0586 82.39185506310824
62.9883 82.700613511675
64.4531 82.84195723669288
67.3828 83.22619696159902
68.8477 83.45057496440447
71.7773 83.85863682714086
74.707 84.33999200346696
77.6367 84.75285050011334
79.1016 84.96550035344785
82.0312 85.30111535713903
84.9609 85.57564439866196
87.8906 85.77487277292335
90.8203 86.09615311554408
95.2148 86.36044095398566
98.1445 86.51755976545473
101.074 86.57643154049734
105.469 86.72496862363205
108.398 86.80643875354123
112.793 86.88673702086729
117.188 86.79471381590011
120.117 86.7399622907931
124.512 86.88247570930534
128.906 86.73158710016052
133.301 86.6589430183922
139.16 86.25947978282036
143.555 85.8071258707818
147.949 85.57036864486724
153.809 85.31640933318144
159.668 84.76811603705585
165.527 84.80521068963759
171.387 84.596571058921
177.246 84.15757170189424
183.105 84.61388831809587
188.965 85.3569361014757
196.289 84.13431690559241
203.613 83.96104572382956
210.938 84.89600142537383
218.262 84.74034224403087
225.586 84.46992782523118
232.91 84.67558530065776
241.699 83.92960091228183
250.488 83.61946188454381
259.277 83.58047391832915
268.066 84.66395719036305
276.855 83.79543594162094
287.109 84.27988173967702
297.363 82.86391506129377
307.617 83.69441548496654
319.336 83.8437260605279
329.59 83.62316455278481
341.309 83.32890577153599
353.027 83.70363248286205
366.211 83.72967693684414
379.395 83.59321454397227
392.578 84.2617133199166
405.762 83.52406474279762
420.41 83.4696485141386
435.059 82.69984650819674
451.172 83.10401905056786
465.82 83.78141307472292
483.398 83.87781828122192
499.512 83.55663032440624
517.09 83.06287049351981
536.133 82.44282405326514
555.176 83.15876709280433
574.219 82.84019026483577
594.727 81.8916580829574
615.234 81.74893398727889
637.207 81.6765779355461
659.18 80.58897091146429
682.617 80.87461683785645
707.52 82.56478874748592
732.422 82.09289823678697
757.324 80.53249814220419
785.156 78.66827055697149
811.523 76.29420953079917
840.82 77.14470745047016
870.117 75.54449484122753
900.879 75.93528659726708
933.105 80.63882150786925
965.332 80.46493679858673
1000.49 79.04093746753131
1035.64 80.61275467263555
1072.27 80.95456429218642
1108.89 80.7543665276504
1148.44 77.49151199171988
1189.45 73.0489763941809
1230.47 79.96347836875387
1274.41 79.82560181460997
1319.82 78.2575177133788
1366.7 78.94106811626739
1413.57 78.48381862601846
1463.38 78.63051073540558
1516.11 77.14846376517286
1568.85 76.4787887495371
1624.51 75.6331778305923
1681.64 75.18203317669648
1741.7 73.10966705889004
1803.22 71.10193743163614
1866.21 67.4809190593514
1932.13 66.07650300567695
1999.51 70.54708474930908
2069.82 73.13407735868626
2143.07 75.61476925938737
2219.24 77.33569308023593
2296.88 79.00164238864222
2378.91 79.67205682405006
2462.4 80.57227236801033
2548.83 81.14756431005478
2639.65 81.51141636732083
2731.93 81.7138828549782
2828.61 81.76890216475192
2928.22 81.23365356250864
3030.76 81.28896350136485
3137.7 81.7634817831648
3249.02 82.37961481631542
3363.28 82.36777333237978
3481.93 82.26573893676517
3604.98 81.82298264364448
3732.42 81.24969102586559
3864.26 80.78128041209166
4000.49 80.92455081450191
4141.11 80.90792008344677
4287.6 80.54765667114609
4438.48 80.15018769572097
4595.21 80.60921931862858
4756.35 80.87479253342302
4924.8 80.92884862250854
5097.66 80.88321062816166
5277.83 80.69630994284304
5463.87 80.62775611526995
5657.23 80.74420760461928
5856.45 80.82128411285265
6062.99 80.8314634162156
6276.86 80.28104220564244
6498.05 80.13058526267056
6726.56 80.19562076730637
6963.87 80.34717857926293
7209.96 80.04979156357619
7464.84 80.09780505435884
7727.05 80.24613284212533
7999.51 80.29451666489027
8282.23 79.89038725246424
8573.73 79.86635872917506
8876.95 79.95130936719532
9188.96 79.66307066406834
9514.16 79.5501837366852
9849.61 79.46072038716642
10196.8 78.93719006262731
10555.7 78.91754462076338
10927.7 78.70768639019366
11313.0 78.75200465594742
11712.9 78.92434322800376
12126.0 79.23593341292815
12553.7 79.47264321689829
12996.1 79.42527616651711
13454.6 79.54903453415626
13929.2 79.66098748847577
14419.9 79.9204108122741
14928.2 79.87087542378595
15455.6 79.5740056304615
16000.5 79.43088454834468
16564.5 79.22365745822009
17148.9 78.94770208601527
17752.4 78.79483952531673
18379.4 78.97008673007903
19026.9 79.4554723758123
19697.8 80.32597653475676
19999.5 80.58319933461902
