Freq "Sound Power"
22.4 2.302997139931108
23.0 2.934747627072852
23.6 3.542598872884952
24.0 4.221772857482534
25.0 4.895316864563085
25.8 5.49780481408294
26.5 6.488476240895437
27.2 10.22596884792955
28.0 12.991163220758523
29.0 15.012925000875441
30.0 17.022849106548108
30.7 19.332046623937885
31.5 21.15824967726465
32.5 22.72515644688781
33.5 24.526483108462145
34.5 26.083085998406574
35.5 27.511941517378602
36.5 29.370567435261222
37.5 30.973906307202355
38.7 32.599627518695314
40.0 34.64122081519176
41.2 36.28152699838557
42.5 38.1998843722607
43.7 39.988471837485065
45.0 41.62494683042482
46.2 43.34841565680762
47.5 44.84377972312717
48.7 46.37911260667509
50.0 47.76653512586341
51.5 49.21868254123427
53.0 50.54596235167966
54.5 51.98077726311121
56.0 53.30536927759931
58.0 54.80455792607685
60.0 56.08087659429644
61.5 57.20585214362113
63.0 58.36943350793473
65.0 59.54190431557524
67.0 60.67172370613976
69.0 61.751475175587714
71.0 62.74741925701126
73.0 63.65774067532659
75.0 64.48610463678507
77.5 65.22376719642884
80.0 65.82421656065736
82.5 66.2738926484804
85.0 66.55912031455921
87.5 66.68322987766132
90.0 66.69966938664265
92.5 66.7302252219007
95.0 66.6945466650859
97.5 66.62216629608935
100.0 66.5305174452156
103.0 66.4304390853191
106.0 66.32829883621558
109.0 66.27325841914173
112.0 66.33358678077033
115.0 66.37192586463884
118.0 66.26472831112683
122.0 66.13984433684881
125.0 66.34993723600508
128.0 66.81323731695136
132.0 67.09823550192881
136.0 67.11495565222454
140.0 67.29945059620326
145.0 67.68725174219642
150.0 68.00420633023202
155.0 68.2525465357568
160.0 68.40031668513585
165.0 68.5177368947117
170.0 68.54857171126798
175.0 68.31341133417456
180.0 67.99975216004451
185.0 68.15531965528655
190.0 67.87847039358309
195.0 67.72392889557366
200.0 68.54498806981707
206.0 68.54871082036385
212.0 68.45628141780318
218.0 68.50037983795747
224.0 68.032841478091
230.0 67.74671666932649
236.0 67.56536909760685
240.0 67.6431526223161
250.0 67.80551671218765
258.0 67.79679020473155
265.0 67.38029929781973
272.0 67.56312289318818
280.0 67.31522719871502
290.0 68.232223175332
300.0 68.80656583605267
307.0 68.2200933706564
315.0 68.3404980447032
325.0 68.42393760181257
335.0 68.16578176389429
345.0 68.190264228465
355.0 68.28333348289141
365.0 68.25207582758054
375.0 68.35583137110778
387.0 68.29258090125631
400.0 68.2601897493256
412.0 68.55157712881538
425.0 68.43459365010939
437.0 68.46013952928776
450.0 67.82937300673532
462.0 67.31601741330701
475.0 66.2169285249198
487.0 64.82448057746468
500.0 64.51069664148032
515.0 64.37492503191822
530.0 63.876588492882476
545.0 63.255750540953755
560.0 62.835753011674896
580.0 62.82923293804333
600.0 63.207918985953896
615.0 63.6642313752905
630.0 64.05353633902237
650.0 64.22932184312242
670.0 64.2539172399666
690.0 64.10760945781723
710.0 63.90276396344015
730.0 64.98045416276784
750.0 66.70740076080486
775.0 66.81639386536335
800.0 66.25255668020402
825.0 65.66112486514942
850.0 65.19928162582647
875.0 64.74210885398028
900.0 64.1303574968261
925.0 63.32738474699103
950.0 62.229174083277286
975.0 61.04014599348143
1000.0 60.61095110790434
1030.0 61.385723539538475
1060.0 62.766136670975044
1090.0 63.71213322833532
1120.0 63.96612392130858
1150.0 64.00722721403721
1180.0 63.88765620005586
1220.0 63.10516392842881
1250.0 62.235591493860994
1280.0 62.54666211740944
1320.0 62.75549445937247
1360.0 62.2824689983716
1400.0 62.54436715241303
1450.0 62.96192022381385
1500.0 62.61481893338541
1550.0 62.81610354444254
1600.0 63.0241659551164
1650.0 62.3394012832739
1700.0 62.08184621146401
1750.0 62.13976055606349
1800.0 61.06899961293183
1850.0 60.94756832225164
1900.0 61.21705096057312
1950.0 60.36529936583955
2000.0 60.224334410114835
2060.0 60.020188065742005
2120.0 60.54431327733985
2180.0 60.392421348532366
2240.0 60.79778331777064
2300.0 61.28228431031428
2360.0 61.30352368779067
2400.0 61.54473029611087
2500.0 61.9058291337478
2580.0 61.534610785812546
2650.0 62.647377126320606
2720.0 62.240420122652736
2800.0 63.76631095126865
2900.0 64.65435724504634
3000.0 64.27272790911748
3070.0 64.9118349068407
3150.0 65.27403970989131
3250.0 64.5538328213858
3350.0 63.332653161168736
3450.0 63.294883396620676
3550.0 61.87969312687751
3650.0 61.553871180317174
3750.0 62.696204333569256
3870.0 64.59359828726784
4000.0 65.95758646605674
4120.0 68.56444353946145
4250.0 70.2525789399835
4370.0 67.42797315361773
4500.0 65.94487468636065
4620.0 64.94532422171844
4750.0 65.79532740188168
4870.0 66.13803428438717
5000.0 65.96907545453811
5150.0 64.95326839463308
5300.0 64.92766583623612
5450.0 66.0291426764133
5600.0 65.95047764504524
5800.0 65.75678849252546
6000.0 63.498277678449114
6150.0 63.59103031144349
6300.0 63.20868924718167
6500.0 62.438495850241196
6700.0 62.36548397906509
6900.0 62.0100864829469
7100.0 62.01368780001236
7300.0 62.227545893632595
7500.0 62.28358561673413
7750.0 62.07166086046129
8000.0 61.3563558402665
8250.0 60.59493467197004
8500.0 59.356955144582926
8750.0 60.13854801789407
9000.0 61.052246544439186
9250.0 61.28841238269439
9500.0 60.66347064128219
9750.0 59.39065060735365
10000.0 59.34719193838619
10300.0 62.07207450883426
10600.0 64.01880243483016
10900.0 63.012522887949146
11200.0 61.08375971894574
11500.0 60.68736622608239
11800.0 61.21146573473443
12200.0 59.628068451769906
12500.0 57.44184239691816
12800.0 57.69675388624863
13200.0 59.424901362075346
13600.0 59.898577584513475
14000.0 58.28177207531455
14500.0 56.89306564857307
15000.0 55.25809602398462
15500.0 52.36772845655611
16000.0 51.11152241659741
16500.0 51.55408658807934
17000.0 50.01407316909241
17500.0 48.40709718154183
18000.0 48.959649334721746
18500.0 47.44050528263779
19000.0 43.855210891441345
19500.0 42.72615999241091
