Freq "Sound Power"
22.4 2.3599591652475738
23.0 2.991709652389318
23.6 3.599560898201389
24.0 4.278734882799
25.0 4.952278889879551
25.8 5.554766839399349
26.5 6.545438266211846
27.2 10.282930873245988
28.0 13.048125246074989
29.0 15.069887026191878
30.0 17.079811131864545
30.7 19.389008649254322
31.5 21.215211702581087
32.5 22.782118472204246
33.5 24.583445133778582
34.5 26.14004802372301
35.5 27.56890354269504
36.5 29.42752946057766
37.5 31.030868332518793
38.7 32.65658954401175
40.0 34.698182840508196
41.2 36.33848902370201
42.5 38.256846397577135
43.7 40.0454338628015
45.0 41.681908855741284
46.2 43.405377682124055
47.5 44.90074174844361
48.7 46.436074631991545
50.0 47.82349715117985
51.5 49.27564456655071
53.0 50.6029243769961
54.5 52.03773928842766
56.0 53.36233130291575
58.0 54.86151995139328
60.0 56.137838619612864
61.5 57.26281416893757
63.0 58.42639553325117
65.0 59.598866340891675
67.0 60.72868573145618
69.0 61.80843720090414
71.0 62.8043812823277
73.0 63.71470270064303
75.0 64.5430666621015
77.5 65.28072922174528
80.0 65.8811785859738
82.5 66.33085467379684
85.0 66.61608233987565
87.5 66.74019190297774
90.0 66.75663141195909
92.5 66.78718724721713
95.0 66.75150869040233
97.5 66.67912832140577
100.0 66.58747947053203
103.0 66.48740111063552
106.0 66.38526086153202
109.0 66.33022044445818
112.0 66.39054880608677
115.0 66.42888788995526
118.0 66.32169033644327
122.0 66.19680636216525
125.0 66.40689926132151
128.0 66.87019934226782
132.0 67.15519752724526
136.0 67.17191767754097
140.0 67.3564126215197
145.0 67.74421376751286
150.0 68.06116835554846
155.0 68.30950856107324
160.0 68.4572787104523
165.0 68.57469892002814
170.0 68.60553373658442
175.0 68.37037335949101
180.0 68.05671418536095
185.0 68.21228168060298
190.0 67.93543241889952
195.0 67.78089092089009
200.0 68.6019500951335
206.0 68.60567284568029
212.0 68.51324344311962
218.0 68.5573418632739
224.0 68.08980350340744
230.0 67.80367869464291
236.0 67.62233112292327
240.0 67.70011464763255
250.0 67.86247873750409
258.0 67.85375223004797
265.0 67.43726132313616
272.0 67.62008491850462
280.0 67.37218922403146
290.0 68.28918520064846
300.0 68.8635278613691
307.0 68.27705539597284
315.0 68.39746007001963
325.0 68.480899627129
335.0 68.22274378921071
345.0 68.24722625378143
355.0 68.34029550820784
365.0 68.30903785289696
375.0 68.41279339642422
387.0 68.34954292657277
400.0 68.31715177464204
412.0 68.60853915413182
425.0 68.49155567542583
437.0 68.5171015546042
450.0 67.88633503205176
462.0 67.37297943862345
475.0 66.27389055023623
487.0 64.8814426027811
500.0 64.56765866679676
515.0 64.43188705723466
530.0 63.93355051819893
545.0 63.31271256627019
560.0 62.89271503699132
580.0 62.886194963359785
600.0 63.26488101127032
615.0 63.721193400606936
630.0 64.11049836433881
650.0 64.28628386843886
670.0 64.31087926528303
690.0 64.16457148313367
710.0 63.95972598875659
730.0 65.03741618808428
750.0 66.76436278612131
775.0 66.8733558906798
800.0 66.30951870552047
825.0 65.71808689046586
850.0 65.25624365114292
875.0 64.79907087929672
900.0 64.18731952214253
925.0 63.38434677230747
950.0 62.28613610859372
975.0 61.09710801879788
1000.0 60.667913133220765
1030.0 61.44268556485491
1060.0 62.823098696291495
1090.0 63.769095253651756
1120.0 64.02308594662502
1150.0 64.06418923935365
1180.0 63.94461822537228
1220.0 63.16212595374526
1250.0 62.29255351917743
1280.0 62.60362414272588
1320.0 62.81245648468891
1360.0 62.33943102368802
1400.0 62.6013291777295
1450.0 63.018882249130286
1500.0 62.67178095870183
1550.0 62.873065569758964
1600.0 63.08112798043284
1650.0 62.39636330859034
1700.0 62.138808236780434
1750.0 62.19672258137993
1800.0 61.12596163824827
1850.0 61.00453034756808
1900.0 61.27401298588954
1950.0 60.422261391155985
2000.0 60.28129643543127
2060.0 60.07715009105843
2120.0 60.60127530265629
2180.0 60.449383373848804
2240.0 60.854745343087075
2300.0 61.33924633563072
2360.0 61.36048571310711
2400.0 61.60169232142732
2500.0 61.96279115906425
2580.0 61.591572811128984
2650.0 62.70433915163704
2720.0 62.29738214796919
2800.0 63.82327297658509
2900.0 64.71131927036278
3000.0 64.32968993443392
3070.0 64.96879693215715
3150.0 65.33100173520775
3250.0 64.61079484670223
3350.0 63.38961518648517
3450.0 63.35184542193713
3550.0 61.936655152193964
3650.0 61.61083320563361
3750.0 62.75316635888569
3870.0 64.65056031258429
4000.0 66.01454849137318
4120.0 68.62140556477787
4250.0 70.30954096529996
4370.0 67.48493517893418
4500.0 66.0018367116771
4620.0 65.00228624703486
4750.0 65.85228942719812
4870.0 66.19499630970361
5000.0 66.02603747985455
5150.0 65.01023041994952
5300.0 64.98462786155255
5450.0 66.08610470172977
5600.0 66.00743967036168
5800.0 65.8137505178419
6000.0 63.55523970376555
6150.0 63.647992336759955
6300.0 63.265651272498104
6500.0 62.49545787555763
6700.0 62.42244600438153
6900.0 62.067048508263326
7100.0 62.0706498253288
7300.0 62.28450791894903
7500.0 62.340547642050566
7750.0 62.12862288577773
8000.0 61.41331786558294
8250.0 60.651896697286475
8500.0 59.41391716989938
8750.0 60.19551004321049
9000.0 61.10920856975562
9250.0 61.34537440801083
9500.0 60.720432666598626
9750.0 59.447612632670086
10000.0 59.40415396370261
10300.0 62.1290365341507
10600.0 64.0757644601466
10900.0 63.0694849132656
11200.0 61.140721744262166
11500.0 60.74432825139884
11800.0 61.26842776005088
12200.0 59.68503047708634
12500.0 57.4988044222346
12800.0 57.75371591156505
13200.0 59.4818633873918
13600.0 59.95553960982993
14000.0 58.33873410063097
14500.0 56.95002767388951
15000.0 55.31505804930107
15500.0 52.424690481872545
16000.0 51.16848444191386
16500.0 51.61104861339578
17000.0 50.07103519440885
17500.0 48.464059206858266
18000.0 49.01661136003818
18500.0 47.49746730795424
19000.0 43.91217291675778
19500.0 42.78312201772735
