Freq "Sound Power DI"
22.4 18.521883105108543
23.0 18.567897407302837
23.6 18.630610717126842
24.0 18.772539914100463
25.0 18.870132725054475
25.8 19.016948369474903
26.5 19.09146124091339
27.2 19.201615223559912
28.0 19.27959927620182
29.0 19.37153313132248
30.0 19.433518176684288
30.7 19.50813126159335
31.5 19.57361832852405
32.5 19.642587655454662
33.5 19.713106779231083
34.5 19.745925566799144
35.5 19.799173029436872
36.5 19.87577285712834
37.5 19.96672671909974
38.7 20.05286189787219
40.0 20.117040074809097
41.2 20.183827194066822
42.5 20.246272574904054
43.7 20.31063678871044
45.0 20.350227814266532
46.2 20.390845056809923
47.5 20.417691084188363
48.7 20.457179335799864
50.0 20.49208036910123
51.5 20.506952160922282
53.0 20.552939979557948
54.5 20.554918822676214
56.0 20.587804139534285
58.0 20.589104158231223
60.0 20.58255794578723
61.5 20.60182396959732
63.0 20.5797019278061
65.0 20.563669522398484
67.0 20.594587925158663
69.0 20.562880357069588
71.0 20.562164812359825
73.0 20.552234916329255
75.0 20.53653949347013
77.5 20.523541103506062
80.0 20.487273099508784
82.5 20.479794145156433
85.0 20.487995744611567
87.5 20.466701493980665
90.0 20.44806725836517
92.5 20.42291182578589
95.0 20.441579546507384
97.5 20.42103083563852
100.0 20.432668239399845
103.0 20.417964313697837
106.0 20.44100786760916
109.0 20.42793912395416
112.0 20.467610762325563
115.0 20.46166471968226
118.0 20.46886227319426
122.0 20.492708533261577
125.0 20.526690565558468
128.0 20.541281343716093
132.0 20.567224531959937
136.0 20.628594000499504
140.0 20.644099056520773
145.0 20.656297910527627
150.0 20.728346539878373
155.0 20.75792887998358
160.0 20.77656499186871
165.0 20.84823218245249
170.0 20.873721913517898
175.0 20.908882290611302
180.0 20.94430911044212
185.0 21.01167918311768
190.0 21.032256926716585
195.0 21.065115801370155
200.0 21.12175631475047
206.0 21.140592923684693
212.0 21.167046524729486
218.0 21.178042513897097
224.0 21.213271887466462
230.0 21.24309922682457
236.0 21.270254926792333
240.0 21.303977631822946
250.0 21.35282848284271
258.0 21.41776736893192
265.0 21.534258275843754
272.0 21.616562522724692
280.0 21.766995862781144
290.0 21.93728518377054
300.0 22.119484467658992
307.0 22.294915694413277
315.0 22.48580910825258
325.0 22.602369551143212
335.0 22.715668748796332
345.0 22.768846842288013
355.0 22.820858485327733
365.0 22.852116140638614
375.0 22.87976361339254
387.0 22.908833798797062
400.0 22.963605394138582
412.0 23.00446072073136
425.0 23.022209535392363
437.0 22.975479068946214
450.0 22.87484835834877
462.0 22.714210521549347
475.0 22.525929789923097
487.0 22.420572249134523
500.0 22.403530507270446
515.0 22.485189925268884
530.0 22.720366546691878
545.0 22.981368343682362
560.0 23.14515264457856
580.0 23.22617947411402
600.0 23.278669568240147
615.0 23.388720996628578
630.0 23.468781532299886
650.0 23.5646399657592
670.0 23.476026354790605
690.0 22.873914272027704
710.0 21.53948095356816
730.0 20.074322136608586
750.0 20.327889772705007
775.0 22.036089692558875
800.0 23.539894719826066
825.0 24.49792129257571
850.0 25.08174231856941
875.0 25.398768209512255
900.0 25.537363728333048
925.0 25.466888794982808
950.0 25.285313930967263
975.0 25.252425266669505
1000.0 25.339950111235368
1030.0 25.546690563396965
1060.0 25.64628785643761
1090.0 25.650936609016526
1120.0 25.69981926824734
1150.0 25.77925332004115
1180.0 25.766786807338704
1220.0 25.66305404419515
1250.0 25.66386342829935
1280.0 25.690880116918052
1320.0 25.828918457484775
1360.0 25.994698277563074
1400.0 25.993250918922413
1450.0 25.776484301027466
1500.0 25.66578879114671
1550.0 25.721940261150692
1600.0 25.991766195278416
1650.0 26.35166935025522
1700.0 26.53458169796035
1750.0 26.588751443553335
1800.0 26.908062501772292
1850.0 27.321933772186014
1900.0 27.621432758941367
1950.0 27.92587153909389
2000.0 28.30063799466717
2060.0 28.14701531785329
2120.0 27.72649250721409
2180.0 27.5498337259247
2240.0 27.57125539570869
2300.0 27.100151921556787
2360.0 26.82968554411191
2400.0 26.221239288851564
2500.0 25.798299243657382
2580.0 25.268457417984635
2650.0 24.825332019919315
2720.0 24.96170665142168
2800.0 24.838987300916898
2900.0 24.958965241532027
3000.0 25.22866043403647
3070.0 25.159194468350165
3150.0 24.985739554089236
3250.0 25.29540389459629
3350.0 26.058747186661464
3450.0 25.686990995245907
3550.0 24.950819295714325
3650.0 24.950851032502015
3750.0 24.319494308833626
3870.0 24.496836450609706
4000.0 24.845791980944853
4120.0 24.295754997847027
4250.0 22.695183187303456
4370.0 22.91055055266986
4500.0 23.085700245939094
4620.0 22.629049300745848
4750.0 22.51178237136463
4870.0 22.362161824258564
5000.0 22.11452961859851
5150.0 22.28344346330678
5300.0 23.02639714729932
5450.0 23.545311574143767
5600.0 23.659214469742636
5800.0 23.163655686607072
6000.0 23.952512319004768
6150.0 24.157171394606067
6300.0 24.760365988515616
6500.0 24.76480987785419
6700.0 25.570748154527834
6900.0 26.165508600088913
7100.0 26.61927243185488
7300.0 27.351847894240365
7500.0 28.131054091999374
7750.0 28.759794510820143
8000.0 29.146012163544498
8250.0 29.28274928943725
8500.0 29.756324699200945
8750.0 29.740467356419614
9000.0 29.62167584906939
9250.0 29.49633569043594
9500.0 28.88705042482711
9750.0 28.114272590004887
10000.0 27.43240255687536
10300.0 27.18373219586688
10600.0 26.61850693158061
10900.0 26.36466106048536
11200.0 26.748353195207798
11500.0 27.150662223127696
11800.0 27.58623409913693
12200.0 28.23625690883246
12500.0 28.76101301354163
12800.0 29.557673747452554
13200.0 30.31214790955964
13600.0 31.141571793215732
14000.0 31.818384897832175
14500.0 32.35502925368351
15000.0 32.72042951683851
15500.0 32.652740016241935
16000.0 32.37989681486005
16500.0 31.502315177433914
17000.0 29.98780476396051
17500.0 28.90441124837905
18000.0 28.656438355575915
18500.0 28.633927193702405
19000.0 28.695172600401378
19500.0 27.489492869460094
