Freq,Floor Bounce,Ceiling Bounce,Front Wall Bounce,Side Wall Bounce,Rear Wall Bounce,Total Early Reflection
20.5078,68.81811231097943,67.15502626308366,68.10880311441251,68.26736266909832,68.60376729609193,68.22716988210048
21.9727,69.73304283277214,68.15424899702371,69.043340703636,69.22255372078975,69.50104694313585,69.16349401293952
23.4375,70.77718722015594,68.7172459769965,69.9522782822604,70.00745127682727,69.93407637284928,69.92637427829192
24.9023,72.72297826787035,70.57171589790374,71.8897098290457,71.91156278248745,71.69390988436757,71.81145781700467
26.3672,75.11157754561685,73.06735237979846,74.32071567275398,74.30446293408185,73.98029269184012,74.20623733004828
27.832,77.9409820886013,76.13771507326189,77.23382062047439,77.20035045218088,76.85387336157835,77.11256890763912
29.2969,80.91952091808136,79.36018601439703,80.32431217174279,80.24702465352952,79.77570633174271,80.15741474387238
30.7617,83.60238312643533,82.28218849187715,83.11102666502047,83.0220197170744,82.52560649094077,82.93342499045143
32.2266,85.86185960196805,84.69316662604247,85.42978234318608,85.34713539143763,84.87707507009623,85.26175753106766
33.6914,87.8730983851735,86.80952911439825,87.4868035776433,87.40684877620619,86.94933784489683,87.32214678028382
35.1562,89.4887747998513,88.51477496165788,89.14526028933302,89.05968673921664,88.58496273045175,88.97396882200444
36.6211,90.76455193850542,89.85935486383758,90.45502499409848,90.36438144537092,89.87996866708723,90.27866915518236
38.0859,91.71646931911299,90.84601765505043,91.42212443676421,91.34546492529621,90.87535330366792,91.25396632493195
39.5508,92.50050609609836,91.67684122002386,92.22466677947004,92.15078978532343,91.70326046869756,92.06279336262601
41.0156,93.05278149651446,92.27193806164165,92.79490947304966,92.72557214569558,92.3260404202848,92.64427474017414
42.4805,93.37267603306289,92.60524188304777,93.13058435212358,93.04510647842095,92.61871965905577,92.96479189059147
43.9453,93.56646237556083,92.837360331384,93.34186527230561,93.25230821485015,92.81310786297469,93.17213651474675
45.4102,93.64819801270147,92.9318311535357,93.42590677011178,93.3497734503254,92.94648246497079,93.26946079267428
46.875,93.6769051028529,92.98925234893471,93.4632831712993,93.38605887579502,93.01000316573324,93.31330658198327
48.3398,93.62361023555006,92.93767151870841,93.41748622457081,93.32983471036557,92.92577552906818,93.25553695094902
51.2695,93.5886681016298,92.92139010540423,93.42240128760662,93.276613456186,92.72767150254252,93.19893318851652
52.7344,93.43875429787158,92.7913459028542,93.28603379101784,93.1452465835501,92.56976006402238,93.05795408555443
54.1992,93.31552477023727,92.67720019879879,93.16239980917855,93.02827470108295,92.46658671386702,92.94121573272099
55.6641,93.1210021436025,92.50337199956866,92.96635308682583,92.85066479150656,92.32533295823711,92.76331203793357
58.5938,92.79401058503926,92.16240430859497,92.6325883727332,92.53013464501682,92.06917723654668,92.44649424954997
60.0586,92.61436644404523,92.00008734628544,92.46073655232595,92.35499284187385,91.916448218025,92.27758633206138
62.9883,92.27015330853,91.65166912457282,92.12297871131422,92.00299333778567,91.54435988048029,91.92723031860848
64.4531,92.10202809105684,91.4549307265067,91.94606673446663,91.8270859295478,91.36709521147554,91.7486485553066
67.3828,91.89355592171496,91.23698193329211,91.74022580063485,91.61664191610433,91.14927899865096,91.53684529374365
68.8477,91.76941142083969,91.12622837813332,91.62536527223122,91.49731980983132,91.0406753361573,91.4209749830945
71.7773,91.5356919272671,90.9441286197354,91.42160765420306,91.27078683859457,90.7883596557917,91.20130356440856
74.707,91.38232503792771,90.83526342098298,91.28443110471356,91.117322592937,90.61209259290486,91.05560110989263
77.6367,91.27985898492325,90.72581644038854,91.17998141502898,90.99842285638636,90.4994131626489,90.94621571400896
79.1016,91.25096056876133,90.68329441255533,91.1511512440986,90.95805348545758,90.44137768991678,90.90717506015193
82.0312,91.20469833968308,90.62266412210346,91.10905343658422,90.90199758377021,90.34864276862655,90.84876824889908
84.9609,91.143798762159,90.56712131512946,91.05028566812344,90.84385187013491,90.31921529648234,90.79552022930376
87.8906,91.16667292771578,90.5525511348577,91.0733759468505,90.84759989815016,90.30457640244676,90.80077601354628
90.8203,91.09058145738935,90.48493352600381,91.0071982936646,90.78420529896223,90.25743210160822,90.73613749392321
95.2148,91.24547843587504,90.66835402006255,91.19339501756757,90.92887816552492,90.3479114440064,90.88960433866053
98.1445,91.28524942942516,90.7738308791406,91.27193966744392,90.98415615055194,90.40900413299592,90.95713239843168
101.074,91.21636200176984,90.75119585956104,91.24049189336735,90.92991382811516,90.2769295710231,90.89713103525358
105.469,91.26710569166828,90.81492081206551,91.3097130895879,90.97932049812998,90.32590990505811,90.9538178630044
108.398,91.45313014069625,91.00131139796751,91.50335510070325,91.11996909090064,90.40603938310069,91.1143059473439
112.793,91.57164474274626,91.12686914770741,91.62328689646968,91.22207415686164,90.53161302934389,91.23242449499462
117.188,91.59101095938841,91.17118013581259,91.66982841828127,91.25241418613155,90.54487310453835,91.26377666882944
120.117,91.6480967100096,91.2379329941884,91.7258484949074,91.31316831784558,90.58395693679238,91.32021038807854
124.512,91.80360431299752,91.2406348196712,91.83325963341396,91.36659387005757,90.63632545489433,91.39770073941871
128.906,91.92396036933692,91.30607036347234,91.95557108836451,91.44491595079347,90.5634952904155,91.4676504886531
133.301,92.00608806140694,91.34980761486837,92.01979215891453,91.48454756594401,90.57266693347262,91.51813573538455
139.16,91.96658731603345,91.28350758372785,91.99565444498187,91.46751586599093,90.42507868892481,91.46422281530337
143.555,91.69574025955662,91.03828524808654,91.72578024839478,91.2366818987446,90.57060468604118,91.2746067044339
147.949,91.84099644590576,91.17376201377563,91.88982986381798,91.25417935128966,90.4320947188289,91.34995410262724
153.809,91.7167178877004,91.11921421008007,91.83475202051788,91.15380852628293,90.2553829113013,91.25115041432552
159.668,91.75164232259296,91.19758318324938,91.89678002136547,91.20008347276759,90.19161919229721,91.28747179090651
165.527,91.60604813907229,91.09321771666228,91.75941712463263,91.0331866487338,90.11156639993719,91.15795590157009
171.387,91.56654573905307,90.91448996216,91.7080915191779,90.82111670625189,89.63340343429073,90.98835549029495
177.246,91.51284052488494,90.85394759170387,91.64393518723288,90.6976373294239,89.21477247332548,90.86573732046891
183.105,91.34839046826336,90.88801184071079,91.49724816757544,90.62576283687763,88.77718022922278,90.72777989961904
188.965,90.81868454170478,90.56245298475798,91.08447901036303,90.28915827063825,88.73643598312343,90.37089714558961
196.289,90.76883638329572,90.62530736113355,91.08157819229649,90.19558420090095,88.50078435472344,90.32253337159892
203.613,90.69643991100757,90.70077471344929,91.10894442341804,90.2450441253919,88.31822323742465,90.31563485944348
210.938,90.51780411113688,90.7021294314459,90.92746746783571,90.12842603815024,88.53113692248687,90.2392937127122
218.262,90.46392170387219,90.3956424493352,90.75698598499844,89.69657904666639,88.79822467768223,90.07689518893072
225.586,91.09646639693781,90.78847537568693,91.4245893846437,90.19273051075295,88.63269620495778,90.53062295065912
232.91,91.24292729718984,90.92249289305424,91.53579527705479,90.328282907717,88.4572670083559,90.62339075069058
241.699,91.2824412039746,90.56691249155176,91.38851035759109,90.17500593253901,88.38615028635185,90.48476321579422
250.488,92.34190536575986,90.88969488812847,92.23552881053025,90.83020275235943,88.20903537153956,91.13141230286206
259.277,91.78646489680352,91.10982164897197,91.94028904079114,90.73885615146988,88.6002683610661,90.98519586561241
268.066,91.90955086612716,90.71426345041407,92.01366830349852,90.48226728390514,88.35079942144462,90.87949013314939
276.855,92.42061440704946,91.45912816525941,92.64002952626203,91.07186971459913,87.9221292787595,91.38719638210989
287.109,91.84151472100208,91.98703864524991,92.25367791177267,91.16908128904787,88.6408974309185,91.3536743530412
297.363,92.20636304741767,92.2947289410846,92.6974305290119,91.11153735140388,88.55702418176668,91.60058280918153
307.617,92.16174610132006,91.51970613845334,92.19124617609626,90.76316529430342,88.25374032080407,91.1933970047405
319.336,92.00772263050109,91.4019827325719,92.04495772379906,90.47982753923388,87.7372988904765,90.99048775358513
329.59,91.57815392511039,90.75989585132032,91.55250968678527,90.14313498311711,87.64723171975938,90.54946876982224
341.309,92.02031446670578,90.54469720547608,91.84673850993906,90.04007834005581,87.66240026189966,90.68106169258702
353.027,92.01478223886869,90.81138159218997,92.24791568983977,90.51900227248304,87.18079218509726,90.88004526252986
366.211,92.98754127336842,91.80218339987273,93.10004662649588,90.99172214959025,86.93991210114866,91.64142065066675
379.395,92.73234348148829,91.77662374342529,92.66775443630826,91.41401729751661,87.3821477022943,91.56057570953998
392.578,92.43194069432431,91.08258760605467,92.39589328747725,90.67148888236228,87.84368420282239,91.16988931908983
405.762,92.35795212513982,90.90045500749962,92.48265600937691,90.25836428957543,87.73319759536369,91.05667125097527
420.41,93.37784980679689,91.595038789555,93.06610732518945,90.91384241159379,87.43319997769983,91.722666732099
435.059,92.15963530194581,90.16614228447862,92.09491172186257,89.97455685416172,87.21765451366623,90.6626965939127
451.172,91.43328249392034,88.64960666160859,91.44271341057008,89.58157874260532,85.34230762892766,89.79375446609673
465.82,91.67464645007949,89.74239023507151,91.85163274429965,89.68618756011216,85.6860996503095,90.20792780768342
483.398,91.31377899760307,89.87258126066297,91.48874899222984,89.26666826875189,85.47460537323329,89.93929310003526
499.512,91.72395908026763,89.7905121167786,91.63181139366284,88.80830438898118,85.70543913007248,90.02450827372164
517.09,91.61189974300284,89.48958077596299,91.73642543037884,88.74271678352441,85.04731070809945,89.91085697197951
536.133,91.82849921577805,87.77045851226875,92.39587836595382,89.36179627390466,85.49460350910357,90.06539772373476
555.176,92.13864743442859,88.9724439666144,91.9020576950321,89.23897151072833,85.03806243317652,90.11438000799721
574.219,92.63678987731465,89.77940400331218,92.31841215931622,89.54659189059426,84.61669319073357,90.55492408916626
594.727,92.18123905701016,89.69006749687479,92.36218642457115,89.39944804081377,85.26468055707922,90.42437187739095
615.234,92.07881365329851,89.61000806419192,92.13809704533581,89.38669267869913,84.98988380903806,90.29215140882697
637.207,92.30248621974229,89.52905633824442,92.0834056310955,89.51361825596761,84.76444748596126,90.33878563587837
659.18,92.27414713614897,90.56238948298639,92.21135700359318,89.14303549523588,85.28323890865592,90.5298728935013
682.617,91.92230874988016,89.74939717714854,92.24533617690336,89.95698986058804,85.45355332103348,90.42883260533397
707.52,90.90686012210158,88.55224213715533,91.25300153301798,89.25426881967003,84.98521473954598,89.4846635520607
732.422,91.1518936348398,90.54830350411447,92.14996392398417,88.94052573060709,84.48543179231514,90.12271661623149
757.324,91.96710918282066,91.04448354365599,91.97335284809542,87.84007549670616,85.4196613236539,90.31527724317367
785.156,90.35006315754522,90.3471810242366,91.4652289582851,87.32712227832441,85.61067743935072,89.51610216817367
811.523,88.6374483657404,89.79490000042026,91.11976346994742,88.69953086855902,84.5781798175887,89.03837926152407
840.82,89.33646669429577,88.9993262297264,91.03085090348578,88.65814001131774,83.40329515050605,88.89140482926324
870.117,88.03291992504349,87.52003877914696,90.70083793206278,88.40113965263926,83.21343091614087,88.16561273837631
900.879,89.30374619203634,90.13626246223397,90.99598753203865,89.09058417502683,83.18292504594858,89.20195176373636
933.105,89.48903854233255,89.28538249483131,91.67563702259723,89.29816316682657,84.10170483823187,89.36114967993296
965.332,89.03123267481251,89.07739557821908,91.76176026280594,89.79766934472856,83.85653541255276,89.3515158537799
1000.49,88.3730799861763,89.1719348411833,91.05932437809008,89.12476468861263,83.61292642124072,88.85072788272726
1035.64,88.44937414222001,90.30214985055149,90.35148759641753,87.99186491460998,82.01662602664801,88.62723125912949
1072.27,88.36695659613132,90.10495168001934,90.27123683683307,87.69503115023825,81.65586752876314,88.4634693202583
1108.89,88.79702186446647,88.88315486285428,90.97428871813759,88.76055778307749,81.1211168232058,88.64981460043862
1148.44,90.32246980007666,89.94478960855226,92.59582096646228,90.32803701763287,82.47316845958632,90.11789258944022
1189.45,90.3928777864719,89.70384807456404,92.46398644534321,90.54889501565783,82.62208790571233,90.09448958728885
1230.47,90.49710845102844,90.4394062048819,92.14328196701115,90.34634397424713,81.9833939985409,90.09170116596141
1274.41,90.71954705493161,90.63941869916378,91.7473846490977,89.70053037756796,81.69990352903123,89.92591557691333
1319.82,90.94769983388092,90.0914969314297,91.43017081319866,89.39334320364283,81.31237755208619,89.69421998381263
1366.7,90.56081740688386,90.72919955342853,90.82819910797117,88.40012417586875,80.39375188572981,89.37728682241473
1413.57,91.03059295043899,90.73475763133612,90.93712819586477,88.4371678266413,80.49699516433424,89.54521931844674
1463.38,91.40545498861914,90.17185588845157,91.85300687391863,88.99820303968247,80.86368633806283,89.88615478381752
1516.11,91.91317052418357,89.63114273700118,92.02356631271094,88.46226544841184,80.48580718890304,89.89384740170392
1568.85,91.80156925896495,88.42433306600826,91.44249823792872,88.29370231797596,79.98312024980937,89.42355367181324
1624.51,91.50286084090885,87.39102348267481,90.71050426174047,87.91949051579638,78.93502014963585,88.85048826751272
1681.64,90.93940379787914,87.20864511942789,90.68224503801862,87.41356555565622,79.59083577567012,88.548776095321
1741.7,91.3970980697413,87.5096230665824,91.15500033366716,88.35289896929172,79.77953516157409,89.06026468893687
1803.22,92.13547233976558,86.97439445719085,91.70802475860822,88.2126737275306,78.93195501209804,89.40119683120744
1866.21,92.71542283134882,86.45625921331322,91.16689977043282,87.46040185211987,78.79677727183348,89.29644231091632
1932.13,92.03221699955562,85.2681513049527,90.5880179813705,87.3043286927962,78.164210091137,88.67013167554329
1999.51,91.80345822133665,83.43551644008431,91.19928996330488,88.0963738588314,78.80623736207274,88.77885165338306
2069.82,91.93421075669525,82.73294906670417,92.14163248277782,88.63687035401418,79.54559260738809,89.2498207764347
2143.07,92.06162736739158,83.6282800172415,91.78771854110205,88.91170566442473,79.58370924335134,89.25994024586358
2219.24,91.271402457104,82.90242351252452,91.62838786501095,88.37135899778865,78.80877775450627,88.75456729233288
2296.88,89.99228997178422,82.86263197533343,92.44830933922924,88.91803098283478,78.95159967438381,88.81591055024532
2378.91,90.22632418211687,83.20521927482325,92.64451721561412,88.82351833418109,78.87867709865905,88.96643752314472
2462.4,90.00315749616189,83.747952333947,92.29824926922596,88.48207383376614,78.40125136950626,88.7035061297657
2548.83,89.24542183565276,84.87499126342043,92.60463326439468,88.58926906691211,78.35581926001755,88.7627998136418
2639.65,88.74270240754599,86.17361693002154,92.07185228299913,88.27868136730447,77.84711880171962,88.46089351616277
2731.93,88.77732094294866,87.25510013875986,91.23710978361987,87.82596689659674,77.07885636882071,88.15964632928262
2828.61,89.54735627215652,88.00960774519278,91.3439802360279,87.93909662034415,76.55187243447419,88.52900195291436
2928.22,90.10017161672495,88.217914639815,90.77168433002973,87.8249084989736,76.37633618087389,88.48884532505782
3030.76,90.05701235001196,88.04354841462963,91.8032847372299,88.31920321791806,76.12229506412692,88.90450455015691
3137.7,90.54934434885129,88.67828141850768,92.38914039113104,88.49520024567445,77.05658202729018,89.4090004772279
3249.02,91.14096036255748,89.00273517995258,91.93111724691336,88.27121605774941,77.2240838045102,89.42467319122743
3363.28,91.22934597634001,89.07235324244404,92.09930878762242,88.27993104658988,76.78486534670901,89.52025005198372
3481.93,90.62901325922898,88.40062698038861,91.92738201731466,88.369868548554,76.32179704533814,89.17643427739868
3604.98,90.47780678428344,88.31524103607792,91.00915129465923,87.42832837245108,74.89130434453902,88.6216936822416
3732.42,89.89202629935205,87.4985781229719,91.45890492735572,87.34920399811499,75.05518707142245,88.46586271823521
3864.26,89.15731248797992,87.51573822233128,91.03745278090076,86.7430292556065,75.02704342385915,88.0099913854385
4000.49,89.44113672934326,87.413209932073,90.80922424355325,86.21892623904363,74.73048399886382,87.90101876681773
4141.11,89.53891160060657,87.12427094486513,90.54895521947508,86.05253742471591,74.8242750915917,87.7569296723094
4287.6,90.03904272719039,87.14640585025498,90.99186662348653,86.22444961449928,74.07446816080177,88.10064065155588
4438.48,90.12369280682385,86.81307800120943,91.41777560906401,85.6117316988812,74.16414172179631,88.17586082261279
4595.21,89.67597378595804,85.42362262665527,91.5704467784116,86.11773040750559,73.55596162204026,87.98525665838972
4756.35,89.90166049778733,85.06430019654789,91.08951351347363,85.92319218541581,74.21816482886666,87.78330633581147
4924.8,89.56096911839285,84.34800010741304,91.16108333771412,86.53065709751328,73.69166013967812,87.71695916394276
5097.66,89.25001426244796,84.51608765757219,91.29969906408466,86.28784616294043,71.99991531338475,87.65577303509181
5277.83,88.71767233824454,84.39235711699062,90.15468885219379,86.4063772194646,72.51664422701188,87.00797184464227
5463.87,88.32940924913025,83.78058549578475,90.84613265198736,86.18939006731408,71.6022032714008,87.101017035064
5657.23,88.7313349556835,83.42489723666922,90.55113781289381,85.6682044491993,71.74754858687648,86.96496077236695
5856.45,89.3448388779113,83.20307757478416,90.64466895205402,86.1916081478334,72.01932185204596,87.2608415960314
6062.99,90.08551872947992,83.31384106131335,90.73641583728983,85.595930471217,71.41455554862587,87.47527393074637
6276.86,89.25638518610988,83.01584140518862,91.07014808979085,85.69385689628477,70.60695091711156,87.3316890806701
6498.05,88.1655284457784,82.69728350158537,91.0667777336788,85.53192442950807,70.64438240098258,86.97059322108619
6726.56,88.62682628560687,82.80820650375956,90.898944752276,85.64559272418924,71.113806185153,87.04087730955156
6963.87,89.27431838020657,83.2699816442951,90.9436222543657,85.96360361254929,71.56043806655104,87.34037701946909
7209.96,88.71418049240415,83.25180967275526,91.13619380639517,86.31432495158093,71.50261921972971,87.318022473427
7464.84,88.00644035700157,83.61244546725347,91.19129941821619,86.25694949567267,71.20950183273135,87.18142744231072
7727.05,87.77845292597468,82.97546685365694,91.12939249068064,86.11623659478143,70.62774464011082,87.01643761484063
7999.51,87.475533930911,81.66553476278685,91.09177282600182,85.8932282123941,69.56704976423792,86.79287145733657
8282.23,87.23740759860111,80.72778557689922,91.02350104321309,85.83420090444984,69.43009862574107,86.63759889801541
8573.73,87.1403055345193,79.33327790375185,91.2277340676874,85.99021375631149,69.64203212622486,86.69602047931856
8876.95,86.91203601472984,77.6303800507591,91.2449276891624,86.12033124599635,70.12871430320932,86.62879335001061
9188.96,86.08121317880187,76.8794450847584,91.23509825630579,85.9860705226902,69.50854889414707,86.41292517003434
9514.16,85.54583102635472,76.53909891497962,91.08880532517368,85.77323179782542,68.09821109002384,86.17606287519419
9849.61,85.57324149790604,76.32834669314626,91.029751949302,85.37232754650253,67.61887444197443,86.0674211493456
