Freq "Rear Wall Bounce"
20.5078 68.66067941730405
21.9727 69.55795906434797
23.4375 69.9909884940614
24.9023 71.75082200557969
26.3672 74.03720481305224
27.832 76.91078548279047
29.2969 79.83261845295483
30.7617 82.58251861215291
32.2266 84.93398719130835
33.6914 87.00624996610895
35.1562 88.64187485166387
36.6211 89.93688078829935
38.0859 90.93226542488004
39.5508 91.76017258990969
41.0156 92.38295254149692
42.4805 92.67563178026792
43.9453 92.8700199841868
45.4102 93.00339458618292
46.875 93.06691528694535
48.3398 92.98268765028031
51.2695 92.78458362375464
52.7344 92.6266721852345
54.1992 92.52349883507915
55.6641 92.38224507944923
58.5938 92.1260893577588
60.0586 91.9733603392371
62.9883 91.60127200169241
64.4531 91.42400733268765
67.3828 91.20619111986306
68.8477 91.09758745736943
71.7773 90.84527177700382
74.707 90.66900471411698
77.6367 90.55632528386103
79.1016 90.49828981112888
82.0312 90.40555488983867
84.9609 90.37612741769446
87.8906 90.36148852365888
90.8203 90.31434422282034
95.2148 90.40482356521852
98.1445 90.46591625420804
101.074 90.33384169223523
105.469 90.38282202627022
108.398 90.46295150431281
112.793 90.58852515055602
117.188 90.60178522575048
120.117 90.6408690580045
124.512 90.69323757610645
128.906 90.62040741162762
133.301 90.62957905468473
139.16 90.48199081013695
143.555 90.62751680725331
147.949 90.48900684004103
153.809 90.31229503251342
159.668 90.24853131350935
165.527 90.16847852114931
171.387 89.69031555550285
177.246 89.27168459453759
183.105 88.8340923504349
188.965 88.79334810433554
196.289 88.55769647593554
203.613 88.37513535863677
210.938 88.58804904369897
218.262 88.85513679889434
225.586 88.68960832616993
232.91 88.51417912956802
241.699 88.44306240756397
250.488 88.26594749275166
259.277 88.65718048227822
268.066 88.40771154265673
276.855 87.97904139997163
287.109 88.69780955213064
297.363 88.6139363029788
307.617 88.31065244201618
319.336 87.79421101168863
329.59 87.7041438409715
341.309 87.7193123831118
353.027 87.2377043063094
366.211 86.99682422236079
379.395 87.43905982350643
392.578 87.90059632403451
405.762 87.79010971657581
420.41 87.49011209891195
435.059 87.27456663487834
451.172 85.39921975013979
465.82 85.74301177152162
483.398 85.53151749444542
499.512 85.7623512512846
517.09 85.10422282931158
536.133 85.55151563031569
555.176 85.09497455438864
574.219 84.67360531194569
594.727 85.32159267829134
615.234 85.04679593025018
637.207 84.82135960717336
659.18 85.34015102986804
682.617 85.5104654422456
707.52 85.04212686075809
732.422 84.54234391352729
757.324 85.47657344486602
785.156 85.66758956056283
811.523 84.63509193880084
840.82 83.46020727171818
870.117 83.27034303735299
900.879 83.23983716716073
933.105 84.15861695944399
965.332 83.91344753376488
1000.49 83.66983854245282
1035.64 82.07353814786013
1072.27 81.71277964997526
1108.89 81.17802894441792
1148.44 82.53008058079844
1189.45 82.67900002692446
1230.47 82.04030611975303
1274.41 81.75681565024335
1319.82 81.36928967329833
1366.7 80.45066400694193
1413.57 80.55390728554634
1463.38 80.92059845927496
1516.11 80.54271931011516
1568.85 80.0400323710215
1624.51 78.99193227084797
1681.64 79.64774789688224
1741.7 79.83644728278621
1803.22 78.98886713331015
1866.21 78.8536893930456
1932.13 78.2211222123491
1999.51 78.86314948328486
2069.82 79.60250472860021
2143.07 79.64062136456347
2219.24 78.86568987571839
2296.88 79.00851179559594
2378.91 78.93558921987118
2462.4 78.4581634907184
2548.83 78.41273138122969
2639.65 77.90403092293174
2731.93 77.13576849003282
2828.61 76.60878455568633
2928.22 76.43324830208601
3030.76 76.17920718533902
3137.7 77.1134941485023
3249.02 77.28099592572232
3363.28 76.84177746792113
3481.93 76.37870916655025
3604.98 74.94821646575114
3732.42 75.11209919263456
3864.26 75.08395554507128
4000.49 74.78739612007593
4141.11 74.88118721280382
4287.6 74.1313802820139
4438.48 74.22105384300842
4595.21 73.61287374325236
4756.35 74.27507695007878
4924.8 73.74857226089026
5097.66 72.05682743459687
5277.83 72.573556348224
5463.87 71.65911539261292
5657.23 71.8044607080886
5856.45 72.07623397325808
6062.99 71.47146766983799
6276.86 70.6638630383237
6498.05 70.70129452219469
6726.56 71.17071830636512
6963.87 71.61735018776318
7209.96 71.55953134094182
7464.84 71.26641395394348
7727.05 70.68465676132294
7999.51 69.62396188545004
8282.23 69.4870107469532
8573.73 69.69894424743698
8876.95 70.18562642442146
9188.96 69.56546101535919
9514.16 68.15512321123599
9849.61 67.67578656318655
10196.8 66.85812068333645
10555.7 66.16422946119728
10927.7 65.32829785971238
11313.0 64.27855993500664
11712.9 63.65554442044642
12126.0 62.36993626502802
12553.7 61.27898072801763
12996.1 59.21478973809478
13454.6 56.74859300309829
13929.2 53.48560058195129
14419.9 52.728675118748285
14928.2 53.389942728562616
15455.6 52.27464721608597
16000.5 50.42847471160543
16564.5 51.34161058329754
17148.9 52.18888378434666
17752.4 52.622498207118454
18379.4 52.535129631225615
19026.9 52.306602498971884
19697.8 51.90193778380562
19999.5 55.1504347357796
