Freq "Ceiling Bounce"
20.0 34.513627315701626
20.2909 35.013627315701626
20.586 35.54662731570164
20.8855 36.086627315701634
21.1893 36.606964056973055
21.4975 37.082964056973054
21.8102 37.49229386636571
22.1274 37.854627315701634
22.4492 38.217290625855725
22.7758 38.61529062585575
23.1071 39.06129062585575
23.4432 39.55629062585575
23.7841 40.07229062585574
24.1301 40.578627315701624
24.4811 41.065297531631586
24.8372 41.53062731570162
25.1984 41.98662731570164
25.5649 42.44562731570164
25.9368 42.91529753163158
26.3141 43.4022975316316
26.6968 43.89562731570166
27.0851 44.38362731570166
27.4791 44.86195715066691
27.8788 45.32229062585574
28.2843 45.76895715066692
28.6957 46.21262731570164
29.1131 46.660627315701646
29.5365 47.12196405697307
29.9661 47.59863429847363
30.402 48.08596405697307
30.8442 48.57429753163157
31.2929 49.052634298473635
31.748 49.521297531631575
32.2098 49.98363429847362
32.6783 50.443634298473626
33.1536 50.91729753163159
33.6359 51.40529753163159
34.1251 51.90329753163158
34.6215 52.384297531631574
35.125 52.83396405697306
35.6359 53.264634298473624
36.1543 53.688641434707336
36.6802 54.12631180355095
37.2137 54.5966487244024
37.755 55.09464872440239
38.3041 55.6009822232738
38.8613 56.09298222327381
39.4265 56.568319169693694
40.0 57.03231916969371
40.5818 57.49332668929131
41.1721 57.9583266892913
41.771 58.42666376417496
42.3785 58.895997261891495
42.9949 59.36666376417496
43.6203 59.84066376417495
44.2548 60.31366376417495
44.8985 60.78566376417493
45.5515 61.26000089051303
46.2141 61.729334362343394
46.8863 62.19267151425166
47.5683 62.64800501137309
48.2602 63.09934218884953
48.9621 63.55167151425168
49.6743 64.00434218884953
50.3968 64.45767941778814
51.1299 64.91235016880933
51.8736 65.36067941778813
52.6281 65.80167941778814
53.3936 66.23635016880932
54.1702 66.66635016880934
54.9581 67.09135016880933
55.7575 67.51035016880932
56.5685 67.92235016880932
57.3914 68.32502097067977
58.2261 68.71935830222233
59.073 69.10535830222234
59.9323 69.48435830222235
60.804 69.85769568523861
61.6884 70.22335830222235
62.5857 70.58035830222235
63.496 70.92368747478392
64.4196 71.24735830222235
65.3566 71.55402918050399
66.3073 71.84536658908816
67.2717 72.12637502940632
68.2502 72.40238362317638
69.2429 72.673054730655
70.2501 72.93606355426327
71.2719 73.18373006163753
72.3086 73.41173006163754
73.3603 73.6203923703979
74.4274 73.81339237039789
75.5099 73.9963923703979
76.6083 74.1703923703979
77.7226 74.3363923703979
78.8531 74.49206355426327
80.0 74.63140127107042
81.1636 74.75641032519341
82.3442 74.87208166181392
83.5419 74.98041953276648
84.757 75.08075745523305
85.9899 75.17541953276647
87.2406 75.26208166181394
88.5096 75.3367481705787
89.797 75.4037481705787
91.1031 75.4647481705787
92.4282 75.51975745523305
93.7726 75.57242889378907
95.1366 75.61942889378906
96.5204 75.66043840826073
97.9243 75.69643840826073
99.3486 75.72544807618094
100.794 75.74744807618093
102.26 75.76645789754917
103.747 75.77879612839732
105.256 75.78780618032253
106.787 75.79747800062766
108.34 75.80748828233685
109.916 75.81683725681171
111.515 75.8245093060924
113.137 75.82819222447188
114.783 75.8265419925602
116.452 75.82189211997186
118.146 75.81590355295042
119.865 75.80691513937643
121.608 75.79491513937643
123.377 75.77991513937641
125.171 75.75991513937643
126.992 75.74158772271724
128.839 75.72726608739093
130.713 75.71895081933299
132.615 75.71696301954259
134.543 75.71964833782289
136.5 75.728987880294
138.486 75.73798788029401
140.5 75.74232135312333
142.544 75.74298788029401
144.617 75.73666092115892
146.721 75.72567365793168
148.855 75.7103597921195
151.02 75.69405271741292
153.217 75.67507972634215
155.445 75.65412139052005
157.706 75.6344904548166
160.0 75.61120886162473
162.327 75.58725466850977
164.688 75.56631789235642
167.084 75.54904194208123
169.514 75.53844322951412
171.98 75.53718004461288
174.481 75.54392876144495
177.019 75.55066141205225
179.594 75.5533763876908
182.206 75.55107254005347
184.856 75.54407254005346
187.545 75.53537638769079
190.273 75.52435697941895
193.041 75.51333772452934
195.849 75.50168059098671
198.697 75.48769992330979
201.587 75.47773904811775
204.52 75.46445555457993
207.494 75.43886010376082
210.512 75.41064265253002
213.574 75.38181939080513
216.681 75.36938758351353
219.833 75.38531727126562
223.03 75.4162231603446
226.274 75.44966687407499
229.565 75.46198616991754
232.905 75.44190358771331
236.292 75.4071421843797
239.729 75.3680889668102
243.216 75.33783546176194
246.754 75.32298616991756
250.343 75.31451783733675
253.984 75.30937527357636
257.678 75.31523918162253
261.426 75.33634851420494
265.229 75.35907782466849
269.087 75.3618886776074
273.001 75.35240207447443
276.972 75.30956994373723
281.0 75.2581801366536
285.088 75.2344301443711
289.234 75.24259533007248
293.441 75.2744299469085
297.709 75.30458166636656
302.04 75.31408843708951
306.433 75.30061866287211
310.89 75.26546566419582
315.412 75.22435690294178
320.0 75.19200348196696
324.655 75.17612357870551
329.377 75.15901835006508
334.168 75.15460423646877
339.028 75.14883073498727
343.959 75.1204110399297
348.962 75.10001153557424
354.038 75.09274211687752
359.188 75.08402492041742
364.412 75.09754346063188
369.713 75.14550384310728
375.09 75.19272034587459
380.546 75.22393752812604
386.081 75.2462413835341
391.697 75.24853428018947
397.394 75.23558774877769
403.175 75.18616516983019
409.039 75.1355648491276
414.989 75.12367652704157
421.025 75.14402840132425
427.149 75.20595441779425
433.362 75.29941353831934
439.665 75.36829010508708
446.06 75.40082362705817
452.548 75.39628873116499
459.131 75.36175481200661
465.809 75.33141457630643
472.584 75.33162778572849
479.458 75.33854130522715
486.432 75.3188216967507
493.507 75.25045902157188
500.686 75.17551042928324
507.968 75.11828358096037
515.357 75.08042214825008
522.853 75.05694965379986
530.458 75.10407774732082
538.174 75.15981262185518
546.002 75.2446162624511
553.943 75.32360174254102
562.001 75.34808624946739
570.175 75.34661269296329
578.469 75.28771494470921
586.883 75.18878626121021
595.419 75.14498530757436
604.08 75.120612808888
612.866 75.13218153537369
621.78 75.14292424907885
630.824 75.1394261633383
640.0 75.12381531485343
649.309 75.11961492624985
658.753 75.16874562963903
668.335 75.19545902157189
678.056 75.21598615003296
687.919 75.19551527029927
697.925 75.08918634752071
708.077 74.99093487337746
718.376 74.92223691211889
728.825 74.82749559721205
739.426 74.76201280538707
750.181 74.71995582595103
761.093 74.66173353130284
772.163 74.58673905106399
783.394 74.5523650359098
794.789 74.49788462727986
806.349 74.42787960883987
818.078 74.38924302765577
829.977 74.30134396899838
842.05 74.22064781338112
854.298 74.1656539637136
866.724 74.03981586840072
879.33 73.85480354509689
892.12 73.67870173959369
905.097 73.40984340936842
918.262 73.14698265387902
931.618 72.99368213944882
945.169 72.87222810225157
958.917 72.82655520072372
972.864 72.82786685884481
987.015 72.7457739663208
1001.37 72.70380401696292
1015.94 72.69147577183956
1030.71 72.72608023759152
1045.71 72.84996184327646
1060.92 73.00688608504618
1076.35 73.09429127127632
1092.0 72.98076930101658
1107.89 72.69801194765314
1124.0 72.40595362519717
1140.35 72.13007933255625
1156.94 71.88218286505202
1173.77 71.96701678330999
1190.84 72.2809782747626
1208.16 72.61075077081179
1225.73 72.86727171230147
1243.56 72.95929024365618
1261.65 72.90267201537273
1280.0 72.80727047666133
1298.62 72.77161541573847
1317.51 72.69902453882612
1336.67 72.57568654977896
1356.11 72.41662502546683
1375.84 72.25695083722263
1395.85 72.12576407503764
1416.15 72.07266651291178
1436.75 72.1443442119014
1457.65 72.27341536286397
1478.85 72.37556510104761
1500.36 72.44599206064524
1522.19 72.57888445480717
1544.33 72.71658166378492
1566.79 72.82080196727216
1589.58 72.94686362297675
1612.7 73.03881856088636
1636.16 73.08354765515563
1659.95 73.12762723526811
1684.1 73.05941601329756
1708.6 72.89446707669
1733.45 72.65569528258716
1758.66 72.36807354759367
1784.24 72.13357122142368
1810.19 72.04970845488403
1836.52 72.15905061215511
1863.24 72.40592809094701
1890.34 72.73560157296245
1917.83 73.15074618876272
1945.73 73.56437599257231
1974.03 73.93166481756646
2002.74 74.37375587102157
2031.87 74.88215747663077
2061.43 75.29221128270399
2091.41 75.56286435915464
2121.83 75.6737563788718
2152.69 75.76515678553723
2184.01 75.8769167603333
2215.77 75.96645723679043
2248.0 76.06145553506764
2280.7 76.17492548542727
2313.87 76.33289036051853
2347.53 76.53025760273785
2381.68 76.7219251801576
2416.32 76.8652724043124
2451.46 76.8819445315936
2487.12 76.79553397306714
2523.3 76.6588964551718
2560.0 76.47869949374507
2597.24 76.31253737388178
2635.01 76.16444843483075
2673.34 76.0294890657471
2712.23 75.92425092655236
2751.68 75.8646189299482
2791.7 75.8308976739883
2832.31 75.8158099591592
2873.5 75.82401252702181
2915.3 75.84497584507763
2957.7 75.86253855399289
3000.72 75.88903330637248
3044.37 75.89545354482694
3088.65 75.86304940994961
3133.58 75.76484345875454
3179.16 75.69278431158601
3225.4 75.69535798788648
3272.31 75.62445169194754
3319.91 75.48754216432265
3368.2 75.32130975871556
3417.19 75.15771016061363
3466.89 75.00000866720904
3517.32 74.84181765929748
3568.48 74.67365888267344
3620.39 74.49846206519281
3673.05 74.31174090590322
3726.47 74.10668864438091
3780.67 73.88479264849039
3835.67 73.6462780637923
3891.46 73.4022113800531
3948.06 73.16026822767923
4005.49 72.93710062322512
4063.75 72.74658252124127
4122.86 72.60113476278694
4182.82 72.49771576347334
4243.66 72.42282797245058
4305.39 72.35811636538138
4368.01 72.30221447345502
4431.55 72.23917934697936
4496.01 72.13635820335858
4561.4 71.99672840728289
4627.75 71.83229551004386
4695.06 71.63208659195409
4763.35 71.39608918819562
4832.64 71.17383315085692
4902.93 71.03083798834427
4974.24 71.01890068963577
5046.6 71.18180244980215
5120.0 71.50593718913818
5194.47 71.92154368345612
5270.03 72.35929816256856
5346.68 72.77034513218047
5424.45 73.12299498937334
5503.35 73.38691840127471
5583.4 73.54661750350729
5664.61 73.60008332331361
5747.01 73.54594134431176
5830.6 73.39564367929572
5915.41 73.17950921441664
6001.45 72.93008061571946
6088.74 72.68559440788897
6177.3 72.4863149988428
6267.15 72.3393717265941
6358.31 72.22747212375616
6450.8 72.13366788391117
6544.62 72.0374190281133
6639.82 71.91478213624568
6736.4 71.76791574275327
6834.38 71.6255212799642
6933.79 71.52303371949307
7034.64 71.49386730771437
7136.96 71.55682245137497
7240.77 71.68581206977501
7346.09 71.82357301482133
7452.94 71.93971204457605
7561.35 72.01513782011858
7671.33 72.03959406624944
7782.91 72.0157008241054
7896.12 71.9543890487561
8010.97 71.86315403112411
8127.49 71.75579339129176
8245.71 71.65667508305336
8365.65 71.58429389359134
8487.33 71.53987052723289
8610.78 71.5264378642314
8736.03 71.54932904015821
8863.09 71.61197162026633
8992.01 71.71731659532567
9122.8 71.84696200546567
9255.5 71.96856901214085
9390.12 72.06184613876928
9526.7 72.0966288894064
9665.27 72.04813320303398
9805.86 71.9335647377392
9948.49 71.80837511009119
10093.2 71.69937807928713
10240.0 71.60273227975807
10388.9 71.52376904826346
10540.1 71.46689600403808
10693.4 71.43681692955332
10848.9 71.42302433305704
11006.7 71.40504910517308
11166.8 71.37134395954266
11329.2 71.31436681356072
11494.0 71.23691703081855
11661.2 71.15074578235658
11830.8 71.05604705951127
12002.9 70.95471884450511
12177.5 70.83895616944947
12354.6 70.69910964346715
12534.3 70.53316035024933
12716.6 70.34361443440784
12901.6 70.12851689383922
13089.2 69.89767227722919
13279.6 69.66686266255662
13472.8 69.44223135792251
13668.8 69.23661770840168
13867.6 69.06060701185345
14069.3 68.9107681056015
14273.9 68.7953419176282
14481.5 68.70970054317182
14692.2 68.63625003494974
14905.9 68.56850267939
15122.7 68.49264795283383
15342.7 68.40393625460463
15565.8 68.30741036399478
15792.2 68.20249696253131
16021.9 68.0900222352177
16255.0 67.9639517594244
16491.4 67.81449936277056
16731.3 67.63867467253388
16974.7 67.43605895414314
17221.6 67.21151462659975
17472.1 66.97155038921458
17726.2 66.71709908931082
17984.0 66.4516270867692
18245.6 66.1881475113041
18511.0 65.93939578054272
18780.2 65.71158230128994
19053.4 65.51201704482484
19330.5 65.33418752586091
19611.7 65.1531372561347
19897.0 64.94588836277703
