Freq "Side Wall Bounce"
20.0 34.4703438141772
20.2909 34.97201751242841
20.586 35.509277255824315
20.8855 36.055530152897774
21.1893 36.583774365326434
21.4975 37.06553309662874
21.8102 37.47640241306894
22.1274 37.83489585934305
22.4492 38.19150705150528
22.7758 38.582223383796844
23.1071 39.02364413999888
23.4432 39.51786122742189
23.7841 40.03537028054083
24.1301 40.5431758411693
24.4811 41.030374828835335
24.8372 41.4960716413959
25.1984 41.951068849129626
25.5649 42.40896980942048
25.9368 42.878668332395506
26.3141 43.36596906371582
26.6968 43.859362910934834
27.0851 44.3491584376583
27.4791 44.82795493053965
27.8788 45.28845418413843
28.2843 45.73485262598072
28.6957 46.17795769165704
29.1131 46.625356429425665
29.5365 47.086453534146926
29.9661 47.562947904813
30.402 48.0496483309623
30.8442 48.53744937002662
31.2929 49.01435780628748
31.748 49.48175848466067
32.2098 49.94316638610766
32.6783 50.402270669936826
33.1536 50.875071805456315
33.6359 51.363763401561044
34.1251 51.86365345159865
34.6215 52.3490341507148
35.125 52.80451833958412
35.6359 53.23932216855232
36.1543 53.6649378455774
36.6802 54.101168210038225
37.2137 54.56590619230269
37.755 55.057637012139864
38.3041 55.55925594570087
38.8613 56.048767737110325
39.4265 56.5235831616654
40.0 56.98789572712991
40.5818 57.45021033866924
41.1721 57.91562189269345
41.771 58.38464725676033
42.3785 58.853564625846474
42.9949 59.323470844882465
43.6203 59.797162482461104
44.2548 60.26994038892802
44.8985 60.742216061450634
45.5515 61.21690042440474
46.2141 61.68729568271225
46.8863 62.15089101058423
47.5683 62.606492961151986
48.2602 63.057900625209044
48.9621 63.510609768645196
49.6743 63.962919848835554
50.3968 64.41602445031131
51.1299 64.87113037890586
51.8736 65.31993924065523
52.6281 65.76104054273328
53.3936 66.19585345638761
54.1702 66.62625588087639
54.9581 67.05115629985838
55.7575 67.47025409153522
56.5685 67.88174691015996
57.3914 68.28404735493713
58.2261 68.67725411124418
59.073 69.06196114235806
59.9323 69.43936962308605
60.804 69.81177776566116
61.6884 70.17577861644654
62.5857 70.53088146878409
63.496 70.87308003922949
64.4196 71.1977787215024
65.3566 71.50528491667473
66.3073 71.79769521543739
67.2717 72.07942119260109
68.2502 72.35425813960013
69.2429 72.62309952285034
70.2501 72.88402703841504
71.2719 73.13133652065743
72.3086 73.3601231742925
73.3603 73.56940793938783
74.4274 73.76299035498786
75.5099 73.94558101199402
76.6083 74.11928654008574
77.7226 74.28548933130193
78.8531 74.44099936669137
80.0 74.58031629981207
81.1636 74.70504146083321
82.3442 74.81996833927354
83.5419 74.92727889584627
84.757 75.02807016355753
85.9899 75.12414912819202
87.2406 75.21192342443985
88.5096 75.28829883389358
89.797 75.35678382227255
91.1031 75.41807927843814
92.4282 75.47309119518934
93.7726 75.52520218287714
95.1366 75.57121932593819
96.5204 75.61114171909225
97.9243 75.64625553885244
99.3486 75.67427801349204
100.794 75.69548857982065
102.26 75.71380145313843
103.747 75.72611832416298
105.256 75.73473669105813
106.787 75.74355917133322
108.34 75.75289598101467
109.916 75.76143661365
111.515 75.76857240243213
113.137 75.77213107257714
114.783 75.77109928976722
116.452 75.76778037426867
118.146 75.76364891338466
119.865 75.75607533329075
121.608 75.74605861740478
123.377 75.73271702998913
125.171 75.7139754297936
126.992 75.69794787420207
128.839 75.68585439233004
130.713 75.67926912870801
132.615 75.67917094877164
134.543 75.68058233409559
136.5 75.68439889392249
138.486 75.68562402936607
140.5 75.67967797820478
142.544 75.67093080820962
144.617 75.6570951014634
146.721 75.64247242709193
148.855 75.62902352223895
151.02 75.61707505041163
153.217 75.60400537348882
155.445 75.58905398582493
157.706 75.57461729393196
160.0 75.55509848030974
162.327 75.53371888050319
164.688 75.51407819743355
167.084 75.49637274458588
169.514 75.48241404425296
171.98 75.47512197576992
174.481 75.47307058344305
177.019 75.46998834060119
179.594 75.46582578510726
182.206 75.46108966713123
184.856 75.45539532808365
187.545 75.448516045742
190.273 75.43785519587283
193.041 75.42407565702949
195.849 75.4065009400482
198.697 75.38552021839698
201.587 75.36979494235212
204.52 75.35247199553862
207.494 75.32465647164314
210.512 75.29349655863966
213.574 75.2603099242178
216.681 75.2400365381487
219.833 75.24223454398204
223.03 75.26030724627805
226.274 75.28287403615553
229.565 75.28820114209853
232.905 75.26700252516243
236.292 75.23330540772912
239.729 75.1933561445792
243.216 75.15945417161677
246.754 75.1351381223152
250.343 75.11312591393065
253.984 75.08909622175828
257.678 75.07080256254046
261.426 75.06433601129683
265.229 75.06798224818736
269.087 75.07182305133395
273.001 75.0707348804281
276.972 75.03840149742663
281.0 74.99189564856601
285.088 74.9546548390845
289.234 74.93656655634791
293.441 74.94545213484896
297.709 74.96577316059731
302.04 74.97501310359716
306.433 74.96473432656423
310.89 74.93281718937679
315.412 74.89349370928693
320.0 74.86532022065694
324.655 74.85908199320946
329.377 74.85987655480392
334.168 74.8694643443867
339.028 74.87552309659091
343.959 74.85484619916683
348.962 74.82725031315249
354.038 74.80500675035523
359.188 74.77590065546437
364.412 74.75780083619472
369.713 74.7757891933733
375.09 74.79385558232585
380.546 74.79842262820956
386.081 74.80621872614844
391.697 74.79829887368521
397.394 74.77710466666939
403.175 74.72727186093223
409.039 74.66244449724849
414.989 74.62475504124141
421.025 74.61297187961594
427.149 74.63383850459664
433.362 74.68631140340206
439.665 74.72358542248362
446.06 74.7287470875261
452.548 74.7004438399884
459.131 74.657623649056
465.809 74.63237201371243
472.584 74.63988375163329
479.458 74.67047597689199
486.432 74.68711122399193
493.507 74.65298676700183
500.686 74.61394552688861
507.968 74.59293575568049
515.357 74.56153205569902
522.853 74.5180131496399
530.458 74.52213122254197
538.174 74.5199734332153
546.002 74.54314553108449
553.943 74.57723568556881
562.001 74.56486863716893
570.175 74.5411688405178
578.469 74.48507292859686
586.883 74.40589726387144
595.419 74.38730613344691
604.08 74.40207270403296
612.866 74.46053089865124
621.78 74.49945474986609
630.824 74.51356529848024
640.0 74.5228545199795
649.309 74.52855570000042
658.753 74.57604180728248
668.335 74.60695241673261
678.056 74.62683046944545
687.919 74.61668284977709
697.925 74.54160295747214
708.077 74.50715872089411
718.376 74.5364792722437
728.825 74.5536123053882
739.426 74.58089586052428
750.181 74.61182349332317
761.093 74.62087022060518
772.163 74.60744996411643
783.394 74.64389990654432
794.789 74.68965694421038
806.349 74.72436232044285
818.078 74.79284290319367
829.977 74.82474089592921
842.05 74.82958269421647
854.298 74.85189843347533
866.724 74.85570740686023
879.33 74.84353886426042
892.12 74.84203302741979
905.097 74.84437369527484
918.262 74.84204356015692
931.618 74.82351004830036
945.169 74.82272084156874
958.917 74.80797518441396
972.864 74.82089910698708
987.015 74.84100253721707
1001.37 74.83324460512796
1015.94 74.83217529504059
1030.71 74.81847973226216
1045.71 74.73615918623791
1060.92 74.67116748472861
1076.35 74.62384897428343
1092.0 74.52677589649004
1107.89 74.42293397768827
1124.0 74.35549608435824
1140.35 74.27357466385068
1156.94 73.98193026060102
1173.77 73.80913120552421
1190.84 73.82829175808678
1208.16 73.8712403140737
1225.73 73.97175448095987
1243.56 74.04483567847578
1261.65 73.99591788042825
1280.0 73.98509703538791
1298.62 73.94392570575398
1317.51 73.92195329957005
1336.67 73.98049202275841
1356.11 73.98067755451093
1375.84 73.95882140590166
1395.85 73.92467795824373
1416.15 73.8018069976317
1436.75 73.71328900494184
1457.65 73.64225731621237
1478.85 73.58822493055129
1500.36 73.58165295863549
1522.19 73.59041518831208
1544.33 73.6228194094333
1566.79 73.70885191266473
1589.58 73.80073802847696
1612.7 73.89630178827889
1636.16 73.97137129180388
1659.95 74.02334148382414
1684.1 74.01419300198332
1708.6 74.00167290629084
1733.45 73.96791445388433
1758.66 73.92040621893229
1784.24 73.87865871857278
1810.19 73.81839598001372
1836.52 73.75257448873738
1863.24 73.69403102289459
1890.34 73.61972716791402
1917.83 73.58856473209312
1945.73 73.5527299928855
1974.03 73.44687764572274
2002.74 73.27533858393743
2031.87 73.16942605022808
2061.43 73.1301617283311
2091.41 73.0382326358588
2121.83 72.88243130591884
2152.69 72.71335623040105
2184.01 72.57681345973302
2215.77 72.48909931972742
2248.0 72.42636633081524
2280.7 72.40408538508161
2313.87 72.42784782249356
2347.53 72.44569894640937
2381.68 72.43810954146987
2416.32 72.39456286195266
2451.46 72.33879325798833
2487.12 72.29468864541036
2523.3 72.30254394260908
2560.0 72.37494982307513
2597.24 72.46922764617044
2635.01 72.5484318286569
2673.34 72.59489498180855
2712.23 72.57983179861614
2751.68 72.52423865441406
2791.7 72.46571155258718
2832.31 72.43470557940553
2873.5 72.44666555835354
2915.3 72.5246230171728
2957.7 72.64782041702003
3000.72 72.77009147322201
3044.37 72.85947555647859
3088.65 72.88848195502943
3133.58 72.84645612211872
3179.16 72.8891852981643
3225.4 72.99454773305231
3272.31 73.02603485508659
3319.91 73.06163128807525
3368.2 73.13137465001479
3417.19 73.22405378007562
3466.89 73.34063618782173
3517.32 73.453663274073
3568.48 73.54419034864446
3620.39 73.60977972314305
3673.05 73.64722064164445
3726.47 73.67151314743892
3780.67 73.68421261605468
3835.67 73.69772839458511
3891.46 73.72252408087485
3948.06 73.76336866358228
4005.49 73.82280370325995
4063.75 73.88088785839633
4122.86 73.90851773000443
4182.82 73.88610174006504
4243.66 73.80567743484461
4305.39 73.69488331703569
4368.01 73.59848138794442
4431.55 73.54159577506094
4496.01 73.53179650474979
4561.4 73.55659631831722
4627.75 73.58242715401822
4695.06 73.59765090537675
4763.35 73.60135030705271
4832.64 73.59178510564337
4902.93 73.57107879424437
4974.24 73.53784331859494
5046.6 73.49086391315029
5120.0 73.43512763093405
5194.47 73.37460395554297
5270.03 73.32133284619535
5346.68 73.28799340397386
5424.45 73.28663702973002
5503.35 73.31293579715894
5583.4 73.34569941511151
5664.61 73.35315178354594
5747.01 73.32351729477004
5830.6 73.26742525664181
5915.41 73.20545849812639
6001.45 73.14673736668831
6088.74 73.07467835840765
6177.3 72.95773226764258
6267.15 72.78385267821895
6358.31 72.58296037079364
6450.8 72.40760003279772
6544.62 72.29464177702064
6639.82 72.23992019056001
6736.4 72.2170883748759
6834.38 72.22148642776757
6933.79 72.25929473450904
7034.64 72.32201351553519
7136.96 72.40823447631627
7240.77 72.51463425939772
7346.09 72.61579553372505
7452.94 72.70061697008643
7561.35 72.77037111463213
7671.33 72.80864315716113
7782.91 72.81178691635267
7896.12 72.7952134564143
8010.97 72.75317992990122
8127.49 72.68516803591663
8245.71 72.61156723372483
8365.65 72.52543595261962
8487.33 72.40768811543639
8610.78 72.27680266483424
8736.03 72.15916540620624
8863.09 72.05241449471742
8992.01 71.945556913653
9122.8 71.83903340553408
9255.5 71.72908758019344
9390.12 71.59942678692993
9526.7 71.43480634282662
9665.27 71.24054611055922
9805.86 71.06189260689625
9948.49 70.94214590332118
10093.2 70.89846015595573
10240.0 70.92949433122993
10388.9 71.00331557059256
10540.1 71.0890448355585
10693.4 71.16792985584496
10848.9 71.21437216189557
11006.7 71.206648673201
11166.8 71.13149387987755
11329.2 71.00230036124384
11494.0 70.83954872614399
11661.2 70.65352950482809
11830.8 70.46994485731662
12002.9 70.29592114855753
12177.5 70.12295932243518
12354.6 69.95783607967957
12534.3 69.80332882906441
12716.6 69.66038464669845
12901.6 69.5467280590885
13089.2 69.45975816599498
13279.6 69.38915586455803
13472.8 69.32830370677898
13668.8 69.25365160369188
13867.6 69.15842784353035
14069.3 69.04114719965908
14273.9 68.90263087294309
14481.5 68.75422927963497
14692.2 68.59624609881328
14905.9 68.43542844555343
15122.7 68.27492092527797
15342.7 68.11834548542075
15565.8 67.97860537074942
15792.2 67.85825327649934
16021.9 67.76074516517721
16255.0 67.67883600237505
16491.4 67.59885552883459
16731.3 67.5049346640651
16974.7 67.37490538328713
17221.6 67.1926914999211
17472.1 66.9444187086986
17726.2 66.62191431413223
17984.0 66.23186097223774
18245.6 65.79911416376069
18511.0 65.36080505451781
18780.2 64.95826249741123
19053.4 64.63010143187918
19330.5 64.393298014526
19611.7 64.24211809980238
19897.0 64.15638869418756
