Freq,Floor Bounce,Ceiling Bounce,Front Wall Bounce,Side Wall Bounce,Rear Wall Bounce,Total Early Reflection
22.4,42.56769521305296,40.03049751401599,41.74978706196589,40.88739416129724,39.648452211278595,41.111529378858705
23.0,43.70076749445562,41.430497514016025,43.03213493453924,42.14972974948725,40.926383311055446,42.36692852243675
23.6,44.86769521305291,42.79188145404552,44.260081598556184,43.44755403995305,42.17891957458011,43.61712882245834
24.0,46.00076749445563,44.15380974359445,45.50263119370126,44.70858948123882,43.43978819850906,44.857058131883235
25.0,47.133589826879984,45.516279400836396,46.75873795327732,45.968944210055696,44.66525198656211,46.096228100985286
25.8,48.23358982687998,46.84680983520815,47.987819190638106,47.2068528938496,45.87235514132297,47.30950644978151
26.5,49.3669218511605,48.14680983520813,49.158737953277324,48.42844397050291,47.07744956182435,48.509508019232754
27.2,50.46692185116049,49.377830805945706,50.331420960483456,49.6284439705029,48.23636472390348,49.67883513917727
28.0,51.56692185116049,50.641361504235874,51.488494264292285,50.80920611180409,49.40169483392879,50.84828742348313
29.0,52.66692185116054,51.873142111360835,52.632773082566814,51.99117509502739,50.5584024277708,52.00828393017986
30.0,53.73358982687998,53.037467715513145,53.760081598556155,53.10920611180407,51.682980021154464,53.12653686891892
30.7,54.79999999999998,54.170014882574776,54.86008159855615,54.209206111804065,52.78275808688596,54.22521008774564
31.5,55.83358982687997,55.3030695710425,55.91640947055916,55.3105534446492,53.868021173709934,55.304767215415495
32.5,56.90076749445561,56.40306957104252,56.974311166756706,56.37221372104861,54.94586508497028,56.37682542975375
33.5,57.93358982687997,57.403069571042536,58.01640947055917,57.410553444649196,55.974507682541855,57.40569970533517
34.5,58.90076749445561,58.33663575667188,58.986844461630554,58.39252803247763,56.99771969414857,58.37801267742795
35.5,59.90076749445561,59.27071732495409,59.957756674645324,59.35214086596889,57.978904304067356,59.347475320240235
36.5,60.90076749445562,60.23663575667187,60.857756674645316,60.33428759235062,58.90725581950659,60.3038944523676
37.5,61.86769521305294,61.07071732495409,61.80099441428072,61.25214086596888,59.84752380704465,61.225774695895126
38.7,62.80076749445561,61.905318067664695,62.64414691320782,62.09428869258362,60.740361726933685,62.09533826566714
40.0,63.70076749445562,62.70531806766472,63.500994414280726,62.930667569233336,61.60249211576726,62.94826615468125
41.2,64.53513059177983,63.405318067664695,64.27331062323636,63.73066756923333,62.40726683185943,63.732178453406775
42.5,65.36845083805433,64.07449351030438,65.04608542591295,64.49428869258361,63.163919365854525,64.49642444118084
43.7,66.13513059177981,64.73964531976003,65.77780815001172,65.19428869258363,63.87838282860959,65.21586790780967
45.0,66.90076749445562,65.33964531976001,66.47780815001171,65.8730232925618,64.56421518693448,65.9081874822052
46.2,67.60076749445562,65.90906430015983,67.09299163078428,66.4730232925618,65.2081542818411,66.53811436390859
47.5,68.26769521305295,66.43964531976,67.69681251256304,67.05214086596891,65.80744818215277,67.14008668617916
48.7,68.86769521305294,66.94044167945492,68.28164240754622,67.63066756923334,66.36049387929934,67.70876658391133
50.0,69.43358982687998,67.4404416794549,68.7816424075462,68.11006113976663,66.86397152432514,68.22255742636969
51.5,69.93358982687998,67.87609175449221,69.28164240754622,68.61006113976661,67.32385182526622,68.70601473860663
53.0,70.4,68.27387961222816,69.73754321429634,69.02885834471027,67.74744668426057,69.14322008586895
54.5,70.83358982687999,68.71007799780291,70.22285762747946,69.45034056676337,68.17607338975762,69.5860854698216
56.0,71.2669218511605,69.1778308059457,70.6490001808674,69.87082128013341,68.58640562856306,70.01759913938116
58.0,71.63358982687998,69.60934661896388,71.04709226064557,70.2676451375008,68.9683419631797,70.41030431961185
60.0,72.03358982687998,70.0778308059457,71.4743111667567,70.70875698733447,69.39406856155199,70.83970515028159
61.5,72.43358982687998,70.57783080594571,71.96008159855617,71.12984855622182,69.8289293969919,71.28560995817492
63.0,72.83358982687997,71.11483523633478,72.43012930082682,71.58943152887123,70.28819746395186,71.74545297373612
65.0,73.30076749445563,71.6778308059457,72.94478277687243,72.1116128239878,70.7854887108306,72.25535594349776
67.0,73.73358982687998,72.31007799780292,73.4878191906381,72.63128689490088,71.3612795776866,72.786648812435
69.0,74.2669218511605,72.97783080594571,74.07395729753972,73.21161282398779,71.93697246291009,73.37187325429905
71.0,74.80076749445563,73.5778308059457,74.6173775872785,73.8116128239878,72.53970134850144,73.9428176574435
73.0,75.33358982687997,74.20934661896388,75.18849426429229,74.37419860704154,73.11053143808162,74.5141321039515
75.0,75.8,74.77314211136084,75.71737758727849,74.89359181737285,73.67231969246265,75.0375119019309
77.5,76.3,75.24136150423587,76.17297191737703,75.39359181737285,74.19783815889924,75.52493958781692
80.0,76.70000000000002,75.70542400732663,76.57297191737702,75.79359181737284,74.64494810299988,75.94396837166447
82.5,77.1,76.03821129888743,76.9437907541973,76.15226959352627,75.0233200588899,76.31336679843403
85.0,77.43358982687998,76.33821129888742,77.25840584504061,76.49448290397311,75.36026934873229,76.63845180504859
87.5,77.7669218511605,76.60690501035458,77.55840584504061,76.7544429425558,75.67051988122127,76.93448253986215
90.0,78.0669218511605,76.87150800786938,77.88748929892041,77.0544429425558,75.9756360889507,77.2354472447706
92.5,78.40076749445562,77.17150800786939,78.22979499755905,77.37680320017618,76.27563608895069,77.55779952981945
95.0,78.80076749445561,77.5069050103546,78.60229476693692,77.69805014496487,76.60691694667403,77.91432763266207
97.5,79.16845083805433,77.8069050103546,79.00229476693693,78.0207018812124,76.9227144197985,78.2611746723287
100.0,79.50076749445562,78.10690501035458,79.3590700361194,78.32070188121241,77.21184984536603,78.58108538943569
103.0,79.76845083805433,78.34283030471974,79.60229476693694,78.52070188121242,77.38083700816523,78.81020000323323
106.0,79.90076749445564,78.44283030471973,79.7874892989204,78.66516840337087,77.45546292206542,78.94353230976445
109.0,79.96845083805431,78.5122717831562,79.86035311823196,78.67161637108524,77.43533607967622,78.98898323079982
112.0,80.0007674944556,78.5122717831562,79.90229476693693,78.6914720522429,77.36315424039357,79.0010852604352
115.0,80.06845083805433,78.58219967332305,79.96035311823195,78.71313953999231,77.27973450775394,79.0377993640505
118.0,80.16845083805433,78.61227178315617,80.03175513861906,78.79671297694125,77.2487028066302,79.09780970063579
122.0,80.30076749445561,78.78219967332305,80.18748929892043,78.95678912644873,77.30037926604278,79.23745675946896
125.0,80.46845083805432,78.98219967332305,80.30229476693692,79.1204366302858,77.40161980827227,79.38867053293862
128.0,80.56845083805432,79.11227178315617,80.40229476693692,79.25678912644874,77.50721291135785,79.50171905694964
132.0,80.60076749445561,79.2122717831562,80.48748929892042,79.33326375905617,77.60721291135785,79.57640176394933
136.0,80.60076749445561,79.2122717831562,80.48748929892042,79.33677387477599,77.68511157917519,79.58704224462576
140.0,80.56845083805432,79.2122717831562,80.48748929892042,79.25503169772463,77.71005153269039,79.56680255570187
145.0,80.53663575667187,79.2122717831562,80.46035311823195,79.136773874776,77.71718908770312,79.53120027275978
150.0,80.47150800786939,79.04898514879551,80.47525122642458,78.96648157916896,77.63356611003276,79.44659171420184
155.0,80.37150800786937,78.84898514879549,80.41998423401444,78.74187360004247,77.41167969413661,79.3018861884069
160.0,80.3069050103546,78.58982856673472,80.31998423401443,78.41732295659384,77.00735721670881,79.10524080011898
165.0,80.1760917544922,78.22758719283593,80.20914589305828,78.08552008031016,76.41948412253637,78.85090073268805
170.0,79.97609175449222,77.90963256681621,80.05491760385289,77.76797653406331,75.61268291570676,78.55818572126086
175.0,79.81227178315618,77.68219812790055,79.9111612384014,77.5249485882716,74.79436089508683,78.31366250656951
180.0,79.68219967332304,77.58219812790055,79.83924275721992,77.39588465952339,74.17653876164853,78.16481802414246
185.0,79.61227178315619,77.64898359150843,79.83924275721992,77.43558189513115,73.80801105126653,78.13528614995012
190.0,79.48219967332307,77.68219812790055,79.79366590096782,77.39217894944386,73.57679714473133,78.06730547492617
195.0,79.18219967332305,77.6096325668162,79.53924275721991,77.21194105500615,73.39450083464021,77.8521188729043
200.0,78.88219967332304,77.50963256681621,79.29366590096781,77.01194105500615,73.23964646749772,77.63423859961787
206.0,78.91227178315619,77.77082970284299,79.35000634017072,77.15560262836846,73.31042502663851,77.74041444089976
212.0,79.0457671943847,78.17082970284298,79.56035311823196,77.50489449750529,73.38560053228946,77.9847998308063
218.0,79.18219967332305,78.49897445130925,79.74574459001023,77.88748430179783,73.29980494989594,78.20580237924673
224.0,79.18219967332305,78.76096514237182,79.88748929892041,78.15130410818514,73.26631728522415,78.3506231076493
230.0,79.18982856673472,78.78982856673471,79.96035311823195,78.24759378799851,73.36349174592428,78.40413761015989
236.0,79.16096514237184,78.68982856673472,79.97525122642458,78.21039079867911,73.58627190959577,78.38704908149974
240.0,79.22758719283593,78.52758719283591,80.01998423401443,78.05929007237313,73.74076600805255,78.36374420285526
250.0,79.36096514237182,78.33752777300026,80.11998423401442,77.99821769546394,73.74062961675466,78.37646259937341
258.0,79.43257218046557,78.14898359150841,80.19366590096783,77.97790048898341,73.58377521782843,78.36588395260804
265.0,79.39897445130926,78.04898359150843,80.29366590096782,78.05448951060214,73.40781567193238,78.37199872363315
272.0,79.30963256681619,78.04898359150843,80.23924275721991,78.04102466843932,73.31020335211673,78.32383741443263
280.0,79.12179738688896,77.94898359150841,80.25491760385289,77.93186948969388,73.33447920881144,78.24464251835666
290.0,79.03546263134683,77.86194867563766,80.22940676691627,77.81219806381526,73.41701937912423,78.1825092160019
300.0,79.0094224842602,77.74391724861638,80.29924142396789,77.75980885432665,73.28209717210473,78.15861844944769
307.0,79.0094224842602,77.75999961744989,80.38336396340043,77.71707239352736,72.86825790884279,78.15591337691716
315.0,78.82526453928848,77.792378988098,80.3136394060688,77.61707239352734,72.34123597272126,78.04622859457501
325.0,78.54258273663015,77.7179278976485,80.2600593685791,77.39778398419611,71.8441330588328,77.8817876522604
335.0,78.28538710465898,77.65062128010362,80.15121482311348,77.18480299097266,71.5017849291343,77.71692738248584
345.0,78.16136837622764,77.49237898809801,80.13516047995819,77.0722662117224,71.16271398015803,77.6164290134463
355.0,78.08538710465899,77.4672655885961,80.10433100962668,77.07943640687546,70.84227180109575,77.57055628854654
365.0,78.06136837622763,77.292378988098,80.0106896630263,76.90325436387837,70.54927030161335,77.45405709329049
375.0,77.98538710465897,76.992378988098,79.858217088195,76.53502247744046,70.1759071326173,77.24515193976306
387.0,78.04258273663014,76.55295536787779,79.758217088195,76.08263740079215,69.65967335565736,77.04734513403362
400.0,78.1252645392885,76.04915203998831,79.702876283004,75.78115541651513,69.09684044050114,76.89433074099591
412.0,78.25062128010364,75.26268190818898,79.61106138014496,75.40562454152217,68.63814861457665,76.70058390140669
425.0,78.38382334167595,74.0708960000729,79.47640057047573,74.90995953707039,68.35142661959182,76.45256251611315
437.0,78.5094224842602,72.92680426515606,79.47091054784845,74.56950388638694,68.04422481495517,76.31667522712435
450.0,78.7552196930838,73.22545420369875,79.55378373474548,74.48319109558074,67.75876331791953,76.44191701496487
462.0,79.09897445130926,74.51101842217598,79.65968554741491,74.63828938750743,67.67722374297544,76.75660592198727
475.0,79.28982856673473,75.34010271092208,79.73443179205896,74.75955692429477,67.60869267889508,76.96997737211228
487.0,79.06096514237181,75.79727311966745,79.7106896630263,74.86149527322672,67.36021690499133,76.95799785023156
500.0,78.49897445130925,75.96893616304386,79.58664191481759,74.8762246634145,67.28745685603639,76.76355016614676
515.0,78.06588846059687,76.00921140720403,79.35086213388186,74.55257562278581,67.39548473481818,76.51450127939412
530.0,78.37928732607432,75.90473949550547,79.12579638388722,74.20692452705458,67.05712260777237,76.45404780751993
545.0,79.13358982687998,75.8586572401787,79.05378373474548,74.1758008368204,66.37867506821982,76.65342734332471
560.0,79.8,75.91832544184972,79.03156734312867,74.11859087208734,65.9065651085171,76.88937710070367
580.0,79.96692185116049,76.36726558859611,78.97118930448192,73.77874632876973,65.48174973829164,76.97014995552723
600.0,79.7404416794549,76.97584607527145,79.00082270929393,73.58336192038176,64.23829095453681,76.97162723150552
615.0,79.53257218046556,76.77106744273918,79.17983775130112,73.61332146219776,62.74764197216385,76.90185547002646
630.0,79.67717895989803,76.06941986366729,79.36751662947582,73.76301945875602,62.37368340946854,76.90635615892896
650.0,79.99749950966176,75.21638770313007,79.55366387780147,73.97998417599918,62.30369242245169,76.99173197384805
670.0,79.92699787697725,74.22990957385143,79.48301042603408,73.78923948369656,61.592114283693945,76.79366955479908
690.0,79.52021956404323,73.34171952330976,79.3074800989159,73.23611387724999,60.93429395181715,76.4086877509341
710.0,79.18204905670953,72.32154865751023,79.10748009891589,72.64293389574979,60.19203981905551,76.036777047191
730.0,78.78143621591467,71.39083949114905,78.8669031315327,71.74114768086085,58.97928503997528,75.61260725809478
750.0,78.52924838946487,70.55535907146051,78.7996394049785,70.79673151992164,57.73021141026268,75.3426757437083
775.0,77.7927276533821,70.61721049921988,78.98049974400132,70.68019313694577,58.97329781453682,75.13867767742919
800.0,76.59242058227308,70.44277775075743,79.21522148513215,70.65419533587077,61.8097924188385,74.86610493303243
825.0,76.03158144041335,70.06531718637125,79.28126193049135,70.8211765806955,63.691035443563166,74.75441562891075
850.0,76.73094714327505,70.62802377249942,79.06675866269755,71.04073231764983,64.71074989386062,74.91343629224303
875.0,76.86959103308045,70.72129830443603,79.23972704511334,72.25474478792317,65.04012128774079,75.16883244342249
900.0,76.46548441747308,70.53557346045841,79.3693013819206,72.94122629600339,64.9445538505976,75.18294611794413
925.0,75.71924909504645,70.75334575272603,79.22093228243583,73.02303500800679,63.81077596910028,74.92074224814137
950.0,75.04133545707508,69.83080066193494,78.77194694757591,72.14234076809178,61.993116803478344,74.30951148607636
975.0,74.17235452376653,67.54680047887706,78.43633554312353,71.44995790611321,61.43312501931567,73.68989263480245
1000.0,72.94628221424423,66.34963978119758,78.51011641218652,71.9181750976195,62.386498905612285,73.51283613044377
1030.0,72.31998655717314,66.60131827952114,78.97330292929263,72.76707473322489,62.65371692599311,73.85005755134075
1060.0,70.90445255191631,68.16769521305294,79.43832557846977,73.5680016912959,62.52196332625853,74.19193661502764
1090.0,69.32750889663555,67.38219967332304,79.68929870666403,73.11581566848938,61.6881218411021,74.11959889501296
1120.0,70.93392710127135,61.39070778066615,79.55055534513552,71.83797075672199,60.573336913408525,73.8149377472484
1150.0,71.8350746755819,58.5355784674594,79.42314270231103,71.83554686321727,60.49392161678546,73.79900926466792
1180.0,72.04085778997117,63.27756963133524,79.41018325240991,72.5486244424798,60.36924383686643,73.96193283588356
1220.0,73.40217869587383,66.95614315194662,78.95311111393848,72.05154656239282,60.52509832047559,73.89508527070467
1250.0,73.92201576912734,68.17397173071404,78.82532936705037,72.53141502864733,59.631740075428695,74.02678682483214
1280.0,73.93413898008686,69.73080066193494,78.98317516021497,72.50690952787798,59.42471276776351,74.21447645857131
1320.0,74.32015721102289,70.40378320443462,79.31467853559536,72.93932150955149,59.6777865120698,74.59456255064183
1360.0,74.54869013537069,72.07896989520114,79.87896411215165,73.33469560582843,59.652047219726356,75.16844564214205
1400.0,74.53920982111144,73.56235742942079,80.02049822821766,72.66201652100975,59.45364116568868,75.33934729244865
1450.0,74.48538710465898,73.92179599023939,80.50903501216256,73.17647559180405,59.08215770916499,75.72371660326456
1500.0,74.66702362209318,73.67137679706826,80.35049183151426,72.31824421271804,58.77702059465473,75.5337471813235
1550.0,75.26131925447652,74.23508614678238,80.66976390338657,72.14131205889626,59.10347009388589,75.88744877076067
1600.0,75.71622080590042,74.35800804769343,80.82976506405483,73.03846999756583,59.80515068790598,76.1639012515064
1650.0,75.83237208274653,72.89445716736839,80.00211386499404,71.31484081649451,59.09930103135929,75.36997957910434
1700.0,76.73206927197705,72.0648012258366,79.29590741289698,71.486152097581,58.52173688899968,75.1330526378535
1750.0,77.61317125706968,72.37283593357046,79.3220030385053,72.14555798888927,59.48740313927712,75.50991900892024
1800.0,78.2928378123159,72.03976520486287,79.30755833780677,70.98260645714464,58.09394038148257,75.60951883532584
1850.0,77.9441508923674,71.1907527865353,79.31727260304659,71.19675347829231,57.022141746070076,75.43008360300283
1900.0,77.62101625493386,70.42354309527643,78.9713079234032,70.50826945256271,57.89953864394033,75.04104755929703
1950.0,78.60622691122362,71.25623495782837,79.3693013819206,71.20800335983537,58.078457103762176,75.7108928030995
2000.0,79.80360391550548,71.8612748054792,80.21507624896488,71.76659248278956,58.56975433051494,76.66040825842956
2060.0,79.9029747184299,73.26226370149553,80.82550289230441,72.29378257351921,58.883203512231475,77.12062250607073
2120.0,79.05800804769342,74.10041009172008,80.92430840716504,72.52089397867026,59.10126074876672,76.96542185010998
2180.0,77.99073156635842,74.90566507474115,80.50611315898774,72.42390197759421,58.60794646392709,76.521768564063
2240.0,76.12821508991028,74.93657123656857,79.68113421507833,71.79008238218476,58.39282798704498,75.58421786335327
2300.0,77.21123284744552,75.98031664163969,79.81009194148191,72.21369749137463,58.65867178109684,76.1352760252633
2360.0,77.35493991248688,76.3427508907617,79.83723471949162,71.59511996216041,58.71380633430786,76.2111432946952
2400.0,77.33976520486289,74.404109166386,79.58694067709331,71.03846514827242,58.32409749369428,75.70715377778888
2500.0,77.16562459081086,73.14915539895497,78.88925804138597,70.12172926560888,57.95195550357505,75.080122878752
2580.0,77.46562459081086,71.60968031745807,78.92909693098876,70.08724208743568,57.65828629199373,75.03000591728106
2650.0,77.25872217728471,70.93619428305209,78.99247722730738,69.72639358485617,57.705687168866916,74.91011925773736
2720.0,77.16024099189508,70.00752598211018,78.99297956909042,70.10984535728188,57.34335679628701,74.83224667103917
2800.0,77.18854399594791,69.70302708979375,79.42421288482238,70.48816129133245,57.97046695317192,75.08074746935222
2900.0,76.7535216502699,68.47477236818122,79.81380404847205,70.87947931092626,57.65083907477407,75.13276632378985
3000.0,76.31013348707276,68.13869711145321,79.7349535968451,70.45230347110466,56.98203611695496,74.91216702372262
3070.0,75.67053522126469,67.68367895591848,79.40105559042324,70.31763801098603,56.992031926240884,74.50696278931649
3150.0,77.34805664755615,69.55520360903417,79.5390452422789,71.33948110578284,57.216295303951966,75.24777240924041
3250.0,78.38726784761428,70.44127727300389,78.92795409094848,71.10007531312539,57.361783306110084,75.35556078061842
3350.0,78.82661939649466,72.51152326304965,79.59741559290183,71.53854920618048,57.06757687225135,76.02193240748159
3450.0,78.16048856081633,74.24066805894,79.40066668838372,70.41084629627673,55.232325049856,75.8082615273218
