Freq,On Axis,Listening Window,Sound Power,Early Reflections,Early Reflections DI,Sound Power DI,DI offset
22.4,42.37468354430378,41.624856003038886,42.48493179715213,42.48632554734441,39.13853045569448,39.13992420588676,40
23.0,42.574683544303795,41.945829588728586,42.777280825455435,42.75494021891099,39.1908893698176,39.16854876327315,40
23.6,42.97468354430377,42.4859048038701,43.20340713983545,43.20400123191935,39.28190357195075,39.28249766403465,40
24.0,43.274683544303784,42.9680721236757,43.563759494304506,43.582967505711636,39.38510461796406,39.40431262937119,40
25.0,43.67468354430379,43.455814677454626,43.88764534509657,43.94038678664991,39.515427890804716,39.56816933235805,40
25.8,43.97468354430377,43.99873375127912,44.2329864829254,44.33631435010146,39.66241940117766,39.76574726835372,40
26.5,44.574683544303795,44.818593559873946,44.78536289617658,44.981350908677356,39.83724265119659,40.03323066369737,40
27.2,45.774683544303784,46.15693040018975,45.806282672143496,46.14343931028496,40.01349108990479,40.350647728046255,40
28.0,47.67468354430379,48.03452962065997,47.32088125073811,47.801784750535504,40.23274487012446,40.713648369921856,40
29.0,49.87468354430378,50.10569803497343,49.164157441689824,49.753695811387715,40.352002223585714,40.941540593283605,40
30.0,52.074683544303795,52.22223856007251,51.0976590109084,51.78480396452217,40.43743459555034,41.12457954916411,40
30.7,54.074683544303795,54.1762243551032,52.973002165255295,53.69311433403125,40.48311002107195,41.20322218984791,40
31.5,56.074683544303795,56.07570684010683,54.80136987139194,55.55518689600318,40.520519944103654,41.27433696871489,40
32.5,57.97468354430377,57.97570684010684,56.662164308058536,57.44241521952749,40.53329162057935,41.3135425320483,40
33.5,59.97468354430377,59.964454904700844,58.6079040675058,59.40085298531436,40.563601919386485,41.356550837195044,40
34.5,62.074683544303795,62.06445490470084,60.68895636872462,61.48898665878683,40.57546824591401,41.37549853597622,40
35.5,64.27468354430378,64.23052312116154,62.87269292267597,63.671773257073696,40.558749864087844,41.35783019848557,40
36.5,66.37468354430379,66.33052312116153,64.98306705688488,65.77357263719867,40.556950483962865,41.347456064276656,40
37.5,68.37468354430378,68.31941249488099,66.93910816784371,67.74011641634438,40.579296078536615,41.38030432703728,40
38.7,70.17468354430379,70.14160539546428,68.77378091291446,69.57329766564453,40.56830772981975,41.36782448254982,40
40.0,71.8746835443038,71.819412494881,70.43805886822729,71.23463258306782,40.584779911813186,41.38135362665372,40
41.2,73.37468354430378,73.37468354430378,71.98453024708851,72.78683505739669,40.58784848690709,41.390153297215264,40
42.5,74.87468354430379,74.86368546435043,73.45342527434745,74.26980272423496,40.59388274011546,41.41026019000297,40
43.7,76.17468354430379,76.17468354430379,74.77870934751975,75.57936855091508,40.59531499338871,41.39597419678404,40
45.0,77.47468354430379,77.43052312116154,76.03142153935434,76.84973030805433,40.58079281310721,41.3991015818072,40
46.2,78.57468354430378,78.57468354430378,77.15219684753227,77.96556218749583,40.60912135680795,41.422486696771514,40
47.5,79.67468354430379,79.63052312116154,78.22773632040317,79.04467748556642,40.58584563559512,41.40278680075838,40
48.7,80.67468354430379,80.63052312116154,79.23291940210574,80.04601074824795,40.58451237291359,41.39760371905581,40
50.0,81.5746835443038,81.60827337118376,80.21192002588516,81.01677765916332,40.59149571202043,41.39635334529859,40
51.5,82.57468354430378,82.519412494881,81.1255281531743,81.92296122199672,40.59645127288428,41.393884341706695,40
53.0,83.37468354430378,83.40827337118375,81.99623683996144,82.80708523206316,40.601188139120595,41.41203653122231,40
54.5,84.27468354430378,84.25343085825506,82.81533596901467,83.62505001263976,40.6283808456153,41.43809488924039,40
56.0,84.97468354430379,85.00981413608362,83.60815886085551,84.41028958690143,40.59952454918219,41.40165527522811,40
58.0,85.77468354430378,85.7754510387594,84.34375181076727,85.14733804488442,40.62811299387498,41.43169922799213,40
60.0,86.47468354430379,86.42094931366877,85.00410390639315,85.80691685388514,40.61403245978363,41.416845407275616,40
61.5,87.07468354430378,87.07545103875941,85.62933983810318,86.43397433699481,40.6414767017646,41.44611120065623,40
63.0,87.57468354430378,87.5754510387594,86.16076190149637,86.95846148700356,40.616989551755836,41.414689137263025,40
65.0,88.07468354430377,88.07545103875941,86.64615872729475,87.44637655500159,40.62907448375782,41.429292311464664,40
67.0,88.47468354430379,88.50981413608362,87.0823026488608,87.872711623527,40.63710251255662,41.427511487222816,40
69.0,88.87468354430379,88.90981413608361,87.48869171330134,88.2761885178145,40.63362561826911,41.421122422782275,40
71.0,89.27468354430378,89.2754510387594,87.8402907043169,88.641322444388,40.634128594371404,41.4351603344425,40
73.0,89.57468354430378,89.5754510387594,88.15854991425543,88.95345631123146,40.621994727527934,41.416901124503966,40
75.0,89.87468354430379,89.87545103875941,88.45086459670998,89.24721039973724,40.62824063902217,41.42458644204943,40
77.5,90.17468354430379,90.1431343823581,88.71668088466443,89.51918833355383,40.62394604880427,41.42645349769367,40
80.0,90.37468354430379,90.40981413608361,88.9560206235325,89.75647523409039,40.65333890199322,41.453793512551115,40
82.5,90.67468354430379,90.63205601399869,89.1835904246292,89.99025753130802,40.641798482690675,41.44846558936949,40
85.0,90.87468354430378,90.8320560139987,89.37011150328597,90.18310265273362,40.64895336126507,41.461944510712726,40
87.5,90.97468354430379,90.988466442102,89.51628804335145,90.32805826083089,40.66040818127111,41.47217839875054,40
90.0,91.07468354430378,91.12094931366876,89.63711565831439,90.46026553755684,40.660683776111924,41.483833655354374,40
92.5,91.17468354430379,91.18846644210198,89.71842524909148,90.52658333080115,40.66188311130084,41.4700411930105,40
95.0,91.27468354430378,91.2777531153463,89.79278637729539,90.61599181106631,40.66176130427999,41.484966738050915,40
97.5,91.37468354430379,91.34365579311928,89.82767967093264,90.66194970767306,40.68170608544622,41.51597612218664,40
100.0,91.37468354430379,91.36676281587333,89.84011627947417,90.67340880873608,40.693354007137245,41.526646536399156,40
103.0,91.37468354430379,91.37775311534631,89.84058550662843,90.6728058146165,40.70494730072981,41.53716760871788,40
106.0,91.37468354430379,91.34365579311928,89.81453680112628,90.65696952767068,40.6866862654486,41.529118991993,40
109.0,91.37468354430379,91.31081763730447,89.7659047974659,90.62211390915442,40.688703728150045,41.544912839838574,40
112.0,91.27468354430378,91.25522467234843,89.70406615381518,90.55823809434176,40.69698657800667,41.551158518533256,40
115.0,91.17468354430379,91.1889706941167,89.6307064591748,90.49169073552085,40.69727995859586,41.5582642349419,40
118.0,91.07468354430378,91.09965641863839,89.52811963909208,90.39426360260433,40.70539281603406,41.57153677954631,40
122.0,90.97468354430379,90.9889706941167,89.40330884416329,90.27166545076558,40.71730524335112,41.58566184995341,40
125.0,90.87468354430378,90.83383529152486,89.23580932949251,90.11911795219568,40.714717339329184,41.59802596203235,40
128.0,90.67468354430379,90.67800878114035,89.0687167647189,89.95388248510692,40.72412629603343,41.60929201642145,40
132.0,90.57468354430377,90.52247420570733,88.88739113453154,89.76836039130416,40.75411381440317,41.635083071175785,40
136.0,90.37468354430379,90.33383529152486,88.66940880353708,89.58068672441092,40.75314856711394,41.66442648798778,40
140.0,90.17468354430379,90.13383529152487,88.44856440074071,89.36399939210833,40.76983589941655,41.68527089078417,40
145.0,89.97468354430379,89.93383529152486,88.21431254518308,89.14864764783854,40.785187643686314,41.71952274634178,40
150.0,89.77468354430378,89.7021889111277,87.95981441330404,88.9072626502494,40.79492626087831,41.74237449782366,40
155.0,89.57468354430378,89.5021889111277,87.68454713596371,88.65397036381118,40.84821854731652,41.81764177516399,40
160.0,89.27468354430378,89.28029840877491,87.43351592042616,88.41754517823456,40.86275323054035,41.84678248834875,40
165.0,89.0746835443038,89.04570004004161,87.18734424589134,88.18033155252022,40.865368487521394,41.85835579415027,40
170.0,88.87468354430379,88.85726348226147,86.96152750662769,87.96513709911576,40.89212638314571,41.895735975633784,40
175.0,88.67468354430379,88.69100546628339,86.75286022965882,87.7752411561569,40.91576431012649,41.938145236624564,40
180.0,88.57468354430378,88.52298617802548,86.57879179100482,87.61514245962279,40.90784371840269,41.94419438702066,40
185.0,88.37468354430378,88.40144336054864,86.43392553619883,87.46450851233026,40.936934848218385,41.96751782434981,40
190.0,88.27468354430378,88.27852060980193,86.32677492714703,87.3505075103513,40.928013099450624,41.9517456826549,40
195.0,88.17468354430379,88.21185622836981,86.23801327341327,87.25984112995395,40.952015098415856,41.97384295495654,40
200.0,88.17468354430379,88.15622358541908,86.1824755079963,87.18908875220698,40.9671348332121,41.97374807742278,40
206.0,88.17468354430379,88.12322807898629,86.14160787765464,87.15171874592602,40.97150933306027,41.98162020133165,40
212.0,88.17468354430379,88.11307915549584,86.09318675632538,87.09487771494655,41.01820144054929,42.01989239917046,40
218.0,88.27468354430378,88.14846458108782,86.04592638168948,87.05113470237804,41.097329878709786,42.10253819939834,40
224.0,88.37468354430378,88.17128408943978,85.99203830735773,86.99900633786199,41.172277751577795,42.17924578208205,40
230.0,88.37468354430378,88.22827287300638,85.94755901934289,86.97717512576571,41.251097747240664,42.280713853663485,40
236.0,88.47468354430379,88.21985938866351,85.9013226719069,86.92686400933522,41.29299537932829,42.31853671675661,40
240.0,88.47468354430379,88.24282929772818,85.86740231937316,86.89999894163681,41.34283035609137,42.37542697835502,40
250.0,88.47468354430379,88.24282929772818,85.82266793824763,86.85615536862844,41.38667392909974,42.420161359480545,40
258.0,88.47468354430379,88.22109708222916,85.78532154841186,86.80748455997387,41.41361252225529,42.435775533817306,40
265.0,88.47468354430379,88.19719971557643,85.77051758411179,86.77102420177835,41.426175513798086,42.426682131464645,40
272.0,88.37468354430378,88.11952972152726,85.75795619104295,86.7251385843252,41.394391137202064,42.36157353048431,40
280.0,88.27468354430378,88.031433563117,85.73114927695,86.65636604433948,41.37506751877753,42.300284286167,40
290.0,88.27468354430378,87.97625605554025,85.71217027531439,86.5996309893372,41.37662506620305,42.264085780225855,40
300.0,88.17468354430379,87.89869372866299,85.66858641110284,86.53043744631627,41.36825628234672,42.230107317560154,40
307.0,88.17468354430379,87.8460717052409,85.63010825291535,86.44890777775338,41.397163927487526,42.21596345232555,40
315.0,88.17468354430379,87.82481185050004,85.58808051621297,86.40495260005598,41.41985925044406,42.23673133428707,40
325.0,88.17468354430379,87.78070934546353,85.53047357836884,86.3506229581039,41.43008638735964,42.25023576709469,40
335.0,88.17468354430379,87.77114527823773,85.44799929638772,86.27521750833799,41.49592776989974,42.323145981850004,40
345.0,88.17468354430379,87.73914881616001,85.34268971802119,86.19566022658265,41.543488589577365,42.39645909813882,40
355.0,88.07468354430377,87.6936093033439,85.2128874157614,86.08190341659848,41.611705886745426,42.480721887582504,40
365.0,88.07468354430377,87.64158872292974,85.06946138826963,85.97416465189976,41.667424071029984,42.57212733466011,40
375.0,88.07468354430377,87.5660743082205,84.8985185945401,85.83741759267778,41.72865671554271,42.667555713680386,40
387.0,87.9746835443038,87.500825928266,84.69841518557438,85.69441832666571,41.806407601600284,42.80241074269162,40
400.0,87.87468354430379,87.39201444936643,84.47080976247454,85.51649490380026,41.87551954556616,42.92120468689188,40
412.0,87.77468354430378,87.26849894198621,84.21959212396996,85.31786254304556,41.950636398940645,43.04890681801625,40
425.0,87.57468354430378,87.07734568462587,83.9875767037643,85.12583883269166,41.95150685193421,43.089768980861564,40
437.0,87.37468354430379,86.89740734466547,83.75668430687858,84.94303631360931,41.954371031056155,43.140723037786884,40
450.0,87.17468354430379,86.68646673256593,83.54569617691881,84.74459358207456,41.941873150491375,43.14077055564712,40
462.0,86.97468354430377,86.51779539914965,83.36291060289615,84.57686117334221,41.94093422580744,43.1548847962535,40
475.0,86.8746835443038,86.35261313636938,83.20015770992485,84.43217765885446,41.92043547751493,43.15245542644453,40
487.0,86.77468354430378,86.24205707706416,83.05537915075813,84.34834773149097,41.893709345573185,43.18667792630603,40
500.0,86.77468354430378,86.23240741453942,82.92240943920429,84.28660522991878,41.945802184620646,43.309997975335136,40
515.0,86.8746835443038,86.29396365903331,82.79052937190623,84.27760122583939,42.01636243319392,43.50343428712708,40
530.0,86.97468354430377,86.41018254424135,82.6759969954546,84.3055310283516,42.104651515889756,43.734185548786755,40
545.0,87.17468354430379,86.52793822317327,82.53941774590022,84.32020428886877,42.2077339343045,43.98852047727304,40
560.0,87.27468354430378,86.63168832524096,82.39998293567875,84.36431504678963,42.26737327845133,44.23170538956221,40
580.0,87.37468354430379,86.74276763037773,82.29243386362033,84.41234677854656,42.330420851831164,44.450333766757396,40
600.0,87.47468354430379,86.81869328988974,82.20179735059557,84.47479931444444,42.3438939754453,44.61689593929417,40
615.0,87.47468354430379,86.857667184889,82.10392745239784,84.52038551991005,42.337281664978946,44.753739732491155,40
630.0,87.57468354430378,86.9295531193544,82.01612960637648,84.56958727198328,42.359965847371114,44.913423512977914,40
650.0,87.57468354430378,86.940637866016,81.92950655336216,84.60030189856053,42.340335967455474,45.011131312653845,40
670.0,87.57468354430378,86.95568102965991,81.86083565307128,84.60223792836783,42.353443101292086,45.09484537658864,40
690.0,87.67468354430379,86.97198613295653,81.80647141342301,84.61328638423586,42.35869974872067,45.16551471953352,40
710.0,87.77468354430378,87.02284464056544,81.76180286182615,84.6224331217656,42.40041151879984,45.26104177873928,40
730.0,87.87468354430379,87.05350654516741,81.70774942813408,84.61274721631547,42.44075932885194,45.34575711703333,40
750.0,87.87468354430379,87.10060284082202,81.66683509883042,84.64150925997676,42.45909358084526,45.4337677419916,40
775.0,87.9746835443038,87.1186953022813,81.57305121343695,84.59868258329035,42.52001271899094,45.54564408884434,40
800.0,87.87468354430379,87.06398653389553,81.45544494867377,84.52569809814791,42.53828843574762,45.60854158522176,40
825.0,87.87468354430379,87.05670537023371,81.34917128151424,84.4780731650845,42.57863220514922,45.70753408871947,40
850.0,87.87468354430379,87.02631746678595,81.23328453089182,84.4127703844809,42.61354708230506,45.79303293589413,40
875.0,87.9746835443038,87.08398115462386,81.14822560880462,84.39838476049627,42.685596394127586,45.935755545819234,40
900.0,87.9746835443038,87.10634748221422,81.08721718352885,84.39130968508168,42.71503779713254,46.01913029868537,40
925.0,87.9746835443038,87.11778240906656,81.00306776960723,84.3628233351344,42.75495907393217,46.114714639459336,40
950.0,87.9746835443038,87.13083823176083,80.93362872862103,84.32759735827352,42.80324087348731,46.1972095031398,40
975.0,87.9746835443038,87.10663909824386,80.85669801673727,84.2885119687858,42.81812712945806,46.24994108150659,40
1000.0,87.87468354430379,87.01471053040667,80.78127090285544,84.23014328252182,42.78456724788485,46.233439627551235,40
1030.0,87.77468354430378,86.90704139767999,80.69130150640653,84.16123419090859,42.7458072067714,46.21573989127346,40
1060.0,87.67468354430379,86.82155315296207,80.59055644542424,84.10690937766738,42.71464377529469,46.23099670753783,40
1090.0,87.57468354430378,86.72321680481463,80.46934301627519,84.01357338599442,42.70964341882021,46.25387378853944,40
1120.0,87.47468354430379,86.6425206607538,80.34022539043232,83.93349228388665,42.70902837686715,46.30229527032148,40
1150.0,87.47468354430379,86.6140958265203,80.20568980094394,83.85341450467978,42.76068132184052,46.408406025576355,40
1180.0,87.47468354430379,86.61808509435535,80.03425515173565,83.73514932872526,42.882935765630094,46.5838299426197,40
1220.0,87.57468354430378,86.62095068796984,79.84363918212152,83.61512698283717,43.00582370513267,46.77731150584832,40
1250.0,87.67468354430379,86.67530521627076,79.65942435039186,83.50782749673837,43.167477719532386,47.0158808658789,40
1280.0,87.67468354430379,86.6607068553647,79.46219618357742,83.37209557549033,43.28861127987436,47.198510671787275,40
1320.0,87.67468354430379,86.61154487119045,79.27615977011017,83.21773796058635,43.3938069106041,47.33538510108028,40
1360.0,87.57468354430378,86.54575214810404,79.0952580387567,83.06778958157004,43.477962566534,47.450494109347346,40
1400.0,87.47468354430379,86.45385669967818,78.91569555220345,82.89149474254417,43.562361957134016,47.53816114747474,40
1450.0,87.37468354430379,86.33678391510428,78.73120087109317,82.71746519448659,43.619318720617684,47.60558304401111,40
1500.0,87.27468354430378,86.21898180805206,78.58007160316444,82.57275140304337,43.646230405008694,47.63891020488762,40
1550.0,87.27468354430378,86.1926382850426,78.50307471266497,82.4863433305207,43.70629495452191,47.68956357237764,40
1600.0,87.27468354430378,86.22770667495172,78.51712924299353,82.5022266105013,43.72548006445042,47.710577431958185,40
1650.0,87.37468354430379,86.29536826698822,78.5714005253883,82.55553124369193,43.73983702329629,47.72396774159992,40
1700.0,87.37468354430379,86.36466133873698,78.64473904323809,82.63322167453109,43.731439664205894,47.71992229549889,40
1750.0,87.37468354430379,86.41480620503593,78.70560025001733,82.69197655539463,43.7228296496413,47.709205955018604,40
1800.0,87.37468354430379,86.45081459232718,78.74673564424188,82.71879948699167,43.732015105335506,47.7040789480853,40
1850.0,87.37468354430379,86.46580898584908,78.77608825188399,82.76002243198847,43.705786553860605,47.68972073396509,40
1900.0,87.27468354430378,86.45224671299152,78.77857261987732,82.76506034855133,43.687186364440194,47.6736740931142,40
1950.0,87.27468354430378,86.4791449500513,78.73531689512218,82.7666742962121,43.712470653839205,47.743828054929125,40
2000.0,87.27468354430378,86.52194546917947,78.6864311190957,82.76529990917102,43.75664556000845,47.83551435008377,40
2060.0,87.27468354430378,86.52167427539322,78.59478048230487,82.70822725637612,43.813447019017104,47.926893793088354,40
2120.0,87.27468354430378,86.56589714151325,78.54012618687729,82.6471059938575,43.91879114765575,48.02577095463596,40
2180.0,87.27468354430378,86.5963642738168,78.53454029901361,82.61493943777107,43.98142483604573,48.06182397480319,40
2240.0,87.27468354430378,86.59983733529546,78.54529810435675,82.59456608329606,44.0052712519994,48.054539230938715,40
2300.0,87.27468354430378,86.58295886095054,78.57673709174203,82.59290800955452,43.99005085139602,48.00622176920851,40
2360.0,87.17468354430379,86.54104357773375,78.61975261174342,82.57462809729452,43.966415480439224,47.92129096599032,40
2400.0,87.07468354430378,86.45800926689137,78.66430073749059,82.56596139794465,43.89204786894672,47.793708529400774,40
2500.0,86.8746835443038,86.36525367113211,78.69980912497928,82.54933784013353,43.81591583099858,47.66544454615283,40
2580.0,86.77468354430378,86.3254197355811,78.7660527978582,82.59256509222091,43.732854643360184,47.5593669377229,40
2650.0,86.67468354430379,86.31322132510512,78.82457837371408,82.64619974625857,43.667021578846544,47.48864295139104,40
2720.0,86.67468354430379,86.352234728248,78.92482542894936,82.73600804370741,43.61622668454059,47.427409299298645,40
2800.0,86.67468354430379,86.37376651385601,79.01590479847319,82.834144808001,43.53962170585501,47.357861715382825,40
2900.0,86.77468354430378,86.44798104409448,79.12396132669308,82.95283441031533,43.49514663377914,47.3240197174014,40
