Freq "Early Reflections DI"
22.4 39.13853045569445
23.0 39.1908893698176
23.6 39.28190357195075
24.0 39.38510461796409
25.0 39.51542789080469
25.8 39.66241940117769
26.5 39.83724265119659
27.2 40.01349108990479
28.0 40.23274487012449
29.0 40.35200222358574
30.0 40.437434595550314
30.7 40.48311002107195
31.5 40.520519944103654
32.5 40.53329162057935
33.5 40.563601919386514
34.5 40.57546824591404
35.5 40.558749864087844
36.5 40.556950483962865
37.5 40.579296078536615
38.7 40.56830772981978
40.0 40.584779911813186
41.2 40.58784848690709
42.5 40.59388274011546
43.7 40.59531499338871
45.0 40.58079281310721
46.2 40.60912135680795
47.5 40.585845635595135
48.7 40.58451237291359
50.0 40.59149571202046
51.5 40.59645127288428
53.0 40.60118813912062
54.5 40.62838084561527
56.0 40.599524549182206
58.0 40.62811299387498
60.0 40.61403245978363
61.5 40.64147670176459
63.0 40.61698955175585
65.0 40.62907448375782
67.0 40.63710251255661
69.0 40.63362561826912
71.0 40.63412859437142
73.0 40.62199472752795
75.0 40.62824063902214
77.5 40.623946048804285
80.0 40.65333890199325
82.5 40.64179848269066
85.0 40.64895336126504
87.5 40.66040818127111
90.0 40.66068377611195
92.5 40.661883111300824
95.0 40.66176130427999
97.5 40.681706085446194
100.0 40.693354007137245
103.0 40.7049473007298
106.0 40.68668626544857
109.0 40.68870372815003
112.0 40.69698657800666
115.0 40.69727995859586
118.0 40.70539281603405
122.0 40.717305243351106
125.0 40.71471733932917
128.0 40.72412629603343
132.0 40.75411381440318
136.0 40.75314856711394
140.0 40.76983589941652
145.0 40.785187643686314
150.0 40.79492626087833
155.0 40.848218547316506
160.0 40.86275323054036
165.0 40.86536848752142
170.0 40.89212638314572
175.0 40.915764310126505
180.0 40.90784371840269
185.0 40.93693484821837
190.0 40.928013099450595
195.0 40.95201509841587
200.0 40.967134833212114
206.0 40.97150933306028
212.0 41.01820144054929
218.0 41.0973298787098
224.0 41.17227775157778
230.0 41.251097747240664
236.0 41.29299537932829
240.0 41.34283035609134
250.0 41.38667392909974
258.0 41.41361252225529
265.0 41.426175513798114
272.0 41.39439113720208
280.0 41.37506751877753
290.0 41.37662506620305
300.0 41.368256282346735
307.0 41.397163927487526
315.0 41.41985925044405
325.0 41.43008638735964
335.0 41.49592776989975
345.0 41.54348858957738
355.0 41.61170588674544
365.0 41.66742407103
375.0 41.72865671554274
387.0 41.806407601600284
400.0 41.87551954556616
412.0 41.95063639894066
425.0 41.95150685193421
437.0 41.95437103105617
450.0 41.94187315049139
462.0 41.940934225807425
475.0 41.92043547751493
487.0 41.893709345573185
500.0 41.945802184620646
515.0 42.01636243319392
530.0 42.10465151588977
545.0 42.2077339343045
560.0 42.267373278451316
580.0 42.330420851831164
600.0 42.3438939754453
615.0 42.337281664978946
630.0 42.35996584737113
650.0 42.340335967455445
670.0 42.353443101292115
690.0 42.35869974872065
710.0 42.40041151879986
730.0 42.440759328851954
750.0 42.45909358084528
775.0 42.52001271899094
800.0 42.53828843574763
825.0 42.57863220514922
850.0 42.613547082305075
875.0 42.6855963941276
900.0 42.71503779713255
925.0 42.754959073932156
950.0 42.80324087348731
975.0 42.81812712945806
1000.0 42.78456724788484
1030.0 42.74580720677139
1060.0 42.714643775294704
1090.0 42.709643418820235
1120.0 42.70902837686714
1150.0 42.76068132184052
1180.0 42.88293576563011
1220.0 43.00582370513267
1250.0 43.16747771953237
1280.0 43.288611279874345
1320.0 43.393806910604084
1360.0 43.477962566533975
1400.0 43.56236195713403
1450.0 43.619318720617684
1500.0 43.64623040500868
1550.0 43.70629495452188
1600.0 43.725480064450394
1650.0 43.739837023296275
1700.0 43.731439664205865
1750.0 43.722829649641284
1800.0 43.73201510533552
1850.0 43.70578655386062
1900.0 43.68718636444021
1950.0 43.71247065383923
2000.0 43.756645560008465
2060.0 43.813447019017104
2120.0 43.91879114765574
2180.0 43.98142483604573
2240.0 44.0052712519994
2300.0 43.99005085139605
2360.0 43.966415480439196
2400.0 43.89204786894672
2500.0 43.81591583099859
2580.0 43.73285464336017
2650.0 43.66702157884656
2720.0 43.616226684540564
2800.0 43.539621705855026
2900.0 43.49514663377913
3000.0 43.45036881652034
3070.0 43.44398272623013
3150.0 43.4476116203801
3250.0 43.46161799634325
3350.0 43.49462520799378
3450.0 43.50571777164416
3550.0 43.54095439698068
3650.0 43.57666662919638
3750.0 43.612173501412585
3870.0 43.66916541336427
4000.0 43.726366450856176
4120.0 43.765913166446225
4250.0 43.799639868314046
4370.0 43.82341727477812
4500.0 43.86683046897329
4620.0 43.88947712639519
4750.0 43.91919656541003
4870.0 43.94411647640261
5000.0 43.97126594407327
5150.0 43.99847173693847
5300.0 44.0172205058775
5450.0 44.024947466051884
5600.0 44.062821141632256
5800.0 44.11502668055007
6000.0 44.17407179310861
6150.0 44.200515713625876
6300.0 44.21724488012741
6500.0 44.21056641003176
6700.0 44.19675043984785
6900.0 44.19405944867603
7100.0 44.208886180501366
7300.0 44.22704982230654
7500.0 44.18752775737234
7750.0 44.13414189158932
8000.0 44.11050162274326
8250.0 44.1028985869622
8500.0 44.158947131994
8750.0 44.17745165414951
9000.0 44.16750999415581
9250.0 44.180602073645005
9500.0 44.209811292939335
9750.0 44.22621421273513
10000.0 44.241056692644506
10300.0 44.27185345426082
10600.0 44.29593520973228
10900.0 44.331364424263754
11200.0 44.387120382450135
11500.0 44.420860611242034
11800.0 44.403101540424785
12200.0 44.39129956185434
12500.0 44.38999181562521
12800.0 44.412372937009906
13200.0 44.443066800675126
13600.0 44.45259788767716
14000.0 44.46396177877085
14500.0 44.48555256349486
15000.0 44.53283631449324
15500.0 44.58851079729325
16000.0 44.65060418606119
16500.0 44.71159088997362
17000.0 44.78101158588299
17500.0 44.872613643560825
18000.0 45.01851905182885
18500.0 45.12419355913809
19000.0 45.2240949798838
19500.0 45.294376238019325
