Freq "Listening Window"
22.4 40.6501724587351
23.0 40.9711460444248
23.6 41.51122125956631
24.0 41.99338857937191
25.0 42.48113113315081
25.8 43.02405020697536
26.5 43.84391001557016
27.2 45.182246855885964
28.0 47.05984607635621
29.0 49.13101449066967
30.0 51.247555015768725
30.7 53.201540810799415
31.5 55.101023295803046
32.5 57.00102329580305
33.5 58.98977136039706
34.5 61.08977136039705
35.5 63.25583957685775
36.5 65.35583957685776
37.5 67.34472895057722
38.7 69.16692185116051
40.0 70.8447289505772
41.2 72.4
42.5 73.88900192004665
43.7 75.2
45.0 76.45583957685776
46.2 77.59999999999998
47.5 78.65583957685776
48.7 79.65583957685776
50.0 80.63358982687998
51.5 81.54472895057721
53.0 82.43358982687998
54.5 83.27874731395126
56.0 84.03513059177983
58.0 84.80076749445561
60.0 85.44626576936498
61.5 86.10076749445561
63.0 86.60076749445561
65.0 87.10076749445561
67.0 87.53513059177983
69.0 87.93513059177984
71.0 88.30076749445563
73.0 88.60076749445561
75.0 88.90076749445561
77.5 89.16845083805433
80.0 89.43513059177984
82.5 89.65737246969489
85.0 89.8573724696949
87.5 90.0137828977982
90.0 90.14626576936499
92.5 90.2137828977982
95.0 90.30306957104251
97.5 90.36897224881548
100.0 90.39207927156954
103.0 90.40306957104252
106.0 90.36897224881548
109.0 90.33613409300067
112.0 90.28054112804465
115.0 90.21428714981293
118.0 90.1249728743346
122.0 90.01428714981292
125.0 89.85915174722108
128.0 89.70332523683656
132.0 89.54779066140354
136.0 89.35915174722108
140.0 89.15915174722107
145.0 88.95915174722109
150.0 88.72750536682392
155.0 88.52750536682392
160.0 88.30561486447114
165.0 88.07101649573784
170.0 87.88257993795769
175.0 87.71632192197961
180.0 87.54830263372169
185.0 87.42675981624484
190.0 87.30383706549813
195.0 87.23717268406604
200.0 87.18154004111531
206.0 87.1485445346825
212.0 87.13839561119207
218.0 87.17378103678405
224.0 87.196600545136
230.0 87.25358932870257
236.0 87.24517584435971
240.0 87.26814575342438
250.0 87.26814575342438
258.0 87.24641353792538
265.0 87.22251617127266
272.0 87.14484617722347
280.0 87.05675001881322
290.0 87.00157251123646
300.0 86.92401018435922
307.0 86.87138816093713
315.0 86.85012830619624
325.0 86.80602580115976
335.0 86.79646173393395
345.0 86.76446527185622
355.0 86.71892575904013
365.0 86.66690517862595
375.0 86.59139076391672
387.0 86.52614238396221
400.0 86.41733090506263
412.0 86.29381539768244
425.0 86.1026621403221
437.0 85.92272380036168
450.0 85.71178318826216
462.0 85.54311185484585
475.0 85.3779295920656
487.0 85.26737353276037
500.0 85.25772387023562
515.0 85.31928011472952
530.0 85.43549899993756
545.0 85.55325467886948
560.0 85.65700478093716
580.0 85.76808408607394
600.0 85.84400974558595
615.0 85.88298364058521
630.0 85.95486957505061
650.0 85.9659543217122
670.0 85.98099748535614
690.0 85.99730258865274
710.0 86.04816109626167
730.0 86.07882300086364
750.0 86.12591929651825
775.0 86.1440117579775
800.0 86.08930298959176
825.0 86.08202182592994
850.0 86.05163392248217
875.0 86.10929761032007
900.0 86.13166393791045
925.0 86.14309886476276
950.0 86.15615468745705
975.0 86.13195555394006
1000.0 86.04002698610289
1030.0 85.93235785337619
1060.0 85.8468696086583
1090.0 85.74853326051085
1120.0 85.66783711645
1150.0 85.6394122822165
1180.0 85.64340155005156
1220.0 85.64626714366607
1250.0 85.70062167196697
1280.0 85.68602331106091
1320.0 85.63686132688666
1360.0 85.57106860380024
1400.0 85.4791731553744
1450.0 85.3621003708005
1500.0 85.24429826374826
1550.0 85.2179547407388
1600.0 85.25302313064792
1650.0 85.32068472268442
1700.0 85.38997779443318
1750.0 85.44012266073214
1800.0 85.47613104802339
1850.0 85.49112544154531
1900.0 85.47756316868774
1950.0 85.50446140574753
2000.0 85.5472619248757
2060.0 85.54699073108942
2120.0 85.59121359720945
2180.0 85.621680729513
2240.0 85.62515379099169
2300.0 85.60827531664677
2360.0 85.56636003342994
2400.0 85.48332572258757
2500.0 85.39057012682834
2580.0 85.3507361912773
2650.0 85.33853778080135
2720.0 85.3775511839442
2800.0 85.39908296955223
2900.0 85.47329749979068
3000.0 85.50683824118065
3070.0 85.55306131578624
3150.0 85.58085863006771
3250.0 85.5908892375743
3350.0 85.57910289896624
3450.0 85.52612787100831
3550.0 85.46639778786717
3650.0 85.39239258489395
3750.0 85.33120146735033
3870.0 85.2806837071196
4000.0 85.2609484046565
4120.0 85.21008771343479
4250.0 85.1932441237707
4370.0 85.16916615180422
4500.0 85.14086139601561
4620.0 85.1271409956492
4750.0 85.09027370729102
4870.0 85.0343308939986
5000.0 84.98592695276676
5150.0 84.93503216618423
5300.0 84.8794240800829
5450.0 84.83725143714749
5600.0 84.7852502745727
5800.0 84.7817411665586
6000.0 84.75444999699124
6150.0 84.67714324939847
6300.0 84.6100715141698
6500.0 84.52246761601279
6700.0 84.42578822919369
6900.0 84.42053807058402
7100.0 84.45343796001272
7300.0 84.51721942070867
7500.0 84.5457637379787
7750.0 84.56735929631309
8000.0 84.60142647810757
8250.0 84.68270229901707
8500.0 84.78674695028619
8750.0 84.84281048878653
9000.0 84.84281048878653
9250.0 84.85508175918305
9500.0 84.85275852373721
9750.0 84.86913514565818
10000.0 84.87675171344384
10300.0 84.86923233678597
10600.0 84.77628535947359
10900.0 84.69547020498707
11200.0 84.62883226821906
11500.0 84.52247298572578
11800.0 84.333663182633
12200.0 84.15693464396985
12500.0 83.97613523170118
12800.0 83.80860778115665
13200.0 83.62548162280066
13600.0 83.37538552241675
14000.0 83.06350138353201
14500.0 82.68087869771588
15000.0 82.29886332610697
15500.0 81.78855869349407
16000.0 81.2258530456857
16500.0 80.5461933129153
17000.0 79.70972723740981
17500.0 78.87503269065297
18000.0 78.01498389330396
18500.0 77.14800678547725
19000.0 76.15511285470494
19500.0 74.86233030472248
