Freq "Sound Power"
22.4 41.51024825284834
23.0 41.80259728115165
23.6 42.22872359553166
24.0 42.58907595000072
25.0 42.912961800792786
25.8 43.25830293862161
26.5 43.81067935187279
27.2 44.83159912783971
28.0 46.34619770643435
29.0 48.18947389738604
30.0 50.122975466604586
30.7 51.99831862095151
31.5 53.826686327088154
32.5 55.68748076375472
33.5 57.63322052320204
34.5 59.71427282442086
35.5 61.89800937837218
36.5 64.00838351258109
37.5 65.96442462353993
38.7 67.79909736861067
40.0 69.46337532392351
41.2 71.00984670278474
42.5 72.47874173004368
43.7 73.80402580321596
45.0 75.05673799505057
46.2 76.17751330322848
47.5 77.25305277609938
48.7 78.25823585780195
50.0 79.23723648158136
51.5 80.15084460887051
53.0 81.02155329565767
54.5 81.84065242471088
56.0 82.63347531655172
58.0 83.36906826646349
60.0 84.02942036208938
61.5 84.65465629379939
63.0 85.18607835719259
65.0 85.67147518299096
67.0 86.107619104557
69.0 86.51400816899756
71.0 86.86560716001311
73.0 87.18386636995164
75.0 87.4761810524062
77.5 87.74199734036064
80.0 87.9813370792287
82.5 88.20890688032542
85.0 88.39542795898218
87.5 88.54160449904766
90.0 88.6624321140106
92.5 88.74374170478771
95.0 88.81810283299158
97.5 88.85299612662884
100.0 88.86543273517039
103.0 88.86590196232466
106.0 88.8398532568225
109.0 88.7912212531621
112.0 88.72938260951138
115.0 88.65602291487103
118.0 88.5534360947883
122.0 88.42862529985949
125.0 88.26112578518872
128.0 88.0940332204151
132.0 87.91270759022775
136.0 87.69472525923331
140.0 87.4738808564369
145.0 87.23962900087929
150.0 86.98513086900026
155.0 86.70986359165991
160.0 86.45883237612237
165.0 86.21266070158757
170.0 85.9868439623239
175.0 85.77817668535504
180.0 85.60410824670105
185.0 85.45924199189506
190.0 85.35209138284326
195.0 85.26332972910947
200.0 85.20779196369251
206.0 85.16692433335085
212.0 85.1185032120216
218.0 85.07124283738568
224.0 85.01735476305394
230.0 84.97287547503909
236.0 84.92663912760311
240.0 84.89271877506938
250.0 84.84798439394385
258.0 84.81063800410807
265.0 84.79583403980801
272.0 84.78327264673915
280.0 84.75646573264622
290.0 84.7374867310106
300.0 84.69390286679904
307.0 84.65542470861156
315.0 84.61339697190918
325.0 84.55579003406505
335.0 84.47331575208392
345.0 84.3680061737174
355.0 84.23820387145763
365.0 84.09477784396583
375.0 83.92383505023633
387.0 83.7237316412706
400.0 83.49612621817076
412.0 83.24490857966616
425.0 83.01289315946052
437.0 82.78200076257481
450.0 82.57101263261501
462.0 82.38822705859236
475.0 82.22547416562107
487.0 82.08069560645434
500.0 81.94772589490049
515.0 81.81584582760243
530.0 81.7013134511508
545.0 81.56473420159644
560.0 81.42529939137496
580.0 81.31775031931656
600.0 81.2271138062918
615.0 81.12924390809407
630.0 81.04144606207268
650.0 80.95482300905839
670.0 80.88615210876749
690.0 80.83178786911921
710.0 80.78711931752237
730.0 80.73306588383029
750.0 80.69215155452663
775.0 80.59836766913317
800.0 80.48076140436997
825.0 80.37448773721044
850.0 80.25860098658802
875.0 80.17354206450085
900.0 80.11253363922508
925.0 80.02838422530343
950.0 79.95894518431723
975.0 79.88201447243348
1000.0 79.80658735855164
1030.0 79.71661796210276
1060.0 79.61587290112045
1090.0 79.49465947197142
1120.0 79.36554184612852
1150.0 79.23100625664016
1180.0 79.05957160743186
1220.0 78.86895563781775
1250.0 78.68474080608807
1280.0 78.48751263927362
1320.0 78.30147622580637
1360.0 78.1205744944529
1400.0 77.94101200789964
1450.0 77.75651732678936
1500.0 77.60538805886064
1550.0 77.5283911683612
1600.0 77.54244569868975
1650.0 77.59671698108451
1700.0 77.6700554989343
1750.0 77.73091670571353
1800.0 77.77205209993811
1850.0 77.8014047075802
1900.0 77.80388907557354
1950.0 77.76063335081841
2000.0 77.71174757479193
2060.0 77.62009693800107
2120.0 77.56544264257349
2180.0 77.55985675470983
2240.0 77.57061456005295
2300.0 77.60205354743823
2360.0 77.64506906743964
2400.0 77.68961719318679
2500.0 77.7251255806755
2580.0 77.79136925355441
2650.0 77.84989482941027
2720.0 77.95014188464559
2800.0 78.0412212541694
2900.0 78.14927778238929
3000.0 78.21825535465143
3070.0 78.26064762105757
3150.0 78.2554669845235
3250.0 78.20886583543724
3350.0 78.13766305152745
3450.0 78.02878761787302
3550.0 77.90145600250594
3650.0 77.76637942466292
3750.0 77.65281101971316
3870.0 77.54369254122533
4000.0 77.45738110634368
4120.0 77.3491781196934
4250.0 77.26565579143623
4370.0 77.18096326963416
4500.0 77.08170660696858
4620.0 77.0018425290925
4750.0 76.90712321903467
4870.0 76.823820400875
5000.0 76.73343608875082
5150.0 76.6563751959556
5300.0 76.57210414998819
5450.0 76.50485867135002
5600.0 76.39371983166006
5800.0 76.31275361802837
6000.0 76.21442458380399
6150.0 76.11034612805429
6300.0 76.0407249850532
6500.0 75.9546438866282
6700.0 75.88516335070254
6900.0 75.87674744916642
7100.0 75.8752810733697
7300.0 75.89323248392154
7500.0 75.91804056691309
7750.0 75.96042111093884
8000.0 76.00196430736422
8250.0 76.06500484422567
8500.0 76.10666014591031
8750.0 76.1303667748969
9000.0 76.13540503739442
9250.0 76.12921198814372
9500.0 76.0996569212996
9750.0 76.08053215261849
10000.0 76.03457133204215
10300.0 75.9798895002583
10600.0 75.85149035070476
10900.0 75.71964261074645
11200.0 75.58089949746498
11500.0 75.41746452745515
11800.0 75.22586101071742
12200.0 75.0242006685181
12500.0 74.81815315980775
12800.0 74.58986783177235
13200.0 74.34619323863261
13600.0 74.06885697764696
14000.0 73.72907777410359
14500.0 73.32579947242307
15000.0 72.8962996243638
15500.0 72.34436355755767
16000.0 71.71051484944516
16500.0 70.91701187897779
17000.0 69.96717290859235
17500.0 68.9913359565838
18000.0 67.96061971922988
18500.0 66.93475706760019
19000.0 65.84144614187922
19500.0 64.44738171139097
