Freq "Early Reflections DI"
22.4 40.439499761696226
23.0 40.700266716788235
23.6 40.92678744254678
24.0 41.08384676362965
25.0 41.22489993852781
25.8 41.239002607758266
26.5 41.261310400302165
27.2 41.16933150380078
28.0 41.054454279507695
29.0 40.94107117871383
30.0 40.84725840423346
30.7 40.77903507409823
31.5 40.746370548128425
32.5 40.725190305780615
33.5 40.77584942524729
34.5 40.87397053264246
35.5 40.99700619857643
36.5 41.138095766148126
37.5 41.26219469131581
38.7 41.360051059936296
40.0 41.40347075738272
41.2 41.434972778948264
42.5 41.404840358413395
43.7 41.353210085694315
45.0 41.32872732588318
46.2 41.2482018306863
47.5 41.182921572175246
48.7 41.1209909860293
50.0 41.07510620836945
51.5 41.02337526330005
53.0 40.96361525605404
54.5 40.94744903192806
56.0 40.88786757888265
58.0 40.84707054562516
60.0 40.81179857014354
61.5 40.7718127304871
63.0 40.735156627592815
65.0 40.66859661043283
67.0 40.64292914999814
69.0 40.62384871819128
71.0 40.573303501298255
73.0 40.572282248288985
75.0 40.585669396195655
77.5 40.58506613568714
80.0 40.584225633616526
82.5 40.604660872579984
85.0 40.617146460041
87.5 40.6233823725117
90.0 40.6637107159744
92.5 40.65808539075594
95.0 40.69754588294147
97.5 40.714151703238684
100.0 40.73253814891403
103.0 40.765655501680314
106.0 40.78250298124823
109.0 40.76567561598628
112.0 40.756132905713415
115.0 40.74937112486205
118.0 40.74912896869681
122.0 40.749201760336774
125.0 40.73889258211588
128.0 40.73126181998154
132.0 40.734819078238345
136.0 40.748768128524105
140.0 40.745353290607426
145.0 40.76892825937857
150.0 40.79403650270454
155.0 40.83392782130606
160.0 40.89077807180388
165.0 40.93067803396083
170.0 41.00709372197029
175.0 41.05936993407602
180.0 41.14387720826214
185.0 41.19902981128445
190.0 41.23583361801559
195.0 41.262952582020745
200.0 41.28826642987271
206.0 41.31998242665104
212.0 41.32664052752358
218.0 41.33522481325582
224.0 41.357570980673685
230.0 41.399036708882676
236.0 41.42266636850849
240.0 41.46736053664199
250.0 41.52090416801522
258.0 41.57269448737124
265.0 41.61452588585635
272.0 41.65763797956899
280.0 41.70382371337267
290.0 41.76493179044728
300.0 41.80518095009117
307.0 41.84277613774046
315.0 41.901575371303124
325.0 41.93096021544339
335.0 41.971763219059866
345.0 42.02296147762408
355.0 42.099094514582674
365.0 42.13513117368308
375.0 42.21491628778645
387.0 42.26795649791474
400.0 42.361136643186214
412.0 42.444051956347266
425.0 42.485580441869004
437.0 42.566761780339604
450.0 42.62280706756742
462.0 42.65563779538846
475.0 42.727434093265245
487.0 42.76045384864989
500.0 42.808071762598374
515.0 42.89449770639169
530.0 42.97279800410858
545.0 43.049514705254225
560.0 43.110259171675224
580.0 43.125336970238294
600.0 43.10982512723497
615.0 43.055499683557954
630.0 42.98665516040792
650.0 42.93063807204166
670.0 42.85387357631973
690.0 42.77436594018431
710.0 42.64289830494732
730.0 42.49325243623106
750.0 42.25540353621143
775.0 41.971079064260095
800.0 41.710028961342914
825.0 41.613400418358935
850.0 41.69763848060691
875.0 42.01557187159656
900.0 42.485956144695336
925.0 42.98645039222677
950.0 43.396822330601665
975.0 43.70281048781351
1000.0 43.84786017514557
1030.0 43.794074693073284
1060.0 43.53845910667407
1090.0 43.24463257149121
1120.0 43.02119926012786
1150.0 42.914271851752545
1180.0 42.94120632628051
1220.0 42.948604348654825
1250.0 43.01254328834577
1280.0 43.15672970780254
1320.0 43.33781143071184
1360.0 43.43224137697456
1400.0 43.34504128892958
1450.0 43.00599516834086
1500.0 42.608393873736304
1550.0 42.454763620517014
1600.0 42.666373386917954
1650.0 43.10600965162965
1700.0 43.54471694099675
1750.0 43.94158356220461
1800.0 44.212622385344545
1850.0 44.38018162729166
1900.0 44.46513468836358
1950.0 44.51305370308822
2000.0 44.597992406639904
2060.0 44.66486613542919
2120.0 44.72583244172712
2180.0 44.736522969665856
2240.0 44.693570191982104
2300.0 44.581946046492064
2360.0 44.47558782233661
2400.0 44.431554933797486
2500.0 44.459803186072065
2580.0 44.453660287224054
2650.0 44.38533928036918
2720.0 44.310927638463795
2800.0 44.23125811602971
2900.0 44.28104563899417
3000.0 44.36592378478913
3070.0 44.43672526605282
3150.0 44.48113413694482
3250.0 44.51488187539347
3350.0 44.514255347100914
3450.0 44.454178243097914
3550.0 44.31752493594864
3650.0 44.08456299860545
3750.0 43.815868026485575
3870.0 43.73078966618745
4000.0 43.921075178589604
4120.0 44.215823725234685
4250.0 44.49431466571092
4370.0 44.71318458678071
4500.0 44.86392820209808
4620.0 45.032751134196076
4750.0 45.178738490500834
4870.0 45.2936817091982
5000.0 45.254893563930835
5150.0 45.06294942181991
5300.0 44.831162556174306
5450.0 44.75226144288588
5600.0 44.82242142680494
5800.0 44.95304525424423
6000.0 45.0302684756618
6150.0 44.964738306956576
6300.0 44.75034002158509
6500.0 44.58055329746563
6700.0 44.58108832622142
6900.0 44.712285470388636
7100.0 44.92822522052519
7300.0 45.08798407158031
7500.0 45.08512429389364
7750.0 44.9701431623827
8000.0 44.79783204835019
8250.0 44.773474289661905
8500.0 44.84210867588547
8750.0 44.839270241461975
9000.0 44.71059138241884
9250.0 44.55322195004101
9500.0 44.41130959968072
9750.0 44.340649821139536
10000.0 44.400701263945095
10300.0 44.39590423631543
10600.0 44.27924955056133
10900.0 44.24447830897634
11200.0 44.37919912282405
11500.0 44.48321172918456
11800.0 44.55582938634457
12200.0 44.58504297279303
12500.0 44.602101427607806
12800.0 44.64870327832024
13200.0 44.72103478550933
13600.0 44.8450925909511
14000.0 44.9867679699703
14500.0 45.195068486916014
15000.0 45.36104825453219
15500.0 45.54006778563209
16000.0 45.62306869236187
16500.0 45.67583566376295
17000.0 45.71599915467466
17500.0 45.74624774026229
18000.0 45.69416944180084
18500.0 45.52802761124181
19000.0 45.33521106171335
19500.0 45.348592319455435
