Freq "Ceiling Bounce"
22.4 30.735210627859743
23.0 31.532696860049043
23.6 32.19445781769261
24.0 32.75193120442708
25.0 33.306005750106664
25.8 34.496562284787586
26.5 35.911805785663574
27.2 37.19401353357401
28.0 38.38733234832708
29.0 39.482132432892854
30.0 40.47841636299924
30.7 42.37841636299922
31.5 45.07461044021619
32.5 47.140259297504514
33.5 48.84025929750453
34.5 50.30642552159864
35.5 51.97310527532417
36.5 54.438742177999956
37.5 56.50642552159866
38.7 58.24025929750454
40.0 59.674610440216185
41.2 61.743292751209026
42.5 64.10869200849842
43.7 65.97762000330434
45.0 67.57762000330435
46.2 69.17762000330436
47.5 70.8124681938487
48.7 72.21246819384871
50.0 73.41246819384872
51.5 74.61246819384873
53.0 75.67762000330436
54.5 76.67762000330436
56.0 77.64329275120903
58.0 78.60869200849842
60.0 79.4746104402162
61.5 80.1746104402162
63.0 80.67461044021621
65.0 81.10642552159865
67.0 81.4746104402162
69.0 81.80642552159865
71.0 82.10642552159867
73.0 82.30642552159864
75.0 82.54104425458686
77.5 82.70642552159866
80.0 82.90642552159865
82.5 83.04025929750452
85.0 83.24025929750452
87.5 83.34025929750452
90.0 83.54025929750453
92.5 83.60869200849844
95.0 83.64025929750451
97.5 83.6746104402162
100.0 83.6746104402162
103.0 83.70869200849842
106.0 83.7746104402162
109.0 83.7746104402162
112.0 83.84329275120903
115.0 83.8094826914137
118.0 83.8094826914137
122.0 83.7094826914137
125.0 83.67841636299924
128.0 83.60948269141372
132.0 83.47841636299924
136.0 83.41406643803654
140.0 83.28080498826407
145.0 83.15024646670051
150.0 83.05024646670051
155.0 82.95024646670052
160.0 82.75024646670052
165.0 82.62017435686738
170.0 82.48695983233983
175.0 82.42420980809669
180.0 82.35714173857187
185.0 82.35714173857187
190.0 82.32780325027906
195.0 82.29464724284483
200.0 82.29464724284483
206.0 82.36556187638026
212.0 82.36556187638026
218.0 82.36556187638026
224.0 82.3755024565446
230.0 82.3755024565446
236.0 82.3755024565446
240.0 82.34760725036053
250.0 82.32017281144489
258.0 82.22017281144488
265.0 82.05977207043328
272.0 81.899923359182
280.0 81.699923359182
290.0 81.47343731489114
300.0 81.31439098086587
307.0 81.11439098086586
315.0 80.91439098086586
325.0 80.78859596364798
335.0 80.63035367164233
345.0 80.49797430099426
355.0 80.33035367164231
365.0 80.27267241715332
375.0 80.17267241715331
387.0 80.07267241715331
400.0 79.99797430099424
412.0 79.97267241715332
425.0 79.87267241715332
437.0 79.8478032391119
450.0 79.74780323911189
462.0 79.6478032391119
475.0 79.59093005142212
487.0 79.49093005142211
500.0 79.36673078482747
515.0 79.26673078482747
530.0 79.16673078482748
545.0 79.11066613677028
560.0 79.08712672353263
580.0 79.14295137031242
600.0 79.28712672353262
615.0 79.38712672353265
630.0 79.48712672353264
650.0 79.58712672353263
670.0 79.69663192372303
690.0 79.71958676887854
710.0 79.74127852183362
730.0 79.71895958905112
750.0 79.76440766096941
775.0 79.8427141790498
800.0 79.76788425739576
825.0 79.5944578176926
850.0 79.42242230717443
875.0 79.07106406031511
900.0 78.85176465110024
925.0 78.63282132809891
950.0 78.38247127774142
975.0 77.93282132809892
1000.0 77.55176465110023
1030.0 77.2710640603151
1060.0 77.11075142843119
1090.0 77.08317984453817
1120.0 76.95192411267038
1150.0 76.77308019084407
1180.0 76.57308019084407
1220.0 76.39462289454448
1250.0 76.16416178745936
1280.0 75.91234086141841
1320.0 75.56109502753813
1360.0 75.38269711662535
1400.0 75.30469170822575
1450.0 75.47906900560359
1500.0 75.80831407987503
1550.0 76.14127980102839
1600.0 76.37190125831677
1650.0 76.61507934363281
1700.0 76.92116097383949
1750.0 77.24146049845496
1800.0 77.47534002747616
1850.0 77.20667998313569
1900.0 76.67466868163747
1950.0 76.16312476073048
2000.0 75.80915076641591
2060.0 75.6835585150577
2120.0 75.72381182287029
2180.0 75.78037479021637
2240.0 75.73480254401454
2300.0 75.79039779696812
2360.0 75.961182222207
2400.0 75.83438511411059
2500.0 75.41008494153769
2580.0 74.80503386086203
2650.0 74.31712915025625
2720.0 74.25121042757566
2800.0 74.43972069479204
2900.0 74.23114955861325
3000.0 73.9041845774365
3070.0 74.07864150311606
3150.0 74.57864150311606
3250.0 75.28649483813238
3350.0 75.80898080365915
3450.0 75.89663192372304
3550.0 75.9297728403184
3650.0 76.06342591763143
3750.0 75.99759502554544
3870.0 76.81941089945899
4000.0 77.72180460883087
4120.0 77.72713407646674
4250.0 77.66127736494528
4370.0 77.80976601550638
4500.0 77.33359184287876
4620.0 76.48026675996972
4750.0 76.73344823414553
4870.0 77.36128386173445
5000.0 77.88884122126271
5150.0 78.07587535946764
5300.0 77.58911087188315
5450.0 77.35454923200754
5600.0 77.55293712846901
5800.0 77.84987876992565
6000.0 78.25667481528521
6150.0 78.46618625557151
6300.0 77.37190125831677
6500.0 73.77718450465576
6700.0 72.59445781769259
6900.0 75.4283768984368
7100.0 78.08070765778946
7300.0 79.76435932260708
7500.0 79.83264282817302
7750.0 79.06909810628102
8000.0 78.40329186991558
8250.0 78.45550828346684
8500.0 78.44951058278579
8750.0 78.1175111213399
9000.0 77.17546633214937
9250.0 77.877064070569
9500.0 79.45486098361249
9750.0 79.37526266598566
10000.0 78.49930328499829
10300.0 77.62800923664417
10600.0 76.62990749165682
10900.0 76.06315513790027
11200.0 75.83581904879478
11500.0 75.83581904879478
11800.0 75.45254060438926
12200.0 74.95254060438924
12500.0 74.52513741031262
12800.0 73.94564260534656
13200.0 73.94580183709877
13600.0 74.67567910575556
14000.0 74.36842168464972
14500.0 73.21374449755847
15000.0 72.40273450619469
15500.0 71.92571539198568
16000.0 70.7201174703646
16500.0 70.6077147715166
17000.0 69.82633804460625
17500.0 68.62304444035979
18000.0 66.44943366396983
18500.0 64.02159980480712
19000.0 62.94975213304188
19500.0 62.69985457184049
