Freq "Rear Wall Bounce"
22.4 29.697616355355194
23.0 30.484940910739112
23.6 31.17074397295073
24.0 31.699877068005236
25.0 32.196949711953664
25.8 33.677322957460774
26.5 35.41610374269658
27.2 36.9439436975961
28.0 38.289702420438516
29.0 39.50911229660474
30.0 40.62872229967729
30.7 42.64023999360967
31.5 45.41209631459779
32.5 47.53522849530464
33.5 49.330736580532545
34.5 50.846804722034165
35.5 52.50196618628692
36.5 55.03391721222101
37.5 57.13551120122469
38.7 58.85816782536051
40.0 60.301590038145974
41.2 62.351035912184145
42.5 64.64187251067531
43.7 66.50815237060921
45.0 68.0731100710423
46.2 69.58807182911818
47.5 71.08918660164078
48.7 72.40334929934362
50.0 73.59076074236896
51.5 74.63462405262158
53.0 75.592997285927
54.5 76.49993530209254
56.0 77.37827037737308
58.0 78.27051341218217
60.0 79.07517914054469
61.5 79.7212036146284
63.0 80.1624383567655
65.0 80.62644083771261
67.0 80.9731231981982
69.0 81.26253724117379
71.0 81.57886501339803
73.0 81.79443784043525
75.0 81.98994659978212
77.5 82.14783068603549
80.0 82.29264030613376
82.5 82.4328374565654
85.0 82.58420991903746
87.5 82.67167190328135
90.0 82.77494176413177
92.5 82.82045787509914
95.0 82.78717505234067
97.5 82.7821478122354
100.0 82.76476437018124
103.0 82.75946966561003
106.0 82.74339746740193
109.0 82.70559510830093
112.0 82.65809361648203
115.0 82.57409462353692
118.0 82.45386097229698
122.0 82.31723650120631
125.0 82.218571299666
128.0 82.07327592756502
132.0 81.89096729918799
136.0 81.68182458601055
140.0 81.50465991666236
145.0 81.28573442584279
150.0 81.0759908973233
155.0 80.8671526456101
160.0 80.64126280755306
165.0 80.4203854448026
170.0 80.19984245648813
175.0 80.00462688392777
180.0 79.85362479022857
185.0 79.74287209116204
190.0 79.6332662491183
195.0 79.48703959813358
200.0 79.41512154028334
206.0 79.41012359864443
212.0 79.36636200605146
218.0 79.26636200605145
224.0 79.19491250325436
230.0 79.15347825101813
236.0 79.07734020672584
240.0 78.9844996753929
250.0 78.88644005361527
258.0 78.71948505946114
265.0 78.45266264718612
272.0 78.19643047145225
280.0 77.87349852945208
290.0 77.58497691774483
300.0 77.24793571437785
307.0 76.89433511083307
315.0 76.58140797326439
325.0 76.29420438866785
335.0 76.00535890595603
345.0 75.72137521961939
355.0 75.48740460585302
365.0 75.27546094155136
375.0 75.05634962324339
387.0 74.79806289594327
400.0 74.57041499598213
412.0 74.35082760581277
425.0 74.12842961967013
437.0 73.82811262042607
450.0 73.549881919099
462.0 73.26962958479118
475.0 72.95836669405566
487.0 72.61392515656487
500.0 72.275586589296
515.0 71.90439064301279
530.0 71.51543199382739
545.0 71.13598375909899
560.0 70.80208407668754
580.0 70.49700978393147
600.0 70.18833310565506
615.0 69.8339173985351
630.0 69.4824825221994
650.0 68.96872234891615
670.0 68.37691349524083
690.0 67.68428968452221
710.0 67.03254791221383
730.0 66.32786607173759
750.0 65.6373491145637
775.0 65.10760685417176
800.0 64.59687413328834
825.0 64.16372078472921
850.0 63.80612376059332
875.0 63.41061577331806
900.0 63.26878828676723
925.0 63.181679825214914
950.0 63.11345186758294
975.0 62.946404659933705
1000.0 62.80670110985095
1030.0 62.75621767746526
1060.0 62.86512403082651
1090.0 63.06034195805172
1120.0 63.144602743984166
1150.0 63.187581561425546
1180.0 63.25134047061866
1220.0 63.400482797893915
1250.0 63.51102409274834
1280.0 63.5981081270114
1320.0 63.689153235815496
1360.0 63.8664818165727
1400.0 64.03331426223141
1450.0 64.21024875153898
1500.0 64.35521223328918
1550.0 64.47977886489133
1600.0 64.57231959617613
1650.0 64.72468319393118
1700.0 64.9381811006681
1750.0 65.19367302456165
1800.0 65.33979208753874
1850.0 64.96251672199497
1900.0 64.34008075660529
1950.0 63.5078966116473
2000.0 62.70030103352656
2060.0 61.824485568223054
2120.0 60.8700265549694
2180.0 59.96944469456767
2240.0 59.251441409601654
2300.0 58.89339362501218
2360.0 58.87426095425019
2400.0 58.80598882396225
2500.0 58.60121082875213
2580.0 58.46510312220556
2650.0 58.62388151721726
2720.0 59.17403997644155
2800.0 59.617208954893584
2900.0 59.3712627209851
3000.0 58.69250235298327
3070.0 58.39189213008848
3150.0 58.38481235279738
3250.0 58.41362026016529
3350.0 58.21961049942786
3450.0 57.57021388513894
3550.0 56.869354975163475
3650.0 56.23829670216816
3750.0 55.364437709405365
3870.0 55.464072901898135
4000.0 55.95913071249791
4120.0 55.78023776821735
4250.0 55.770216886153804
4370.0 56.020094049520196
4500.0 55.8410416313514
4620.0 55.40648688597099
4750.0 56.21810784241367
4870.0 57.32212853524547
5000.0 58.09411277462334
5150.0 58.26025779563159
5300.0 57.54402341665215
5450.0 56.86303023933553
5600.0 56.587313918310144
5800.0 56.26783145393085
6000.0 55.867306839008336
6150.0 55.43181572096333
6300.0 53.85960639236225
6500.0 50.023846621374645
6700.0 48.762733093672836
6900.0 51.62901952528853
7100.0 54.35240516830714
7300.0 56.30530510721914
7500.0 56.655057382094185
7750.0 56.20992725889798
8000.0 55.83331195480466
8250.0 56.06615451182702
8500.0 56.2299671261635
8750.0 56.01350484645678
9000.0 55.066483907463265
9250.0 55.67004747987781
9500.0 57.051915219350406
9750.0 56.77379600076975
10000.0 55.587954434344425
10300.0 54.430733473827246
10600.0 53.07075801745944
10900.0 52.054807890213596
11200.0 51.45940619117633
11500.0 51.001885201696325
11800.0 50.033638584177766
12200.0 49.14447368402281
12500.0 48.46849052471015
12800.0 47.770433133272405
13200.0 47.727644947587606
13600.0 48.523950396763894
14000.0 48.32118260364416
14500.0 47.159023390409004
15000.0 46.41442481033181
15500.0 45.95044171265525
16000.0 44.67049758113106
16500.0 44.4704092554023
17000.0 43.482883336861676
17500.0 42.09459204455567
18000.0 39.802522796917884
18500.0 37.253262401105275
19000.0 36.06765704839427
19500.0 35.984084943003865
