Freq,Floor Bounce,Ceiling Bounce,Front Wall Bounce,Side Wall Bounce,Rear Wall Bounce,Total Early Reflection
22.4,66.24283030471976,65.13663575667188,66.01871865150552,64.88270344806402,62.36640980487029,65.12525646085682
23.0,67.94283030471975,66.83663575667187,67.6891694119531,66.56413835336015,64.00957737909003,66.80850244634003
23.6,69.34283030471973,68.2707173249541,69.11871865150549,67.98270344806402,65.4164320320671,68.22685191930297
24.0,70.94283030471975,69.90228461396019,70.77595803166797,69.62513717399445,67.02138273939899,69.85588690173033
25.0,72.34283030471974,71.30228461396018,72.20362500576275,71.00837370961558,68.40891548192626,71.25827772735444
25.8,73.87387961222817,72.83663575667187,73.71871865150548,72.50837370961558,69.90890203856985,72.77696316502906
26.5,75.24283030471976,74.16845083805431,75.04611540654962,73.85346480938398,71.23203235512325,74.11887489223444
27.2,76.67387961222818,75.66845083805433,76.54611540654962,75.27340346144436,72.65027594343039,75.57770024827889
28.0,78.00542400732661,76.96845083805432,77.84611540654963,76.59671297694125,73.96143921192889,76.89132609755042
29.0,79.47387961222817,78.43435140868502,79.3167526163945,78.05153631355071,75.39632341775693,78.35385105529373
30.0,80.70542400732661,79.7022846139602,80.57397253892371,79.29671297694124,76.6587842760089,79.604913028645
30.7,81.90542400732662,80.86845083805433,81.74479812098768,80.44052714270637,77.7895678601908,80.77326669030386
31.5,83.00542400732661,81.96845083805432,82.84479812098769,81.54052714270637,78.86564729987725,81.87086589011598
32.5,83.97001488257476,83.00231994589775,83.87331062323638,82.52457628009071,79.83076962429432,82.86939239551045
33.5,84.83746771551314,83.83513059177984,84.74479812098768,83.32457628009071,80.67118566494305,83.71565313443149
34.5,85.53746771551316,84.53746771551316,85.4739725389237,84.04511411531958,81.37988993057888,84.42816294344506
35.5,86.17001488257476,85.20542400732661,86.08916941195312,84.66912053004573,82.01170081112383,85.06196049115879
36.5,86.67001488257478,85.67387961222819,86.58916941195314,85.12457628009072,82.4631140323115,85.54253584600168
37.5,87.07001488257477,86.07387961222817,87.0187186515055,85.56912053004575,82.8848019616011,85.9603183725378
38.7,87.43513059177984,86.47387961222819,87.39114797076373,85.89089953988749,83.2460121371622,86.32622659098317
40.0,87.60306957104251,86.64283030471974,87.62136938652638,86.06912053004574,83.44956625025469,86.51573545904904
41.2,87.87001488257476,86.87928732607432,87.82136938652637,86.36912053004573,83.70342179326293,86.76394257424911
42.5,88.13513059177983,87.17928732607432,88.1520785684476,86.65133706414143,83.97690204801823,87.05698087063347
43.7,88.47001488257477,87.51627940083641,88.46797069846065,86.95133706414143,84.30321029897412,87.38023381096558
45.0,88.80306957104253,87.8489851487955,88.7990584394995,87.26912053004573,84.64239181707104,87.71055198624774
46.2,89.10306957104252,88.14898514879552,89.15269933446879,87.60660909626439,84.98907225770967,88.03578157988002
47.5,89.50306957104253,88.51916705502754,89.4990584394995,87.9908995398875,85.35614648630543,88.40972033913283
48.7,89.90306957104252,88.88623512455239,89.89905843949951,88.36912053004575,85.74486840757383,88.79791473680645
50.0,90.23821129888744,89.25667255930051,90.2990584394995,88.73082870577778,86.12043849221865,89.16585681728183
51.5,90.60306957104252,89.55667255930051,90.62657910589127,89.0863606964899,86.45498077999125,89.50314574754339
53.0,90.83821129888743,89.85667255930049,90.84194243205383,89.36455885609008,86.72021333873033,89.75722091070504
54.5,91.10542400732662,90.02402487026022,91.06982625839039,89.58636069648989,86.92493395400257,89.97952853851139
56.0,91.23821129888742,90.15667255930049,91.22657910589128,89.6863606964899,87.05337881970861,90.11206863349177
58.0,91.33821129888743,90.2566725593005,91.29568844094993,89.7863606964899,87.15636129313262,90.20439962950196
60.0,91.43821129888744,90.32402487026023,91.39568844094994,89.92669501426712,87.27465681204573,90.30699327649575
61.5,91.57387961222818,90.4566725593005,91.49568844094993,90.06648157916895,87.39393849119834,90.43204147120301
63.0,91.70542400732661,90.5566725593005,91.63924275721992,90.16648157916894,87.5177480475324,90.55377940815332
65.0,91.83821129888743,90.68623512455237,91.76528715999551,90.29092537618935,87.62718950466511,90.68034752798212
67.0,91.87387961222818,90.75667255930051,91.76528715999551,90.33276641677857,87.69470176421778,90.71818006767859
69.0,92.0069050103546,90.85667255930049,91.89366590096782,90.43276641677856,87.79470176421778,90.83404963661951
71.0,92.13821129888743,91.01916705502754,92.03537086618988,90.53276641677856,87.92827396661625,90.96884193144875
73.0,92.23821129888744,91.11916705502753,92.16528715999551,90.65740017519263,88.07214658893407,91.0853333542459
75.0,92.43821129888744,91.31916705502753,92.33537086618988,90.7797452513595,88.23611729453914,91.26007982455006
77.5,92.50690501035459,91.38982856673472,92.43537086618987,90.84187360004246,88.33882329904748,91.33943790891122
80.0,92.47150800786939,91.38982856673472,92.39366590096782,90.76429849938317,88.30673020338284,91.3024545505909
82.5,92.37150800786937,91.25260953202218,92.29366590096782,90.609097646702,88.19825309181329,91.18431257972745
85.0,92.17150800786939,91.05260953202217,92.17848478147017,90.43169198455031,87.98450241555402,91.00894657054918
87.5,92.03821129888742,90.95260953202217,91.99366590096781,90.21677723671054,87.80110582886358,90.84979280546528
90.0,91.93821129888742,90.78982856673473,91.97848478147017,90.09958940970145,87.66837817507185,90.75312223525447
92.5,91.97150800786937,90.78982856673473,91.97848478147017,90.06502062627878,87.5967421883872,90.74899418632388
95.0,91.93821129888742,90.71916705502754,91.94865957364793,89.98490641670749,87.49468329321395,90.69449766703963
97.5,91.93821129888742,90.6566725593005,91.9336698070903,89.89062162149929,87.32272720593556,90.64576882289477
100.0,91.87001488257475,90.5623574294208,91.90422246482464,89.81383915248665,87.14100263795847,90.5709491163117
103.0,91.87001488257475,90.530497514016,91.83108675663176,89.72552678510456,86.96388389946524,90.51408156152688
106.0,91.93746771551314,90.5012357262664,91.84608542591296,89.70876482743573,86.81555154058633,90.51520570386003
109.0,92.00231994589775,90.6093740032145,91.91739302852534,89.75196088554259,86.76233752724295,90.5769584228965
112.0,92.20231994589774,90.78064061661162,92.04479812098769,89.86228813829793,86.77890977672014,90.72162846089415
115.0,92.40231994589776,90.98064061661162,92.26009724486703,90.02931917798021,86.84430645652847,90.9096864401511
118.0,92.46769521305295,91.08064061661163,92.30400815718168,90.07599893261788,86.85077356823119,90.96864449538708
122.0,92.33513059177983,91.0121361197686,92.20400815718168,89.91763579409492,86.63148775744345,90.84735823772458
125.0,92.33513059177983,91.07244826645844,92.20593509486751,89.86224714596152,86.58192564876735,90.8478816883191
128.0,92.33513059177983,91.10473530118576,92.20593509486751,89.80399128053139,86.51535600826226,90.84052987570523
132.0,92.16845083805433,90.96588846059687,92.05105966851946,89.58790541229975,86.37075788305404,90.67691763944372
136.0,92.10306957104252,90.92758719283593,92.05491760385289,89.47448023176409,86.32114498991014,90.63019279514961
140.0,92.10306957104252,90.88982856673472,92.02940676691627,89.36132042868714,86.29897663766963,90.59618598163965
145.0,92.07150800786937,90.78982856673473,91.98847217927516,89.11327983611876,86.17025159463427,90.50819803986214
150.0,92.0069050103546,90.68982856673472,91.93516047995821,88.90859161467405,86.0201243504004,90.4129092108527
155.0,92.10690501035458,90.69471929119204,92.01068966302631,88.79783021785342,85.88356876416093,90.43946258064597
160.0,92.27609175449221,90.76588846059687,92.1268345531296,88.7439258831567,85.77217641176327,90.52328220962148
165.0,92.4457671943847,90.86588846059686,92.3268345531296,88.74917095218247,85.62109179155172,90.64474516935097
170.0,92.57609175449221,91.03752777300026,92.47455785944568,88.78361316645983,85.40348799985411,90.75560843088032
175.0,92.7457671943847,91.13752777300029,92.60287628300402,88.81619688174476,85.11025604304119,90.85498995590355
180.0,92.84576719438469,91.27082970284299,92.75086213388187,88.88115541651511,84.84571257103339,90.95356266993143
185.0,93.04576719438471,91.39897445130926,92.95086213388187,89.00608282219417,84.62966042123269,91.10932562169789
190.0,93.24576719438468,91.59897445130926,93.15086213388186,89.15740023592006,84.46438023714387,91.28754568590905
195.0,93.4122717831562,91.79897445130923,93.35086213388185,89.28246397014945,84.32822025963766,91.45440090102406
200.0,93.58219967332305,91.89897445130926,93.49942293182198,89.3871573792025,84.15997297894111,91.58204279697743
206.0,93.75260953202218,92.00963256681621,93.6596855474149,89.37372988252271,83.92887480296709,91.7006209841416
212.0,93.91916705502754,92.07662798253905,93.85968554741491,89.38483341185626,83.66532323060605,91.8248231741532
218.0,94.02349685065981,92.12179738688896,93.97640057047572,89.37912349663704,83.3203710244607,91.89509750056719
224.0,94.08982856673471,92.06194867563767,94.05378373474548,89.1839593604788,82.9457902111292,91.89826008986411
230.0,94.16096514237182,92.03546263134683,94.09888657798578,89.00698921126912,82.60086980848969,91.90442164925344
236.0,94.19897445130924,91.87641629732151,94.17740200741135,88.77824986787921,82.29389257734711,91.88144456282134
240.0,94.24314826109436,91.79237898809801,94.17983775130112,88.48902370521317,81.971142939841,91.84641577730028
250.0,94.18219812790055,91.60982855556756,94.17983775130112,88.26660769637579,81.59561214196567,91.7618453409657
258.0,94.11592538879982,91.40982855556756,94.15923203800298,88.04786384913785,81.1418553022719,91.66552377420203
265.0,94.0552196930838,91.22875610128314,94.11155865308227,87.79151446017724,80.65352925139938,91.56301432849027
272.0,93.85521969308378,91.00497668676809,93.99156994449548,87.56914187820487,80.12033802534194,91.38055501985542
280.0,93.6950645803583,90.7491520399883,93.8574120312225,87.31054694634604,79.56450057104708,91.19875062626679
290.0,93.46878033996789,90.42602452356691,93.6719469475759,86.97291506185779,78.92938588489068,90.95595567551307
300.0,93.22869245367797,90.12602452356691,93.42532936705037,86.57341991505305,78.3412999558153,90.68608859113809
307.0,92.9687803399679,89.87100612011483,93.17146493467719,86.06976785459399,77.7309835010393,90.40695612960535
315.0,92.66878033996791,89.5033038382893,92.7876285233883,85.41928183552707,77.12904592358366,90.03514732597931
325.0,92.40261155895364,89.19430744544665,92.4239525240553,84.66726296657109,76.6593372575699,89.69059237007899
335.0,92.16878033996791,88.92643297742508,92.08876707001816,84.03766687925678,76.21314681868488,89.38669446043691
345.0,91.86878033996791,88.62643297742508,91.78876707001815,83.57429270528371,75.69970691217992,89.07531594018796
355.0,91.5687803399679,88.27245249207644,91.54443457389976,83.2919860514114,75.01853224779639,88.78420512580486
365.0,91.31753803239934,87.87245249207645,91.3374753088503,83.03077215530588,74.34824029637356,88.5198345845556
375.0,91.13392832814567,87.51904449785343,91.14083877325679,82.85390599764246,73.90213881731293,88.30084370647961
387.0,91.07584607527146,87.32457993687898,91.08174813653777,82.80474990821946,73.93167657735854,88.22104336888943
400.0,91.11832544184972,87.24520516099383,91.07685382779313,83.06816866167298,74.30175740037969,88.2412668662233
412.0,91.21832544184971,87.29317487506891,91.19829032912834,83.64813525234881,75.03082725130066,88.37745638898043
425.0,91.27106744273918,87.22457993687898,91.47333227115774,84.53059025084222,75.73458129935038,88.56482819462374
437.0,91.39179815677409,87.17277674488686,91.89280039614165,85.51426771148016,76.072473844417,88.85589687942556
450.0,91.5361070797735,87.15274994214361,92.34471317339094,86.24264616225112,75.90595578773808,89.15844801200738
462.0,91.6361070797735,87.2017460112477,92.65923203800298,86.66005332174389,75.57224880513682,89.37191199239332
475.0,91.73610707977349,87.28230649956843,92.84124799874557,86.70607013602188,75.21308932791491,89.49541454924535
487.0,91.7590626365751,87.13209919948373,92.85923203800297,86.50603009703036,74.9605247394531,89.47070333456907
500.0,91.63753193576905,86.86382205324666,92.79156994449546,86.08262700359829,74.80499228583928,89.32621380829931
515.0,91.54197022557484,86.39689984743687,92.66352795397769,85.65040117532746,74.59271632234312,89.14351816716238
530.0,91.33638088039145,85.98405461574941,92.66352795397769,85.40666555976715,74.44378833583679,89.00756390855575
545.0,91.14577223479651,85.55447715330634,92.79156994449546,85.40049421260926,74.54462604552852,88.96328623270485
560.0,90.95800804769343,85.02537703077311,92.98700543078884,85.4357142324037,74.65237282699742,88.95752164687944
580.0,90.82406634433558,84.35632382767523,93.21791536668758,85.46173623976438,74.40246713040052,88.98593964121137
600.0,90.82672208916904,83.73980936753104,93.43871757721682,85.48648151644386,73.63448506002607,89.06380424072951
615.0,91.04878700732915,83.63088317154634,93.73871757721682,85.61024344695313,72.65378522963914,89.29567015339394
630.0,91.31755713588667,83.95436996411115,94.01791536668757,85.58487076157353,71.80045338521197,89.54456036926163
650.0,91.50252973822758,84.38918406427574,94.24895089575443,85.54849700292597,71.54203525438156,89.75086190531177
670.0,91.61172975410157,84.55078859213113,94.39963940497852,85.45389221798528,72.41725638656735,89.87399546811568
690.0,91.46597401860917,84.30363821546392,94.48049974400134,85.34755855512365,73.91216951928118,89.86219832094271
710.0,91.17138676754205,83.88318748965204,94.58049974400133,85.65791954886909,75.2707238442948,89.8469315629678
730.0,90.84882433806493,83.93221804579376,94.7263137077509,86.31139048610976,76.22027101366776,89.91392850194767
750.0,90.63966428643987,84.70937400321449,94.96863540070785,87.03228810974473,76.61552049459056,90.12395806107557
775.0,90.54036306093899,85.61627783177748,95.14807616016641,87.65580294124925,76.52887172667083,90.3316161543875
800.0,90.53702458145021,85.90982855556756,94.90324950543105,87.8747623876964,75.9222483861001,90.22534479159077
825.0,90.67131751433742,85.95098823501219,94.57290129224349,88.27612502196709,75.16980629649981,90.11329798675234
850.0,90.95131759580826,86.13638088039146,94.88111107384734,89.20537856751803,74.90167629165089,90.48930421842037
875.0,90.67131751433742,85.95098823501219,94.86303783242931,88.88410923911077,73.90904213252172,90.35263157298313
900.0,90.02537703077311,84.94852015458805,94.25537934101351,87.48246371315828,72.4356738788474,89.59993045589968
925.0,89.61721049921987,84.22990957385143,94.02905091507317,86.49955911697295,71.88673950973534,89.21301545767786
950.0,90.1719180290656,84.5072270690557,93.89593530143858,85.20031984485315,70.81025898427153,89.15748647042278
975.0,90.36705917731769,84.21923785438673,93.66888775007588,84.17404459284913,69.5451973148922,88.97665334716879
1000.0,89.92933043421358,83.69082970359729,93.67727080275294,84.42570782415946,70.53999888221013,88.85153297676679
1030.0,89.6531529792421,82.91688630006817,93.83898310470721,85.16647017162302,71.71655922618201,88.90183943669223
1060.0,89.43878621388878,81.94695079289987,93.63400978902024,84.91121191545436,71.52105170345203,88.65488019022118
1090.0,89.56506011325959,81.92518045435592,93.57751231068052,84.95337975312461,70.95799901534834,88.65085118081637
1120.0,89.70920303819732,81.37829830441292,93.77192818782186,85.5145536856583,70.92436443124949,88.83586278004935
1150.0,88.28421880005267,77.36756938529855,93.10625304608082,84.98940403740605,70.4139594265934,87.9229543466342
1180.0,87.05169932678201,78.19898396407432,92.03027500059522,83.73151894942157,68.27399871791606,86.8342063871216
1220.0,87.72537703077312,81.19441444972205,92.38773947398911,84.10041119764749,68.5908759957562,87.35781774899752
1250.0,88.73638088039144,82.72664543441658,93.00400815718167,84.90815423669163,70.04858553558073,88.1314425960466
1280.0,89.65519220018268,82.76531718637125,92.96735211159907,84.72148583794373,70.84852645155368,88.32734569498555
1320.0,89.74302103107541,81.90752598211019,92.58125299233635,84.64690592432974,70.62624695439519,88.0789261728083
1360.0,88.98327228731432,80.1009973937153,92.30297754211013,84.61498057019709,70.08427519326075,87.62323094481907
1400.0,87.8405923441244,76.964979708917,91.98525780883864,83.42516404228111,68.79660446793328,86.92861693173153
1450.0,87.8391692798226,77.83351708691909,91.96213749106143,83.37159232193437,68.84790088621251,86.92828783535455
1500.0,87.62005264720888,78.16974008797227,91.8621852727618,84.22635683238641,68.83266418908978,86.90439570242235
1550.0,88.07985234006253,79.95879677415587,91.60568481409173,84.28974415638136,69.2381297900806,86.93016777366653
1600.0,88.67532051493635,80.83451276341988,91.84810522540147,84.66116589689908,70.58922463220618,87.31211787334699
1650.0,88.20125229338913,78.23790067592331,92.76333484033823,85.79488628083229,71.31291956354578,87.79631969312452
1700.0,86.87867546812109,77.27455247833697,92.69548054904162,84.78646248239666,69.40687097361938,87.34111184549793
1750.0,87.34098390904111,79.878472916502,93.02293128100732,85.18516361678482,70.21531065379664,87.76076125155889
1800.0,88.78031664163969,81.74569699567941,94.22635439407024,87.41005922392851,70.94456272190637,89.15309620641567
1850.0,88.68436202808596,80.53268288984415,94.59888305479859,87.09521313990203,70.65463382537743,89.30328286802232
1900.0,88.12673328105512,79.07208533927107,93.82973879681182,85.74384014075486,68.13510882247935,88.4850100061782
1950.0,87.63214299286734,78.30427632267053,93.172753378559,85.15913655192874,67.78293826942995,87.864179133124
2000.0,87.53123370490796,80.83401118403297,94.05347952924389,86.50844182538962,68.6917065028975,88.67530279585061
2060.0,85.87106876148262,80.61567459457278,93.93176304243046,88.19193919726462,71.06966022175884,88.62927822090208
2120.0,86.63994111166,76.54114716353877,92.98199107868139,88.31103780047115,71.9445862229735,88.04393256961312
2180.0,87.92307484565137,76.81688630006818,92.1671137021152,87.66875183920898,71.12880289267791,87.65308891470191
2240.0,88.50828138634374,81.48623512455238,93.0111130435942,88.32481234157207,69.92175070928936,88.50064707883611
2300.0,88.62680426515608,82.43610707977349,93.11587261660127,86.36543716703005,65.74831298155927,88.31252518744417
2360.0,89.36400119283412,82.78838259233902,92.85154439989093,85.64546141593154,65.6248835753213,88.26408086686804
2400.0,88.77979693268614,81.61755713588666,92.61545495888484,86.00902158302719,67.35786675593307,87.96678640597266
2500.0,87.43736534393183,80.07867546812109,91.81027361598085,84.95905721732342,66.2230910943076,86.97354006681523
2580.0,88.4681068577912,81.0545103139124,92.13093432484625,83.32919336289258,63.134139821898586,87.29318370223348
2650.0,89.51474525820004,82.22519075000122,92.38659288471969,84.00671565406867,62.20637999756188,87.8488675850161
2720.0,88.75655157316073,81.36531718637124,91.15545911048845,82.2631576633623,62.99414578166322,86.74522208596758
2800.0,89.73012365263646,83.33509895460995,90.51719347439065,82.01371486038548,62.00493323404412,86.88833933805955
2900.0,90.20974316525646,82.64611039943478,90.91407739265064,83.04284811367744,61.01106909435178,87.27609978100648
3000.0,90.10910102226441,81.61171220727222,91.5785074977548,83.71332615456329,63.2165116011392,87.5525248767926
3070.0,89.54295639276901,82.13162666475968,90.79906885344218,82.47405564873226,63.057731343734744,86.89179868916065
3150.0,90.40663873427827,81.84351609729616,90.96571607368607,81.18088094823601,59.73592600594138,87.21357113098179
3250.0,92.17985234006252,82.50233545048114,92.36433784453949,82.80448584120101,62.32422123307008,88.74582608564816
3350.0,91.61163742381372,82.10086385070302,92.16164114188074,82.43017736871928,62.78855879608231,88.36756542545346
