Freq "Sound Power DI"
22.4 41.93029227648876
23.0 41.80399512451052
23.6 41.61213352509401
24.0 41.335345042745644
25.0 40.83078892921159
25.8 40.18503461409543
26.5 39.375871623606145
27.2 38.67878476028815
28.0 38.078769503267864
29.0 37.843561143374046
30.0 37.81612344276206
30.7 38.023697512215335
31.5 38.44895789532487
32.5 39.036034408678574
33.5 39.59823219168507
34.5 40.19286281423663
35.5 40.68255867139422
36.5 41.078868853563336
37.5 41.40916433971657
38.7 41.59219970877979
40.0 41.786589442495256
41.2 41.862954856186946
42.5 41.87078398617763
43.7 41.85704410870042
45.0 41.83447015510791
46.2 41.77235902329099
47.5 41.70286956033817
48.7 41.6341506384632
50.0 41.5941858931165
51.5 41.53270757336621
53.0 41.47031121071936
54.5 41.448529493894824
56.0 41.40368606907029
58.0 41.3522720513742
60.0 41.27220879338144
61.5 41.26370208237071
63.0 41.233605586536925
65.0 41.18686481268335
67.0 41.17684067915596
69.0 41.11884747235918
71.0 41.094906852829524
73.0 41.09058701970096
75.0 41.04571061121786
77.5 41.05720481737728
80.0 41.074667746892914
82.5 41.12262570167442
85.0 41.16209273742628
87.5 41.265037126916695
90.0 41.299802718488394
92.5 41.386325989150805
95.0 41.4552979109351
97.5 41.48485204355589
100.0 41.588564366081286
103.0 41.61964639951704
106.0 41.66465855370956
109.0 41.69701839891533
112.0 41.68004955681488
115.0 41.67176894648621
118.0 41.680960742886185
122.0 41.68609478726948
125.0 41.71709691180973
128.0 41.72645133865538
132.0 41.76910214945892
136.0 41.88057310714382
140.0 41.977240036122154
145.0 42.0673662714494
150.0 42.25671631399315
155.0 42.411197824679334
160.0 42.617556744457886
165.0 42.7997182157504
170.0 43.01865116836045
175.0 43.22259832691948
180.0 43.43230178840798
185.0 43.57505862601391
190.0 43.708599785505555
195.0 43.817705948312096
200.0 43.93907638966627
206.0 44.04048727548066
212.0 44.156587982089604
218.0 44.26867447818603
224.0 44.41575106468733
230.0 44.54610310578832
236.0 44.747062799466775
240.0 44.88401337217306
250.0 45.08939597945982
258.0 45.27940703165157
265.0 45.455897191294426
272.0 45.62338042773614
280.0 45.75768470047005
290.0 45.91526691307337
300.0 46.0980313020994
307.0 46.25895268188967
315.0 46.387424017971725
325.0 46.5400000948938
335.0 46.6690595299347
345.0 46.816395122830116
355.0 46.98563359737294
365.0 47.13505051208401
375.0 47.32653753892954
387.0 47.48451100747074
400.0 47.66702912796306
412.0 47.868861353935415
425.0 48.048051081271254
437.0 48.19172588522976
450.0 48.334116206286566
462.0 48.36868982137007
475.0 48.30237241926777
487.0 48.056507264148195
500.0 47.630906582193916
515.0 47.19724090856131
530.0 46.81145084670149
545.0 46.381859429104594
560.0 46.07543936111148
580.0 45.72974535665389
600.0 45.35230844823781
615.0 45.16580534646914
630.0 44.96536096442719
650.0 44.895878039131915
670.0 44.99375637678949
690.0 45.24885549546069
710.0 45.56462093502489
730.0 46.013929916093105
750.0 46.430696753423604
775.0 46.74213930553218
800.0 47.00946755404544
825.0 47.16720496947394
850.0 47.25460941144992
875.0 47.284247707027035
900.0 47.318902408268
925.0 47.35995713197272
950.0 47.31567797382098
975.0 47.11939122007425
1000.0 46.686546040176154
1030.0 46.128388043900685
1060.0 45.66581271832251
1090.0 45.5498128577166
1120.0 45.88286949667385
1150.0 46.46065929423435
1180.0 46.98650425012549
1220.0 47.25152717451907
1250.0 47.124076944447
1280.0 46.73093818082906
1320.0 46.37159374276318
1360.0 46.18613214863079
1400.0 46.26574971232378
1450.0 46.42544829488193
1500.0 46.52931905177026
1550.0 46.6900490856881
1600.0 46.94191686736788
1650.0 47.142010063776326
1700.0 47.167314733846595
1750.0 47.04591108287123
1800.0 46.961629971381655
1850.0 46.86711493936869
1900.0 46.73109408600169
1950.0 46.80542056599734
2000.0 46.98772975941765
2060.0 46.98149156023388
2120.0 46.99712064086796
2180.0 47.206051632117976
2240.0 47.43405151128741
2300.0 47.57633344483381
2360.0 47.70025936833042
2400.0 47.91412903864661
2500.0 48.1520098959616
2580.0 48.32603708614964
2650.0 48.179065410056154
2720.0 48.06455085155207
2800.0 48.104312665877316
2900.0 47.93262634307335
3000.0 47.819209150573215
3070.0 47.932257612646
3150.0 48.22138111926108
3250.0 48.24393937489724
3350.0 48.10986440695895
3450.0 48.1347416850284
3550.0 47.990836435575304
3650.0 47.86938299952605
3750.0 47.94264853483669
3870.0 47.92393800088004
4000.0 47.99893752197485
4120.0 48.029485742440244
4250.0 47.94026411059073
4370.0 47.824544595442774
4500.0 47.625750928861265
4620.0 47.6685212036182
4750.0 47.777214580112854
4870.0 47.691034907135375
5000.0 47.84645586372828
5150.0 47.7766836935285
5300.0 47.797910264755615
5450.0 47.84706709937916
5600.0 47.941545943891796
5800.0 48.044833114494665
6000.0 47.89353604479787
6150.0 47.8538535974177
6300.0 47.94566080675037
6500.0 47.93080315391754
6700.0 48.008904613685075
6900.0 48.0141728758165
7100.0 47.945392520586026
7300.0 47.940797669832335
7500.0 47.95961290518841
7750.0 47.80948432799785
8000.0 47.66173992926505
8250.0 47.66825761389211
8500.0 47.4694169197892
8750.0 47.34440086082124
9000.0 47.61066139090224
9250.0 47.84210506396619
9500.0 48.16022380746627
9750.0 48.5692338555844
10000.0 48.58040633221782
10300.0 49.4672178693839
10600.0 49.086696495678794
10900.0 48.54149429132953
11200.0 47.867274061430436
11500.0 47.11128878910968
11800.0 45.73017197282286
12200.0 45.61648235112911
12500.0 49.03624980665002
12800.0 50.309437420390125
13200.0 50.87482255554734
13600.0 51.22378015879255
14000.0 51.57400935822997
14500.0 51.739854751054054
15000.0 51.77312731341867
15500.0 51.699993025435646
16000.0 51.96415478547725
16500.0 52.35086546132962
17000.0 52.800358295835935
17500.0 52.87291978652368
18000.0 52.71805460821929
18500.0 52.38637730504068
19000.0 51.875547963121164
19500.0 51.437689103213046
