Freq "On Axis"
20.0 60.399
20.2909 61.09899999999999
20.586 61.79900000000001
20.8855 62.399
21.1893 63.09899999999999
21.4975 63.59899999999999
21.8102 64.09899999999999
22.1274 64.499
22.4492 64.899
22.7758 65.299
23.1071 65.499
23.4432 65.59899999999999
23.7841 65.69900000000001
24.1301 65.899
24.4811 66.299
24.8372 67.09899999999999
25.1984 68.09899999999999
25.5649 69.299
25.9368 70.399
26.3141 71.09899999999999
26.6968 71.699
27.0851 71.999
27.4791 72.19899999999998
27.8788 72.299
28.2843 72.599
28.6957 73.299
29.1131 74.199
29.5365 74.999
29.9661 75.799
30.402 76.299
30.8442 76.599
31.2929 76.699
31.748 76.899
32.2098 77.09900000000002
32.6783 77.499
33.1536 77.899
33.6359 78.299
34.1251 78.699
34.6215 78.999
35.125 79.399
35.6359 79.69899999999998
36.1543 80.099
36.6802 80.399
37.2137 80.599
37.755 80.799
38.3041 80.999
38.8613 81.199
39.4265 81.499
40.0 81.599
40.5818 81.799
41.1721 82.09900000000002
41.771 82.299
42.3785 82.599
42.9949 82.799
43.6203 83.099
44.2548 83.299
44.8985 83.59899999999999
45.5515 83.799
46.2141 83.999
46.8863 84.199
47.5683 84.399
48.2602 84.499
48.9621 84.69899999999998
49.6743 84.899
50.3968 85.099
51.1299 85.299
51.8736 85.499
52.6281 85.799
53.3936 86.09899999999999
54.1702 86.299
54.9581 86.399
55.7575 86.699
56.5685 86.899
57.3914 86.999
58.2261 87.09900000000002
59.073 87.19899999999998
59.9323 87.499
60.804 87.599
61.6884 87.899
62.5857 88.299
63.496 88.499
64.4196 88.699
65.3566 89.099
66.3073 89.299
67.2717 89.499
68.2502 89.69899999999998
69.2429 89.899
70.2501 90.199
71.2719 90.399
72.3086 90.599
73.3603 90.799
74.4274 91.09899999999999
75.5099 91.499
76.6083 91.699
77.7226 91.899
78.8531 91.999
80.0 92.399
81.1636 92.599
82.3442 92.799
83.5419 92.899
84.757 93.19900000000001
85.9899 93.399
87.2406 93.699
88.5096 93.999
89.797 94.299
91.1031 94.59900000000002
92.4282 94.799
93.7726 94.999
95.1366 95.299
96.5204 95.299
97.9243 95.399
99.3486 95.499
100.794 95.399
102.26 95.398
103.747 95.497
105.256 95.694
106.787 95.791
108.34 95.887
109.916 95.88300000000001
111.515 96.075
113.137 95.97
114.783 95.963
116.452 95.85499999999999
118.146 95.847
119.865 95.738
121.608 95.629
123.377 95.708
125.171 95.597
126.992 95.576
128.839 95.369
130.713 95.339
132.615 95.222
134.543 95.09699999999998
136.5 94.972
138.486 94.85299999999998
140.5 94.63499999999999
142.544 94.412
144.617 94.189
146.721 94.058
148.855 93.921
151.02 93.701
153.217 93.57299999999998
155.445 93.444
157.706 93.32
160.0 93.208
162.327 93.037
164.688 92.89
167.084 92.82399999999998
169.514 92.844
171.98 92.885
174.481 92.863
177.019 92.917
179.594 92.995
182.206 93.209
184.856 93.357
187.545 93.56700000000001
190.273 93.792
193.041 94.078
195.849 94.274
198.697 94.416
201.587 94.591
204.52 94.765
207.494 94.864
210.512 94.961
213.574 95.055
216.681 95.105
219.833 95.15699999999998
223.03 95.159
226.274 95.16
229.565 95.111
232.905 95.09699999999998
236.292 95.019
239.729 94.99700000000001
243.216 94.988
246.754 94.89599999999999
250.343 94.79600000000002
253.984 94.696
257.678 94.604
261.426 94.51
265.229 94.49600000000001
269.087 94.41
273.001 94.336
276.972 94.28
281.0 94.195
285.088 94.116
289.234 94.095
293.441 94.095
297.709 94.094
302.04 93.994
306.433 93.994
310.89 93.922
315.412 93.893
320.0 93.892
324.655 93.892
329.377 93.87699999999998
334.168 93.791
339.028 93.743
343.959 93.691
348.962 93.69
354.038 93.639
359.188 93.59
364.412 93.50899999999999
369.713 93.489
375.09 93.488
380.546 93.494
386.081 93.587
391.697 93.636
397.394 93.73599999999999
403.175 93.852
409.039 94.025
414.989 94.264
421.025 94.488
427.149 94.694
433.362 94.892
439.665 95.096
446.06 95.30699999999999
452.548 95.46
459.131 95.569
465.809 95.573
472.584 95.571
479.458 95.569
486.432 95.552
493.507 95.435
500.686 95.312
507.968 95.184
515.357 95.031
522.853 94.91
530.458 94.687
538.174 94.35900000000001
546.002 94.006
553.943 93.624
562.001 93.241
570.175 92.911
578.469 92.729
586.883 92.72400000000002
595.419 92.853
604.08 93.043
612.866 93.204
621.78 93.251
630.824 93.225
640.0 93.113
649.309 92.994
658.753 93.026
668.335 93.16500000000002
678.056 93.388
687.919 93.58599999999998
697.925 93.696
708.077 93.697
718.376 93.575
728.825 93.39
739.426 93.321
750.181 93.365
761.093 93.532
772.163 93.70400000000001
783.394 93.868
794.789 93.855
806.349 93.692
818.078 93.468
829.977 93.234
842.05 93.074
854.298 92.962
866.724 92.89699999999999
879.33 92.92
892.12 93.04500000000002
905.097 93.223
918.262 93.524
931.618 93.899
945.169 94.269
958.917 94.619
972.864 94.916
987.015 95.155
1001.37 95.303
1015.94 95.308
1030.71 95.205
1045.71 94.98999999999998
1060.92 94.752
1076.35 94.58
1092.0 94.436
1107.89 94.33499999999998
1124.0 94.246
1140.35 94.178
1156.94 94.088
1173.77 93.93299999999999
1190.84 93.661
1208.16 93.368
1225.73 93.12
1243.56 92.986
1261.65 92.941
1280.0 92.964
1298.62 93.132
1317.51 93.338
1336.67 93.52599999999998
1356.11 93.686
1375.84 93.858
1395.85 94.042
1416.15 94.077
1436.75 94.072
1457.65 94.096
1478.85 94.12099999999998
1500.36 94.126
1522.19 94.12
1544.33 94.15800000000002
1566.79 94.22399999999999
1589.58 94.173
1612.7 94.138
1636.16 94.173
1659.95 94.19200000000001
1684.1 94.106
1708.6 94.094
1733.45 94.154
1758.66 94.101
1784.24 93.96
1810.19 93.852
1836.52 93.673
1863.24 93.49199999999999
1890.34 93.345
1917.83 93.29499999999999
1945.73 93.327
1974.03 93.53899999999999
2002.74 93.773
2031.87 93.958
2061.43 94.075
2091.41 94.077
2121.83 93.94
2152.69 93.832
2184.01 93.763
2215.77 93.695
2248.0 93.59899999999999
2280.7 93.512
2313.87 93.454
2347.53 93.519
2381.68 93.749
2416.32 93.906
2451.46 94.017
2487.12 94.124
2523.3 94.17500000000001
2560.0 94.139
2597.24 94.135
2635.01 94.035
2673.34 94.067
2712.23 94.21099999999998
2751.68 94.31200000000001
2791.7 94.37
2832.31 94.25200000000001
2873.5 94.14500000000001
2915.3 94.201
2957.7 94.374
3000.72 94.323
3044.37 94.065
3088.65 93.835
3133.58 93.793
3179.16 93.762
3225.4 93.65300000000002
3272.31 93.54
3319.91 93.583
3368.2 93.716
3417.19 93.939
3466.89 94.09099999999998
3517.32 93.986
3568.48 93.842
3620.39 93.929
3673.05 94.043
3726.47 93.957
3780.67 93.855
3835.67 93.895
3891.46 93.932
3948.06 94.007
4005.49 94.097
4063.75 94.183
4122.86 94.255
4182.82 94.339
4243.66 94.346
4305.39 94.338
4368.01 94.409
4431.55 94.51499999999999
4496.01 94.448
4561.4 94.36499999999998
4627.75 94.399
4695.06 94.353
4763.35 94.225
4832.64 94.17500000000001
4902.93 94.133
4974.24 93.934
5046.6 93.896
5120.0 93.87
5194.47 93.761
5270.03 93.707
5346.68 93.66
5424.45 93.515
5503.35 93.404
5583.4 93.4
5664.61 93.41
5747.01 93.28
5830.6 93.267
5915.41 93.118
6001.45 93.057
6088.74 93.069
6177.3 92.93
6267.15 92.906
6358.31 92.874
6450.8 92.731
6544.62 92.795
6639.82 92.753
6736.4 92.877
6834.38 92.86
6933.79 93.01
7034.64 93.077
7136.96 93.177
7240.77 93.31199999999998
7346.09 93.373
7452.94 93.338
7561.35 93.304
7671.33 93.189
7782.91 93.094
7896.12 93.017
8010.97 93.019
8127.49 93.104
8245.71 93.22199999999998
8365.65 93.191
8487.33 93.114
8610.78 93.04
8736.03 92.971
8863.09 93.05800000000002
8992.01 93.26
9122.8 93.476
9255.5 93.579
9390.12 93.56700000000001
9526.7 93.614
9665.27 93.692
9805.86 93.844
9948.49 93.923
10093.2 93.917
10240.0 93.911
10388.9 93.963
10540.1 94.065
10693.4 94.064
10848.9 94.112
11006.7 94.078
11166.8 93.888
11329.2 92.845
11494.0 92.018
11661.2 93.159
11830.8 93.953
12002.9 94.354
12177.5 94.544
12354.6 94.34200000000001
12534.3 93.872
12716.6 92.96099999999998
12901.6 91.844
13089.2 91.316
13279.6 91.567
13472.8 91.983
13668.8 92.224
13867.6 92.27199999999999
14069.3 92.097
14273.9 91.798
14481.5 91.239
14692.2 90.334
14905.9 89.681
15122.7 89.64600000000002
15342.7 89.741
15565.8 89.784
15792.2 90.16400000000002
16021.9 90.774
16255.0 91.248
16491.4 91.583
16731.3 91.85500000000002
16974.7 92.111
17221.6 92.56699999999998
17472.1 92.607
17726.2 92.03900000000002
17984.0 91.599
18245.6 91.736
18511.0 92.238
18780.2 93.07500000000002
19053.4 94.029
19330.5 94.619
19611.7 94.36499999999998
19897.0 93.41499999999999
