Freq "Sound Power"
20.0 61.80384139817161
20.2909 62.4807473580168
20.586 63.14230975394307
20.8855 63.66068640579212
21.1893 64.36068640579211
21.4975 64.83369849036109
21.8102 65.33998179522564
22.1274 65.74597305359319
22.4492 66.10466846135432
22.7758 66.43654387335377
23.1071 66.63189202666882
23.4432 66.72100923446021
23.7841 66.81943452708919
24.1301 66.93429889612497
24.4811 67.32546900210608
24.8372 68.1310647692176
25.1984 69.14006997379619
25.5649 70.2624487598377
25.9368 71.3435855030774
26.3141 72.05167937495327
26.6968 72.56802223276831
27.0851 72.85827840575583
27.4791 73.06841255614022
27.8788 73.08607628176996
28.2843 73.39755629000018
28.6957 74.07149760672208
29.1131 74.92774372249775
29.5365 75.74981056273495
29.9661 76.56597798616406
30.402 76.9745997572324
30.8442 77.28526824723359
31.2929 77.34697254944462
31.748 77.51140090797183
32.2098 77.74493656358938
32.6783 78.06276980933514
33.1536 78.48175057165722
33.6359 78.81480924898045
34.1251 79.20720601447775
34.6215 79.47084458273521
35.125 79.84693638789578
35.6359 80.14489613775433
36.1543 80.49541531587198
36.6802 80.80614419609799
37.2137 80.95983480663887
37.755 81.14844330719161
38.3041 81.31133243317517
38.8613 81.48422898715548
39.4265 81.79633853570479
40.0 81.81229888313774
40.5818 82.023816388151
41.1721 82.3386532138063
41.771 82.45489237205973
42.3785 82.7643713003398
42.9949 82.93262328532165
43.6203 83.18839322896758
44.2548 83.39874246351428
44.8985 83.70491237333968
45.5515 83.80723932419505
46.2141 84.01645218425432
46.8863 84.2155597290234
47.5683 84.40633399318705
48.2602 84.42008788684282
48.9621 84.58472879473183
49.6743 84.78073421363052
50.3968 84.97388949765006
51.1299 85.15993030095481
51.8736 85.35885873637773
52.6281 85.63130409391202
53.3936 85.89382378160263
54.1702 86.08256052652631
54.9581 86.126659621125
55.7575 86.41128610267207
56.5685 86.57654447097184
57.3914 86.63863046886215
58.2261 86.67759794832232
59.073 86.8438871487908
59.9323 87.08062817380653
60.804 87.12457505619524
61.6884 87.41036660158859
62.5857 87.80161890105342
63.496 87.97296589468439
64.4196 88.1574348471966
65.3566 88.51111223734245
66.3073 88.68235127276427
67.2717 88.89196505384731
68.2502 89.02302564634732
69.2429 89.19135851196698
70.2501 89.4604726364531
71.2719 89.64910007536174
72.3086 89.81752612290724
73.3603 89.98655870976718
74.4274 90.27612089019637
75.5099 90.62297355923411
76.6083 90.84807194205314
77.7226 90.97614875116625
78.8531 91.05060402391325
80.0 91.42845855441617
81.1636 91.60794033901081
82.3442 91.83958992266847
83.5419 91.86360820119451
84.757 92.13154294805737
85.9899 92.30438907817427
87.2406 92.5891907861019
88.5096 92.8916950785505
89.797 93.16648406245756
91.1031 93.3950349454592
92.4282 93.55779713647705
93.7726 93.72869011079824
95.1366 94.0142932214612
96.5204 94.01330472246738
97.9243 94.10591356657571
99.3486 94.17147844896476
100.794 94.00128599479922
102.26 94.02266273220883
103.747 94.1116702246551
105.256 94.2641083641661
106.787 94.35560722011317
108.34 94.43975953059724
109.916 94.35854854739488
111.515 94.56966240992386
113.137 94.42550817588602
114.783 94.37234928379007
116.452 94.2953990367449
118.146 94.20761745264149
119.865 94.10240552406009
121.608 93.98038864724555
123.377 94.03970609176335
125.171 93.88932654113333
126.992 93.84432058570053
128.839 93.56582520408286
130.713 93.549055034281
132.615 93.34964168854754
134.543 93.20514861786862
136.5 93.04473969809246
138.486 92.87387217945619
140.5 92.61115910664226
142.544 92.35010889457575
144.617 92.09698853153644
146.721 91.89800256870787
148.855 91.70580575224984
151.02 91.42673474189186
153.217 91.21444255552115
155.445 91.03238911980762
157.706 90.85616302060774
160.0 90.66343122477183
162.327 90.43619261088433
164.688 90.22310974962005
167.084 90.10366782286005
169.514 90.0682306571197
171.98 90.04036381438605
174.481 89.97966880744951
177.019 90.00204697564597
179.594 90.03296054907575
182.206 90.1998618503126
184.856 90.3236135370536
187.545 90.49008038985323
190.273 90.67288233084848
193.041 90.90237551882899
195.849 91.06014789453371
198.697 91.15023505591977
201.587 91.28178023473947
204.52 91.38903905899856
207.494 91.45285455298311
210.512 91.4921435751096
213.574 91.5195586097968
216.681 91.52519872019434
219.833 91.4938497670902
223.03 91.44163157049047
226.274 91.37116888322727
229.565 91.3180428637997
232.905 91.23407518848805
236.292 91.12118936463499
239.729 91.06335164807345
243.216 90.9981933273285
246.754 90.88916098126305
250.343 90.77539647614833
253.984 90.66426289322193
257.678 90.55932829064726
261.426 90.46495358727744
265.229 90.41241788723474
269.087 90.3654035672173
273.001 90.27549445593574
276.972 90.19934418862519
281.0 90.12016880900464
285.088 90.02502625592811
289.234 89.95534642663026
293.441 89.91736627723014
297.709 89.88740804388644
302.04 89.82355483058925
306.433 89.75605418893299
310.89 89.68981115664212
315.412 89.6304331200874
320.0 89.60991710166307
324.655 89.58875953989552
329.377 89.52377315094007
334.168 89.43676560613451
339.028 89.33971204438603
343.959 89.24588246124354
348.962 89.18440893035726
354.038 89.11268814793912
359.188 89.01825694102158
364.412 88.92306949776707
369.713 88.8706224050557
375.09 88.85682945729786
380.546 88.93069418848577
386.081 89.03890037154531
391.697 89.15378711462563
397.394 89.28275884435308
403.175 89.4210623179631
409.039 89.57513574169965
414.989 89.7582822985002
421.025 89.89655921444947
427.149 89.99181008341618
433.362 90.05931152796944
439.665 90.11391290922116
446.06 90.1933646262817
452.548 90.2218356672447
459.131 90.19973394970383
465.809 90.12567463333022
472.584 90.01568821273898
479.458 89.91544907531956
486.432 89.75982674841715
493.507 89.52776796676378
500.686 89.26456088756755
507.968 89.00775808298646
515.357 88.7838435524382
522.853 88.63214035015541
530.458 88.46180799354923
538.174 88.24835775256487
546.002 88.07874154257865
553.943 87.90003012514191
562.001 87.71819084359454
570.175 87.56529183605618
578.469 87.47123935743345
586.883 87.49786918659609
595.419 87.62099223364832
604.08 87.79700597116754
612.866 87.9737352375551
621.78 88.09989640850512
630.824 88.1400561443611
640.0 88.1225152294068
649.309 88.09950274296709
658.753 88.13138214028488
668.335 88.25572809266609
678.056 88.44564671293278
687.919 88.64330928881505
697.925 88.78858034822059
708.077 88.88268409961051
718.376 88.92837714649725
728.825 88.92556001621222
739.426 88.95085864748748
750.181 89.07261230816079
761.093 89.17890992002934
772.163 89.2567509339257
783.394 89.31163886904781
794.789 89.2656892319557
806.349 89.18011591435825
818.078 89.08254909339837
829.977 88.9822278426829
842.05 88.87124926297338
854.298 88.74014628909958
866.724 88.61645520660157
879.33 88.53609248188098
892.12 88.50392437346113
905.097 88.41693975917309
918.262 88.23417342994408
931.618 87.88116230235778
945.169 87.36009611990013
958.917 86.78870047494343
972.864 86.36202191822687
987.015 86.18863141682414
1001.37 86.20826533054851
1015.94 86.25771868826803
1030.71 86.21970854808325
1045.71 86.09780408651139
1060.92 85.96901663616349
1076.35 85.88335724252671
1092.0 85.79993263540277
1107.89 85.71476355354795
1124.0 85.62769100810668
1140.35 85.56239685618391
1156.94 85.51033022072733
1173.77 85.36457282767736
1190.84 85.11763442516528
1208.16 84.8345753501962
1225.73 84.58831201792773
1243.56 84.43578184252564
1261.65 84.3577361077683
1280.0 84.33368256026651
1298.62 84.42591679134166
1317.51 84.5775221858949
1336.67 84.68636046681883
1356.11 84.73918860724797
1375.84 84.82182635952003
1395.85 84.89991847100877
1416.15 84.90329389592857
1436.75 84.88622137552309
1457.65 84.93420795378047
1478.85 85.01766623967004
1500.36 85.11151413589744
1522.19 85.21733802745754
1544.33 85.36979956647454
1566.79 85.49961890015878
1589.58 85.5763774166869
1612.7 85.63497865046082
1636.16 85.79573838895148
1659.95 85.91366620847337
1684.1 85.94247757688093
1708.6 86.02497287267813
1733.45 86.12317272297594
1758.66 86.13783158723191
1784.24 86.1925303540703
1810.19 86.3191907740258
1836.52 86.32141390003316
1863.24 86.2672476336294
1890.34 86.17961153170096
1917.83 86.0204687256269
1945.73 85.87866544447158
1974.03 85.84703429611064
2002.74 85.81893553766646
2031.87 85.7586394174275
2061.43 85.64868875282063
2091.41 85.45763912537649
2121.83 85.18781863027507
2152.69 85.06806731081232
2184.01 85.10432934940411
2215.77 85.18259894827725
2248.0 85.26472635877452
2280.7 85.31910638028022
2313.87 85.36960857443393
2347.53 85.44587989733421
2381.68 85.54504073216498
2416.32 85.57646157419322
2451.46 85.56902947103274
2487.12 85.56589039302514
2523.3 85.55697859019223
2560.0 85.48716913690495
2597.24 85.4071159934588
2635.01 85.30482555413901
2673.34 85.2777023748502
2712.23 85.34979293153653
2751.68 85.39814370005377
2791.7 85.35798190647307
2832.31 85.2145709513002
2873.5 85.0547113000085
2915.3 85.01017991012867
2957.7 85.01787825338864
3000.72 84.95517009687481
3044.37 84.70376821757061
3088.65 84.44664710134452
3133.58 84.36153744499616
3179.16 84.40111655612588
3225.4 84.40260927627843
3272.31 84.39629927331669
3319.91 84.4029672601617
3368.2 84.50015176942921
3417.19 84.68208541189055
3466.89 84.84652893135586
3517.32 84.80256377303459
3568.48 84.69022591831161
3620.39 84.77477047795605
3673.05 84.86606018558263
3726.47 84.74261002272033
3780.67 84.57226092682366
3835.67 84.56669750716898
3891.46 84.56839894775119
3948.06 84.49052720027542
4005.49 84.4454595085873
4063.75 84.44928065698439
4122.86 84.48820328174486
4182.82 84.59778254997174
4243.66 84.69894428712506
4305.39 84.78402654759162
4368.01 84.84642047481107
4431.55 84.88384874571214
4496.01 84.82609432905213
4561.4 84.76662615796035
4627.75 84.79272240338871
4695.06 84.75273684898676
4763.35 84.62765326606912
4832.64 84.55877215797368
4902.93 84.50692325629849
4974.24 84.35861692696054
5046.6 84.2560537827948
5120.0 84.18948070781866
5194.47 84.05530072056402
5270.03 83.94888007072974
5346.68 83.93994492044233
5424.45 83.85607691907593
5503.35 83.79260787638547
5583.4 83.8186039592659
5664.61 83.81473176993725
5747.01 83.76683328072545
5830.6 83.78729866388821
5915.41 83.65866191890868
6001.45 83.55476546473227
6088.74 83.53736594267835
6177.3 83.39902189846958
6267.15 83.35609323716658
6358.31 83.32159536049004
6450.8 83.23529851374657
6544.62 83.29399066393421
6639.82 83.27789637524465
6736.4 83.4369703730149
6834.38 83.50795525004979
6933.79 83.62391264908524
7034.64 83.69420466195041
7136.96 83.74708189457881
7240.77 83.7718966188088
7346.09 83.81098904625692
7452.94 83.82658189581915
7561.35 83.84788295653061
7671.33 83.83476888328681
7782.91 83.8757495561723
7896.12 83.93734072577426
8010.97 84.01465007977319
8127.49 84.12239194231785
8245.71 84.20031448703624
8365.65 84.18313581706929
8487.33 84.10098020180489
8610.78 83.99881163498819
8736.03 83.92678527309327
8863.09 83.97431407688964
8992.01 84.04961021440374
9122.8 84.07761641967105
9255.5 84.01846544994623
9390.12 83.9236809339172
9526.7 84.00483699714972
9665.27 84.13588468435469
9805.86 84.30541898642639
9948.49 84.32882833615876
10093.2 84.24633997272123
10240.0 84.17160607354012
10388.9 84.21970987330363
10540.1 84.36067649735163
10693.4 84.5024901739802
10848.9 84.6577595556317
11006.7 84.69941735238137
11166.8 84.52592712603743
11329.2 83.55555626958595
11494.0 82.83076008338587
11661.2 83.87781108146083
11830.8 84.62672573101699
12002.9 84.91488209682379
12177.5 84.90766487521802
12354.6 84.61677646412302
12534.3 84.10664638047625
12716.6 83.23251088848669
12901.6 82.1969583485485
13089.2 81.79351100687998
13279.6 82.0453055331848
13472.8 82.41203991579371
13668.8 82.65009817812009
13867.6 82.7012677991427
14069.3 82.67277730604813
14273.9 82.58397104066016
14481.5 82.23630420050813
14692.2 81.69851323596673
14905.9 81.46892197503834
15122.7 81.61300037049148
15342.7 81.76535371632629
15565.8 81.95695053836869
15792.2 82.29030330096298
16021.9 82.61936013081008
16255.0 82.81297325805352
16491.4 82.93166306940981
16731.3 82.92668247701769
16974.7 82.66597524618486
17221.6 82.3550122752614
17472.1 81.79304938034718
17726.2 80.96980871956112
17984.0 80.34261790693495
18245.6 80.40285142612403
18511.0 80.93091592234407
18780.2 81.65709780902012
19053.4 82.24713061571724
19330.5 82.40925513197776
19611.7 81.93050495087799
19897.0 80.95887852277244
