Freq "Sound Power"
20.0 61.511872844712485
20.2909 62.18877880455767
20.586 62.85034120048394
20.8855 63.36871785233299
21.1893 64.06871785233298
21.4975 64.54172993690196
21.8102 65.04801324176651
22.1274 65.45400450013406
22.4492 65.8126999078952
22.7758 66.14457531989464
23.1071 66.3399234732097
23.4432 66.42904068100108
23.7841 66.52746597363006
24.1301 66.64233034266584
24.4811 67.03350044864695
24.8372 67.83909621575847
25.1984 68.84810142033706
25.5649 69.97048020637857
25.9368 71.05161694961828
26.3141 71.75971082149414
26.6968 72.27605367930919
27.0851 72.5663098522967
27.4791 72.77644400268109
27.8788 72.79410772831083
28.2843 73.10558773654105
28.6957 73.77952905326295
29.1131 74.63577516903862
29.5365 75.45784200927582
29.9661 76.27400943270493
30.402 76.68263120377327
30.8442 76.99329969377446
31.2929 77.05500399598549
31.748 77.2194323545127
32.2098 77.45296801013025
32.6783 77.77080125587601
33.1536 78.18978201819809
33.6359 78.52284069552132
34.1251 78.91523746101862
34.6215 79.17887602927608
35.125 79.55496783443665
35.6359 79.8529275842952
36.1543 80.20344676241285
36.6802 80.51417564263886
37.2137 80.66786625317974
37.755 80.85647475373248
38.3041 81.01936387971604
38.8613 81.19226043369635
39.4265 81.50436998224566
40.0 81.52033032967861
40.5818 81.73184783469188
41.1721 82.04668466034717
41.771 82.1629238186006
42.3785 82.47240274688068
42.9949 82.64065473186253
43.6203 82.89642467550846
44.2548 83.10677391005515
44.8985 83.41294381988055
45.5515 83.51527077073592
46.2141 83.72448363079519
46.8863 83.92359117556427
47.5683 84.11436543972792
48.2602 84.1281193333837
48.9621 84.2927602412727
49.6743 84.4887656601714
50.3968 84.68192094419094
51.1299 84.86796174749568
51.8736 85.0668901829186
52.6281 85.3393355404529
53.3936 85.6018552281435
54.1702 85.79059197306718
54.9581 85.83469106766587
55.7575 86.11931754921294
56.5685 86.28457591751271
57.3914 86.34666191540302
58.2261 86.38562939486319
59.073 86.55191859533167
59.9323 86.7886596203474
60.804 86.83260650273611
61.6884 87.11839804812946
62.5857 87.50965034759429
63.496 87.68099734122526
64.4196 87.86546629373747
65.3566 88.21914368388332
66.3073 88.39038271930514
67.2717 88.59999650038819
68.2502 88.7310570928882
69.2429 88.89938995850785
70.2501 89.16850408299398
71.2719 89.35713152190262
72.3086 89.52555756944811
73.3603 89.69459015630805
74.4274 89.98415233673724
75.5099 90.33100500577498
76.6083 90.55610338859401
77.7226 90.68418019770712
78.8531 90.75863547045412
80.0 91.13649000095704
81.1636 91.31597178555168
82.3442 91.54762136920934
83.5419 91.57163964773538
84.757 91.83957439459824
85.9899 92.01242052471514
87.2406 92.29722223264277
88.5096 92.59972652509137
89.797 92.87451550899843
91.1031 93.10306639200007
92.4282 93.26582858301792
93.7726 93.43672155733911
95.1366 93.72232466800207
96.5204 93.72133616900825
97.9243 93.81394501311658
99.3486 93.87950989550563
100.794 93.70931744134009
102.26 93.7306941787497
103.747 93.81970167119597
105.256 93.97213981070698
106.787 94.06363866665404
108.34 94.14779097713811
109.916 94.06657999393575
111.515 94.27769385646474
113.137 94.1335396224269
114.783 94.08038073033094
116.452 94.00343048328577
118.146 93.91564889918236
119.865 93.81043697060096
121.608 93.68842009378642
123.377 93.74773753830422
125.171 93.5973579876742
126.992 93.5523520322414
128.839 93.27385665062373
130.713 93.25708648082187
132.615 93.05767313508841
134.543 92.91318006440949
136.5 92.75277114463333
138.486 92.58190362599706
140.5 92.31919055318313
142.544 92.05814034111663
144.617 91.80501997807731
146.721 91.60603401524874
148.855 91.41383719879072
151.02 91.13476618843274
153.217 90.92247400206202
155.445 90.74042056634849
157.706 90.56419446714861
160.0 90.3714626713127
162.327 90.1442240574252
164.688 89.93114119616092
167.084 89.81169926940092
169.514 89.77626210366057
171.98 89.74839526092693
174.481 89.68770025399039
177.019 89.71007842218684
179.594 89.74099199561662
182.206 89.90789329685347
184.856 90.03164498359448
187.545 90.1981118363941
190.273 90.38091377738935
193.041 90.61040696536986
195.849 90.76817934107459
198.697 90.85826650246064
201.587 90.98981168128034
204.52 91.09707050553943
207.494 91.16088599952398
210.512 91.20017502165047
213.574 91.22759005633768
216.681 91.23323016673521
219.833 91.20188121363107
223.03 91.14966301703134
226.274 91.07920032976814
229.565 91.02607431034058
232.905 90.94210663502892
236.292 90.82922081117586
239.729 90.77138309461432
243.216 90.70622477386937
246.754 90.59719242780392
250.343 90.4834279226892
253.984 90.3722943397628
257.678 90.26735973718813
261.426 90.1729850338183
265.229 90.12044933377561
269.087 90.07343501375817
273.001 89.98352590247661
276.972 89.90737563516606
281.0 89.82820025554551
285.088 89.73305770246898
289.234 89.66337787317113
293.441 89.62539772377102
297.709 89.59543949042731
302.04 89.53158627713012
306.433 89.46408563547386
310.89 89.397842603183
315.412 89.33846456662828
320.0 89.31794854820394
324.655 89.29679098643639
329.377 89.23180459748095
334.168 89.14479705267539
339.028 89.0477434909269
343.959 88.95391390778441
348.962 88.89244037689814
354.038 88.82071959448
359.188 88.72628838756245
364.412 88.63110094430795
369.713 88.57865385159657
375.09 88.56486090383873
380.546 88.63872563502665
386.081 88.74693181808618
391.697 88.8618185611665
397.394 88.99079029089395
403.175 89.12909376450398
409.039 89.28316718824053
414.989 89.46631374504108
421.025 89.60459066099034
427.149 89.69984152995706
433.362 89.76734297451031
439.665 89.82194435576203
446.06 89.90139607282258
452.548 89.92986711378558
459.131 89.9077653962447
465.809 89.83370607987109
472.584 89.72371965927985
479.458 89.62348052186043
486.432 89.46785819495803
493.507 89.23579941330465
500.686 88.97259233410843
507.968 88.71578952952733
515.357 88.49187499897907
522.853 88.34017179669628
530.458 88.1698394400901
538.174 87.95638919910574
546.002 87.78677298911953
553.943 87.60806157168278
562.001 87.42622229013541
570.175 87.27332328259705
578.469 87.17927080397432
586.883 87.20590063313696
595.419 87.3290236801892
604.08 87.50503741770841
612.866 87.68176668409598
621.78 87.80792785504599
630.824 87.84808759090197
640.0 87.83054667594767
649.309 87.80753418950796
658.753 87.83941358682576
668.335 87.96375953920696
678.056 88.15367815947366
687.919 88.35134073535592
697.925 88.49661179476146
708.077 88.59071554615139
718.376 88.63640859303813
728.825 88.63359146275309
739.426 88.65889009402835
750.181 88.78064375470166
761.093 88.88694136657021
772.163 88.96478238046657
783.394 89.01967031558868
794.789 88.97372067849658
806.349 88.88814736089913
818.078 88.79058053993924
829.977 88.69025928922377
842.05 88.57928070951425
854.298 88.44817773564046
866.724 88.32448665314244
879.33 88.24412392842186
892.12 88.211955820002
905.097 88.12497120571396
918.262 87.94220487648495
931.618 87.58919374889865
945.169 87.068127566441
958.917 86.4967319214843
972.864 86.07005336476774
987.015 85.89666286336501
1001.37 85.91629677708939
1015.94 85.9657501348089
1030.71 85.92773999462412
1045.71 85.80583553305226
1060.92 85.67704808270436
1076.35 85.59138868906759
1092.0 85.50796408194364
1107.89 85.42279500008883
1124.0 85.33572245464755
1140.35 85.27042830272478
1156.94 85.2183616672682
1173.77 85.07260427421824
1190.84 84.82566587170615
1208.16 84.54260679673708
1225.73 84.2963434644686
1243.56 84.14381328906651
1261.65 84.06576755430918
1280.0 84.04171400680738
1298.62 84.13394823788254
1317.51 84.28555363243578
1336.67 84.3943919133597
1356.11 84.44722005378884
1375.84 84.5298578060609
1395.85 84.60794991754965
1416.15 84.61132534246944
1436.75 84.59425282206396
1457.65 84.64223940032134
1478.85 84.7256976862109
1500.36 84.81954558243831
1522.19 84.92536947399842
1544.33 85.07783101301541
1566.79 85.20765034669965
1589.58 85.28440886322777
1612.7 85.3430100970017
1636.16 85.50376983549235
1659.95 85.62169765501424
1684.1 85.6505090234218
1708.6 85.733004319219
1733.45 85.83120416951681
1758.66 85.84586303377279
1784.24 85.90056180061117
1810.19 86.02722222056667
1836.52 86.02944534657404
1863.24 85.97527908017027
1890.34 85.88764297824183
1917.83 85.72850017216777
1945.73 85.58669689101245
1974.03 85.55506574265151
2002.74 85.52696698420733
2031.87 85.46667086396837
2061.43 85.3567201993615
2091.41 85.16567057191736
2121.83 84.89585007681595
2152.69 84.7760987573532
2184.01 84.81236079594498
2215.77 84.89063039481812
2248.0 84.9727578053154
2280.7 85.02713782682109
2313.87 85.0776400209748
2347.53 85.15391134387508
2381.68 85.25307217870585
2416.32 85.28449302073409
2451.46 85.2770609175736
2487.12 85.27392183956601
2523.3 85.2650100367331
2560.0 85.19520058344582
2597.24 85.11514743999967
2635.01 85.01285700067989
2673.34 84.98573382139107
2712.23 85.0578243780774
2751.68 85.10617514659464
2791.7 85.06601335301394
2832.31 84.92260239784108
2873.5 84.76274274654938
2915.3 84.71821135666954
2957.7 84.72590969992952
3000.72 84.66320154341568
3044.37 84.41179966411148
3088.65 84.1546785478854
3133.58 84.06956889153703
3179.16 84.10914800266676
3225.4 84.1106407228193
3272.31 84.10433071985756
3319.91 84.11099870670257
3368.2 84.20818321597008
3417.19 84.39011685843143
3466.89 84.55456037789673
3517.32 84.51059521957546
3568.48 84.39825736485248
3620.39 84.48280192449693
3673.05 84.5740916321235
3726.47 84.4506414692612
3780.67 84.28029237336453
3835.67 84.27472895370985
3891.46 84.27643039429206
3948.06 84.1985586468163
4005.49 84.15349095512818
4063.75 84.15731210352526
4122.86 84.19623472828573
4182.82 84.30581399651261
4243.66 84.40697573366593
4305.39 84.4920579941325
4368.01 84.55445192135194
4431.55 84.59188019225302
4496.01 84.534125775593
4561.4 84.47465760450122
4627.75 84.50075384992958
4695.06 84.46076829552763
4763.35 84.33568471260999
4832.64 84.26680360451455
4902.93 84.21495470283936
4974.24 84.06664837350141
5046.6 83.96408522933567
5120.0 83.89751215435953
5194.47 83.76333216710489
5270.03 83.65691151727061
5346.68 83.6479763669832
5424.45 83.5641083656168
5503.35 83.50063932292635
5583.4 83.52663540580677
5664.61 83.52276321647813
5747.01 83.47486472726632
5830.6 83.49533011042908
5915.41 83.36669336544955
6001.45 83.26279691127314
6088.74 83.24539738921922
6177.3 83.10705334501046
6267.15 83.06412468370745
6358.31 83.02962680703091
6450.8 82.94332996028744
6544.62 83.00202211047508
6639.82 82.98592782178552
6736.4 83.14500181955577
6834.38 83.21598669659066
6933.79 83.33194409562611
7034.64 83.40223610849128
7136.96 83.45511334111968
7240.77 83.47992806534967
7346.09 83.5190204927978
7452.94 83.53461334236002
7561.35 83.55591440307148
7671.33 83.54280032982768
7782.91 83.58378100271317
7896.12 83.64537217231513
8010.97 83.72268152631406
8127.49 83.83042338885872
8245.71 83.90834593357711
8365.65 83.89116726361016
8487.33 83.80901164834576
8610.78 83.70684308152906
8736.03 83.63481671963414
8863.09 83.68234552343051
8992.01 83.75764166094461
9122.8 83.78564786621192
9255.5 83.7264968964871
9390.12 83.63171238045807
9526.7 83.7128684436906
9665.27 83.84391613089556
9805.86 84.01345043296726
9948.49 84.03685978269964
10093.2 83.9543714192621
10240.0 83.87963752008099
10388.9 83.9277413198445
10540.1 84.0687079438925
10693.4 84.21052162052108
10848.9 84.36579100217257
11006.7 84.40744879892225
11166.8 84.2339585725783
11329.2 83.26358771612682
11494.0 82.53879152992674
11661.2 83.5858425280017
11830.8 84.33475717755786
12002.9 84.62291354336466
12177.5 84.61569632175889
12354.6 84.32480791066389
12534.3 83.81467782701712
12716.6 82.94054233502756
12901.6 81.90498979508938
13089.2 81.50154245342085
13279.6 81.75333697972567
13472.8 82.12007136233458
13668.8 82.35812962466096
13867.6 82.40929924568357
14069.3 82.380808752589
14273.9 82.29200248720103
14481.5 81.944335647049
14692.2 81.4065446825076
14905.9 81.17695342157921
15122.7 81.32103181703235
15342.7 81.47338516286716
15565.8 81.66498198490956
15792.2 81.99833474750385
16021.9 82.32739157735095
16255.0 82.52100470459439
16491.4 82.63969451595068
16731.3 82.63471392355856
16974.7 82.37400669272573
17221.6 82.06304372180227
17472.1 81.50108082688806
17726.2 80.67784016610199
17984.0 80.05064935347582
18245.6 80.1108828726649
18511.0 80.63894736888494
18780.2 81.36512925556099
19053.4 81.95516206225811
19330.5 82.11728657851863
19611.7 81.63853639741886
19897.0 80.66690996931331
