Freq "Front Wall Bounce"
22.4 70.55812659355256
23.0 70.79701594176554
23.6 71.06128658492398
24.0 71.27399751091059
25.0 71.55197212428976
25.8 71.75197212428976
26.5 71.95826379529719
27.2 72.17189184126224
28.0 72.32748733294943
29.0 72.47638158962557
30.0 72.67638158962556
30.7 72.95938817795997
31.5 73.24991616173145
32.5 73.51847336814409
33.5 73.80984279043248
34.5 74.02602909485488
35.5 74.27105755779407
36.5 74.48776846319618
37.5 74.73357773525058
38.7 74.95082503557677
40.0 75.26840345524825
41.2 75.5936959804126
42.5 75.9712227692762
43.7 76.28954182139341
45.0 76.63900998607652
46.2 76.93625674882911
47.5 77.23625674882912
48.7 77.50360249229745
50.0 77.8826807923221
51.5 78.30271036145857
53.0 78.70275880147487
54.5 79.10275880147486
56.0 79.4236335625516
58.0 79.77340308745605
60.0 80.12510275778722
61.5 80.5753460648663
63.0 80.99734019410464
65.0 81.40072602019097
67.0 81.78207204835283
69.0 82.15227155062377
71.0 82.47542183691513
73.0 82.75708663030565
75.0 83.08074851074008
77.5 83.38074851074006
80.0 83.63360407401267
82.5 83.81592600804778
85.0 84.04036742079619
87.5 84.19427445919086
90.0 84.39427445919087
92.5 84.67723971693596
95.0 84.97723971693596
97.5 85.24875308323685
100.0 85.55742716124553
103.0 85.9024719307707
106.0 86.25742716124552
109.0 86.55742716124551
112.0 86.94102168457647
115.0 87.24102168457647
118.0 87.54102168457646
122.0 87.84102168457648
125.0 88.12492954673289
128.0 88.37089921164045
132.0 88.55491760385289
136.0 88.75491760385289
140.0 88.82492954673289
145.0 88.8549176038529
150.0 89.05491760385289
155.0 89.25491760385287
160.0 89.42940676691627
165.0 89.48539130564126
170.0 89.5136394060688
175.0 89.5136394060688
180.0 89.46005936857912
185.0 89.36005936857912
190.0 89.24440310243668
195.0 89.0600593685791
200.0 88.9136394060688
206.0 88.74440310243669
212.0 88.54440310243669
218.0 88.2600593685791
224.0 88.04440310243669
230.0 87.84440310243669
236.0 87.68539130564125
240.0 87.58539130564125
250.0 87.54440310243669
258.0 87.61363940606881
265.0 87.73924275721993
272.0 87.86982625839039
280.0 88.11116123840142
290.0 88.3652871599955
300.0 88.7111612384014
307.0 89.03924275721991
315.0 89.39366590096782
325.0 89.70914589305828
335.0 89.99366590096781
345.0 90.20914589305826
355.0 90.50914589305827
365.0 90.38336396340043
375.0 90.38336396340043
387.0 90.21363940606881
400.0 89.98847217927516
412.0 89.8351604799582
425.0 89.6106896630263
437.0 89.3866419148176
450.0 89.40287628300402
462.0 89.25086213388185
475.0 89.25086213388185
487.0 89.38279645161535
500.0 89.42758020744903
515.0 89.42758020744903
530.0 89.32758020744902
545.0 89.12758020744903
560.0 88.77293399764477
580.0 88.42758020744903
600.0 88.15620560145521
615.0 87.97933498230336
630.0 87.87933498230336
650.0 87.89597469427741
670.0 87.99597469427741
690.0 88.02163457381297
710.0 88.04878181929043
730.0 88.07740200741135
750.0 88.15923203800298
775.0 88.33763373458919
800.0 88.41817318792494
825.0 88.55263989204599
850.0 88.48045533919455
875.0 88.31821823412567
900.0 88.1052150227068
925.0 88.11341244217809
950.0 88.35641627027701
975.0 88.67850623165005
1000.0 88.76060199394092
1030.0 88.62579638388722
1060.0 88.33698126844558
1090.0 88.27181099747156
1120.0 88.55583275079275
1150.0 88.87896411215165
1180.0 88.63443179205895
1220.0 87.77933498230337
1250.0 86.55620560145522
1280.0 86.26900343133482
1320.0 86.91378885986494
1360.0 87.61378885986494
1400.0 87.8562244116331
1450.0 87.81143763212756
1500.0 87.6427822266196
1550.0 87.36365434445807
1600.0 87.31603278514244
1650.0 87.61344638834518
1700.0 87.8520743265197
1750.0 87.8619225049498
1800.0 88.190497358963
1850.0 88.81119089485507
1900.0 89.00889249225578
1950.0 89.0081594107182
2000.0 88.7814760095729
2060.0 88.24658164240687
2120.0 88.34540424097847
2180.0 88.72499419578288
2240.0 88.20802626348691
2300.0 86.9216051405555
2360.0 86.24796300783109
2400.0 86.15976330863194
2500.0 86.34086452613397
2580.0 86.87476387928785
2650.0 87.83857439183083
2720.0 88.56613328418797
2800.0 88.79218728105373
2900.0 87.93207554972811
3000.0 87.54536420410727
3070.0 88.3978414124313
3150.0 89.05171916012391
3250.0 88.95068892989767
3350.0 87.44422390056066
3450.0 86.53170485276901
3550.0 86.04904044131943
3650.0 85.80108801155433
3750.0 85.9943487844855
3870.0 86.26924136957678
4000.0 87.07698309441594
4120.0 88.76032826248625
4250.0 88.491508712574
4370.0 88.91184657741194
4500.0 89.38868459575954
4620.0 88.86012226555026
4750.0 87.27429324460589
4870.0 87.57693663204441
5000.0 88.06387845367256
5150.0 85.72853895256573
5300.0 85.2517607616896
5450.0 86.98227946159997
5600.0 87.02514852459038
5800.0 88.41374484224845
6000.0 88.86371746895998
6150.0 87.75367026439697
6300.0 88.86572579136852
6500.0 88.73553441362634
6700.0 89.07772581228244
6900.0 88.88436838873668
7100.0 88.13106448807842
7300.0 88.41965096957577
7500.0 87.80428268519995
7750.0 89.47112461030545
8000.0 88.4380219275347
8250.0 88.59874492654102
8500.0 88.90684813439209
8750.0 88.98831390058226
9000.0 88.08525409244042
9250.0 88.71668233957516
9500.0 88.97782613034123
9750.0 89.53315319088827
10000.0 90.6991604559891
10300.0 90.38357216840879
10600.0 89.80227421280445
10900.0 89.82315129764106
11200.0 89.6728787806509
11500.0 88.97184278662051
11800.0 88.07175845205258
12200.0 87.42439334504726
12500.0 88.48849332120875
12800.0 89.0250815766334
13200.0 91.01082033005537
13600.0 91.44965404006471
14000.0 92.02712534894539
14500.0 91.28492805008933
15000.0 90.03299423209799
15500.0 92.599482477211
16000.0 94.08889422728282
16500.0 92.84193375826865
17000.0 87.76836475399273
17500.0 80.22791133528423
18000.0 79.85717285047456
18500.0 74.51286079547663
19000.0 65.70365889746239
19500.0 61.782216788178204
