Freq "Estimated In-Room Response"
22.4 39.126989387674115
23.0 38.58169238035154
23.6 37.934674489525406
24.0 37.66910032705897
25.0 36.9082668191802
25.8 36.46333722220564
26.5 36.41525563500667
27.2 36.82123351676822
28.0 38.409949939882466
29.0 40.113744420699874
30.0 43.262672057720664
30.7 45.896355567749424
31.5 47.205028268771
32.5 49.6055915459107
33.5 51.76954176882734
34.5 53.31633384199884
35.5 55.801502049755356
36.5 57.54200350519167
37.5 58.71295276104641
38.7 60.55191670165118
40.0 62.238958190388104
41.2 63.666809666190474
42.5 64.4863080139211
43.7 65.8245582526266
45.0 67.11384346898086
46.2 68.32894957665287
47.5 69.90424469132675
48.7 71.0095661665583
50.0 71.94208348562285
51.5 72.80254988280325
53.0 73.90605263213435
54.5 74.85777032854698
56.0 75.5379289838962
58.0 76.41079603865839
60.0 77.46071127244646
61.5 78.23624225678527
63.0 78.9667410154545
65.0 79.86527730156953
67.0 80.68921020810836
69.0 81.44820077165825
71.0 82.09532703645961
73.0 82.60830644576565
75.0 83.05394710901305
77.5 83.43463678253484
80.0 83.55080654392702
82.5 83.47228301696298
85.0 83.24047570876905
87.5 82.85885462187548
90.0 82.4909662809215
92.5 82.05676342392685
95.0 81.62538144009137
97.5 81.33631355248633
100.0 81.06677898454534
103.0 80.74034265104116
106.0 80.4725753538812
109.0 80.20516037683589
112.0 79.81874251904898
115.0 79.44979307123795
118.0 79.16250623454681
122.0 78.94192753076912
125.0 78.75412589017448
128.0 78.69325212799674
132.0 78.60122970921559
136.0 78.49678176510582
140.0 78.3404104655046
145.0 78.25211199142237
150.0 78.04506638370354
155.0 77.77101926847959
160.0 77.71765303859254
165.0 77.56784588251398
170.0 77.40290709667654
175.0 77.39052515743197
180.0 77.34712906980333
185.0 77.15121156355956
190.0 76.97184826422294
195.0 76.83563864237655
200.0 76.90137680737942
206.0 77.09885625495795
212.0 77.00074368186293
218.0 76.57658112798404
224.0 76.29192873164084
230.0 76.60718571562467
236.0 77.41794824214782
240.0 78.29987364559403
250.0 78.69324563521324
258.0 78.64894767657995
265.0 78.5488656845834
272.0 78.32423772561134
280.0 78.36255861941252
290.0 78.4014191887697
300.0 78.41410591724895
307.0 78.44273541534088
315.0 78.4568194614742
325.0 78.39498955749399
335.0 78.46764611125472
345.0 78.68917222760827
355.0 78.7365890678212
365.0 78.56237066987097
375.0 78.41813072872952
387.0 78.33191010087302
400.0 78.29164582053279
412.0 78.03614751725232
425.0 77.92625419524785
437.0 77.77616434485984
450.0 77.7133218034756
462.0 77.50554421758868
475.0 77.14145487794985
487.0 76.83747784925494
500.0 76.48299268824421
515.0 77.07391040340889
530.0 77.1100679407825
545.0 75.86376643223639
560.0 75.21565183441965
580.0 76.05402814682319
600.0 77.35114116597441
615.0 76.83815467068607
630.0 75.96010457300734
650.0 75.55858323391169
670.0 74.94999464432573
690.0 74.57728499874693
710.0 74.9786445878071
730.0 75.64798040538429
750.0 76.17204399119973
775.0 76.75240026504007
800.0 76.8646522789492
825.0 76.42148283412077
850.0 76.07650583342178
875.0 75.77530967087245
900.0 75.407549699567
925.0 74.72567514253517
950.0 74.19958197032074
975.0 73.94616478242305
1000.0 73.78195152413687
1030.0 73.68197978085655
1060.0 73.39255722978467
1090.0 73.23048503545856
1120.0 73.30913682384076
1150.0 73.46297672285408
1180.0 73.71513546490809
1220.0 74.093784662485
1250.0 74.28148698594475
1280.0 74.09631141624864
1320.0 73.59566480743774
1360.0 72.90223704016293
1400.0 72.14575647972516
1450.0 71.60504991801761
1500.0 72.55755317139577
1550.0 73.21286627080197
1600.0 72.81097138575268
1650.0 72.14905885151256
1700.0 71.94835205805722
1750.0 71.55227206476607
1800.0 71.8038643765707
1850.0 72.14869612191288
1900.0 72.42511989817976
1950.0 72.91783235576602
2000.0 72.76158325389027
2060.0 71.92943700204214
2120.0 71.47825627118273
2180.0 71.69860724518324
2240.0 72.42040154027433
2300.0 73.0147772446988
2360.0 74.21099515531512
2400.0 75.15953081070154
2500.0 74.56330557965371
2580.0 73.92634832818122
2650.0 73.34914180106387
2720.0 73.60778781901344
2800.0 73.81450782541513
2900.0 74.17778464462243
3000.0 74.51143796230538
3070.0 74.49586369681944
3150.0 74.07287503389338
3250.0 73.89648971922557
3350.0 73.23442492677742
3450.0 73.0398531527427
3550.0 72.46566228638594
3650.0 71.79088690120516
3750.0 72.12262402833414
3870.0 72.70472670667573
4000.0 73.42821351127665
4120.0 73.48392522993997
4250.0 73.22961777861508
4370.0 73.34652129740881
4500.0 73.28931575064158
4620.0 72.82937321073986
4750.0 72.5126367049941
4870.0 73.51549168764625
5000.0 74.56210822458338
5150.0 75.49009295280673
5300.0 76.05612410795821
5450.0 75.71767239383087
5600.0 74.33985017025981
5800.0 72.37754748383068
6000.0 72.37074975259512
6150.0 73.26642667861444
6300.0 74.83988256349751
6500.0 75.21597049132615
6700.0 73.38232843186526
6900.0 71.7818395339916
7100.0 71.64406676760031
7300.0 74.24161397053983
7500.0 77.09679391144537
7750.0 75.16859166577005
8000.0 71.7372307986621
8250.0 70.89361587085888
8500.0 74.90366934198319
8750.0 77.69276965953168
9000.0 74.72396291196392
9250.0 71.05419565519772
9500.0 71.52359544143867
9750.0 73.80258841443813
10000.0 73.46063969827193
10300.0 72.04401954147649
10600.0 73.0955641798449
10900.0 74.54202870415548
11200.0 75.02053718131219
11500.0 75.3136845688445
11800.0 72.78000378162524
12200.0 73.34074418911896
12500.0 74.60153834749997
12800.0 74.47317379856072
13200.0 73.27189552287685
13600.0 74.2522565007374
14000.0 73.46095136739997
14500.0 70.48317874692903
15000.0 75.89608404362725
15500.0 70.66242083679657
16000.0 67.87044108773057
16500.0 70.30408921434505
17000.0 64.59817006563345
17500.0 63.20932141139066
18000.0 65.4654083978071
18500.0 60.974434720572845
19000.0 61.84037773440336
19500.0 63.76802257624057
