Freq,On Axis,Listening Window,Sound Power,Early Reflections,Early Reflections DI,Sound Power DI,DI offset
22.4,18.11518987341772,18.127946400420527,18.295789729766014,18.195969638035663,19.931976762384863,19.832156670654513,20
23.0,16.515189873417725,16.527946400420504,16.72238009438304,16.607936358274358,19.920010042146146,19.805566306037463,20
23.6,14.215189873417742,14.249547194753305,14.47070516365092,14.34205982373247,19.907487371020835,19.778842031102386,20
24.0,10.91518987341773,10.960943430276345,11.226150749599881,11.091024473381125,19.86991895689522,19.734792680676463,20
25.0,8.515189873417725,8.494451511657857,8.779096639022882,8.640272688706759,19.8541788229511,19.715354872634975,20
25.8,10.515189873417725,10.571798905541456,10.876664840882441,10.725650664306826,19.84614824123463,19.695134064659015,20
26.5,15.11518987341772,15.105474254285483,15.424567476857064,15.265502740807008,19.839971513478474,19.68090677742842,20
27.2,18.91518987341773,18.882879219033825,19.19798659242089,19.040631301658934,19.84224791737489,19.684892626612935,20
28.0,21.815189873417708,21.838635887039388,22.110364259550565,21.968599398801118,19.87003648823827,19.728271627488823,20
29.0,24.215189873417742,24.204961233814757,24.453733791409448,24.30867177187939,19.896289461935368,19.75122744240531,20
30.0,26.215189873417742,26.204961233814785,26.38004809327761,26.25352351502194,19.951437718792846,19.824913140537177,20
30.7,27.91518987341773,27.916724862328962,28.032331298856874,27.916346750262974,20.000378112065988,19.884393563472088,20
31.5,29.41518987341773,29.43966579914168,29.469050724023944,29.364227322597273,20.075438476544406,19.970615075117735,20
32.5,30.815189873417708,30.763246321368896,30.720281924628367,30.635104289671418,20.12814203169748,20.04296439674053,20
33.5,32.015189873417725,31.975418062596148,31.84406742682843,31.764863615377166,20.210554447218982,20.131350635767717,20
34.5,33.11518987341772,33.088810590832125,32.8880376310902,32.82014929687894,20.268661293953187,20.200772959741926,20
35.5,34.11518987341772,34.06785975808454,33.80162498329274,33.748598123752586,20.31926163433195,20.266234774791798,20
36.5,35.515189873417725,35.459825868435345,35.154704700753925,35.10543537329686,20.35439049513849,20.30512116768142,20
37.5,36.31518987341771,36.28395464449757,35.95908434954343,35.89931254155813,20.384642102939438,20.324870294954138,20
38.7,37.015189873417725,37.02062259917433,36.66643404491039,36.60701619911826,20.413606400056068,20.354188554263942,20
40.0,38.015189873417725,38.00963828586451,37.63634717700252,37.59153162760494,20.418106658259575,20.37329110886199,20
41.2,38.715189873417714,38.700480720205505,38.322937976392,38.275476354393916,20.42500436581159,20.377542743813507,20
42.5,39.61518987341772,39.567542714595234,39.16245356915344,39.12397295446881,20.443569760126422,20.405089145441792,20
43.7,40.11518987341772,40.11401891984613,39.69324973722435,39.667612102962536,20.446406816883595,20.420769182621783,20
45.0,40.91518987341773,40.889445280173106,40.42348345868777,40.42159634998784,20.46784893018527,20.465961821485337,20
46.2,41.41518987341773,41.35667658216043,40.86876531783135,40.87993014426718,20.476746437893254,20.487911264329085,20
47.5,42.11518987341772,42.02087812589322,41.488563550566184,41.53232907446001,20.48854905143321,20.532314575327035,20
48.7,42.715189873417714,42.62087812589321,42.068915165516145,42.12359671118462,20.497281414708596,20.551962960377068,20
50.0,43.215189873417714,43.196395351644696,42.60537345080989,42.69583330290759,20.50056204873711,20.591021900834804,20
51.5,43.91518987341773,43.9057748039594,43.308193802769736,43.40768849988979,20.498086304069616,20.597581001189667,20
53.0,44.515189873417725,44.470684133989394,43.841907023467456,43.97407619238743,20.496607941601965,20.628777110521938,20
54.5,45.215189873417714,45.15792399192942,44.51573525818459,44.67217127227836,20.48575271965106,20.64218873374483,20
56.0,45.715189873417714,45.734163016318334,45.096402532113956,45.26224074894991,20.471922267368427,20.637760484204378,20
58.0,46.515189873417725,46.499596719453905,45.86002586453007,46.04038480831031,20.459211911143598,20.639570854923832,20
60.0,47.015189873417725,46.997281046511176,46.38155604257139,46.5662497977694,20.431031248741775,20.615725003939787,20
61.5,47.715189873417714,47.697281046511165,47.08625220516262,47.268800962697895,20.42848008381327,20.611028841348542,20
63.0,48.41518987341773,48.36299327542821,47.76980338376943,47.96523572973102,20.39775754569719,20.59318989165878,20
65.0,49.015189873417725,49.01749276358845,48.44315777499227,48.64114586081256,20.376346902775893,20.574334988596178,20
67.0,49.61518987341772,49.61749276358846,49.06639191087247,49.25020549088789,20.367287272700565,20.55110085271599,20
69.0,50.215189873417714,50.21749276358845,49.6705807055355,49.8631329956947,20.354359767893754,20.546912058052953,20
71.0,50.81518987341771,50.82796436517707,50.2966420278493,50.48771680445584,20.340247560721224,20.531322337327765,20
73.0,51.41518987341773,51.41621330484605,50.90532912392379,51.09964343579058,20.31656986905547,20.51088418092226,20
75.0,51.91518987341773,51.894194425284496,51.40864136157687,51.58999982554498,20.304194599739517,20.485553063707627,20
77.5,52.515189873417725,52.51621330484605,52.03327449995906,52.211738349620546,20.3044749552255,20.482938804886984,20
80.0,52.91518987341773,52.91621330484604,52.501482657391506,52.66097126445801,20.255242040388026,20.414730647454533,20
82.5,53.515189873417725,53.51621330484605,53.10249197221323,53.27067598932156,20.245537315524487,20.413721332632818,20
85.0,54.11518987341772,54.10469893081279,53.681369784546675,53.84658344735,20.258115483462788,20.423329146266113,20
87.5,54.61518987341772,54.62693167405412,54.25905697788957,54.405357690374245,20.221573983679875,20.36787469616455,20
90.0,55.31518987341772,55.31544571997358,54.95320066209018,55.09399757236686,20.221448147606722,20.3622450578834,20
92.5,55.91518987341773,55.882621446689456,55.51097634737127,55.65271180354112,20.229909643148332,20.371645099318187,20
95.0,56.515189873417725,56.515445719973584,56.12963185747371,56.28133042332354,20.234115296650046,20.385813862499873,20
97.5,57.11518987341772,57.11544571997359,56.77643837090048,56.918484259261334,20.19696146071226,20.339007349073114,20
100.0,57.81518987341772,57.75991882399494,57.42794760234257,57.56817769443997,20.19174112955497,20.331971221652367,20
103.0,58.515189873417725,58.459918823994926,58.13593497199821,58.269854981006105,20.19006384298882,20.323983851996715,20
106.0,59.11518987341772,59.071029450275475,58.73907784461453,58.87518869376552,20.195840756509952,20.331951605660947,20
109.0,59.81518987341772,59.815445719973596,59.50832307552052,59.64901837868895,20.166427341284646,20.307122644453074,20
112.0,60.41518987341773,60.437611932622914,60.139334239265196,60.27436596754153,20.163245965081387,20.29827769335772,20
115.0,61.11518987341772,61.11518987341772,60.81267169781411,60.95134933255396,20.16384054086376,20.30251817560361,20
118.0,61.715189873417714,61.70419179346435,61.39809999225115,61.53837333039769,20.165818463066657,20.3060918012132,20
122.0,62.215189873417714,62.19316579123149,61.88372388783776,62.02561024660535,20.16755554462614,20.309441903393733,20
125.0,62.61518987341772,62.62641537327613,62.34428948758391,62.47929786014659,20.147117513129544,20.282125885692224,20
128.0,63.015189873417725,62.98211172457822,62.67189239367771,62.81166908278722,20.170442641791,20.31021933090051,20
132.0,63.31518987341771,63.282111724578215,62.96834276170448,63.110603244397694,20.17150848018052,20.313768962873738,20
136.0,63.515189873417725,63.515189873417725,63.21595823098308,63.36180931040157,20.153380563016157,20.29923164243465,20
140.0,63.715189873417714,63.726415373276126,63.44969989362808,63.58324226703559,20.14317310624054,20.276715479648047,20
145.0,64.01518987341773,63.95991882399494,63.668348180223504,63.802841932933134,20.157076891061806,20.291570643771436,20
150.0,64.11518987341772,64.11518987341772,63.826544626663846,63.970986248560166,20.144203624857553,20.288645246753873,20
155.0,64.21518987341771,64.22641537327614,63.93249265772968,64.07607364080505,20.15034173247109,20.293922715546458,20
160.0,64.31518987341774,64.25991882399494,63.93883155101301,64.08810161856326,20.17181720543168,20.321087272981927,20
165.0,64.21518987341771,64.14877970029768,63.829238354685685,63.98302830480456,20.165751395493118,20.319541345611995,20
170.0,64.01518987341773,63.948779700297706,63.62748375436023,63.783028304804574,20.165751395493132,20.32129594593748,20
175.0,63.715189873417714,63.715189873417714,63.369209832882106,63.53916410684889,20.176025766568827,20.345980040535608,20
180.0,63.515189873417725,63.50419179346436,63.12856091321467,63.29477577206431,20.209416021400045,20.375630880249687,20
185.0,63.31518987341771,63.304191793464355,62.89577394467774,63.06845261411699,20.235739179347362,20.408417848786613,20
190.0,63.11518987341772,63.0931657912315,62.67082132836752,62.85630683512673,20.23685895610477,20.422344462863975,20
195.0,62.91518987341773,62.90419179346436,62.458878844591496,62.650185963483395,20.25400582998097,20.445312948872868,20
200.0,62.715189873417714,62.70419179346435,62.24393072431478,62.45452508292421,20.24966671054014,20.460261069149567,20
206.0,62.515189873417725,62.50419179346437,62.02073402985168,62.22759773962339,20.27659405384098,20.48345776361269,20
212.0,62.31518987341772,62.2931657912315,61.792283321961065,62.02736800973743,20.265797781494072,20.500882469270437,20
218.0,62.015189873417725,62.0154457199736,61.5057289885668,61.73347182548089,20.281973894492708,20.509716731406797,20
224.0,61.715189873417714,61.70419179346435,61.155681441825166,61.40625690756757,20.29793488589678,20.54851035163918,20
230.0,61.41518987341773,61.41544571997359,60.84870490933355,61.102549113240386,20.312896606733204,20.56674081064004,20
236.0,61.31518987341772,61.2931657912315,60.7098195239826,60.98269850267282,20.310467288558684,20.5833462672489,20
240.0,61.31518987341772,61.28211172457823,60.65947999008155,60.9452425108406,20.33686921373763,20.62263173449668,20
250.0,61.31518987341772,61.25991882399492,60.59722453332243,60.89626633972141,20.363652484273516,20.66269429067249,20
258.0,61.11518987341772,61.104448288728335,60.44430739636114,60.74929547533176,20.355152813396572,20.660140892367195,20
265.0,60.91518987341773,60.90444828872835,60.22462200453508,60.53751092199447,20.36693736673388,20.67982628419327,20
272.0,60.715189873417714,60.66017204912974,59.94064604867624,60.27988753655596,20.38028451257378,20.7195260004535,20
280.0,60.41518987341773,60.40444828872835,59.662866441441935,59.997705616401205,20.40674267232714,20.74158184728641,20
290.0,60.215189873417714,60.215701551458196,59.47811060777137,59.83481744491938,20.380884106538815,20.737590943686826,20
300.0,60.31518987341772,60.226925730533566,59.46771050023075,59.82678476529394,20.40014096523963,20.759215230302814,20
307.0,60.515189873417725,60.42692573053358,59.64938220544566,60.019878284571035,20.407047445962547,20.77754352508792,20
315.0,60.715189873417714,60.70444828872833,59.8933670370682,60.25319918768574,20.451249101042592,20.811081251660127,20
325.0,60.91518987341773,60.8934229385016,60.065912018250685,60.43976283213027,20.45366010637133,20.827510920250916,20
335.0,61.11518987341772,61.071540474673824,60.235540073183856,60.60938527342822,20.462155201245608,20.83600040148997,20
345.0,61.31518987341772,61.30444828872834,60.4736726155996,60.84681867205114,20.457629616677195,20.83077567312874,20
355.0,61.515189873417725,61.41595736787333,60.556328414194084,60.94295884199322,20.472998525880115,20.85962895367925,20
365.0,61.41518987341773,61.304704768844545,60.43100554879415,60.80568342476221,20.499021344082337,20.873699220050398,20
375.0,61.31518987341772,61.2715404746738,60.374935358828495,60.76154147200886,20.50999900266494,20.896605115845304,20
387.0,61.61518987341772,61.51595736787333,60.59947381095387,60.98513735595158,20.530820011921747,20.91648355691946,20
400.0,62.015189873417725,61.949033575738724,60.99562635313137,61.396510493517425,20.5525230822213,20.953407222607353,20
412.0,62.31518987341772,62.238120975898354,61.24661843461665,61.651500110988295,20.58662086491006,20.991502541281704,20
425.0,62.41518987341773,62.33812097589836,61.28985211208061,61.7238735211202,20.614247454778166,21.048268863817754,20
437.0,62.515189873417725,62.42743022026899,61.298891858221324,61.757234856463526,20.670195363805462,21.128538362047664,20
450.0,62.41518987341773,62.26068435261652,61.072633996484115,61.571302325237355,20.689382027379168,21.188050356132408,20
462.0,61.91518987341773,61.738884563874834,60.46032875146109,61.00422025157637,20.734664312298463,21.278555812413742,20
475.0,61.715189873417714,61.62743022026896,60.22618002416071,60.82052317294762,20.806907047321346,21.40125019610825,20
487.0,62.215189873417714,62.11620734663882,60.60706372227645,61.26667645495601,20.849530891682804,21.509143624362366,20
500.0,62.515189873417725,62.33888456387484,60.71609064913518,61.43646075794486,20.902423805929985,21.62279391473966,20
515.0,62.515189873417725,62.3614439840745,60.59398442102889,61.38067539155462,20.98076859251988,21.767459563045605,20
530.0,62.41518987341773,62.23888456387485,60.3459065572208,61.19352277573273,21.045361788142117,21.892978006654047,20
545.0,62.11518987341772,61.92819569007183,59.90364930638508,60.819041345742036,21.109154344329795,22.024546383686754,20
560.0,61.715189873417714,61.60621428448444,59.46148852086398,60.43829933257588,21.167914951908557,22.144725763620457,20
580.0,61.715189873417714,61.55030877655835,59.25662317058405,60.30638744595905,21.243921330599306,22.293685605974304,20
600.0,61.515189873417725,61.31772464690616,58.89469097479595,60.01340415052364,21.304320496382516,22.423033672110208,20
615.0,60.715189873417714,60.584144521964035,58.029478476594406,59.20902587291502,21.375118649049014,22.55466604536963,20
630.0,60.715189873417714,60.57280908494366,57.89168862046749,59.13092874115269,21.44188034379097,22.681120464476166,20
650.0,60.91518987341773,60.72920458335845,57.92577950185307,59.22021551917892,21.50898906417953,22.80342508150538,20
670.0,61.11518987341772,60.973807668495255,58.07954785961954,59.41416941279668,21.559638255698573,22.894259808875717,20
690.0,61.41518987341773,61.25181421147478,58.24502565136585,59.63852987095876,21.613284340516017,23.00678856010893,20
710.0,60.91518987341773,60.70798606314956,57.5999384874232,59.02770732036744,21.68027874278212,23.10804757572636,20
730.0,61.11518987341772,60.87407198079423,57.68986776050552,59.16186675632078,21.71220522447345,23.184204220288706,20
750.0,61.91518987341773,61.740654254270595,58.462282798036014,59.97744354424384,21.763210710026755,23.27837145623458,20
775.0,62.31518987341772,62.140654254270586,58.78227961947003,60.32715807972268,21.813496174547907,23.358374634800555,20
800.0,62.41518987341773,62.163469465886365,58.72356308004109,60.31374823999714,21.849721225889226,23.439906385845276,20
825.0,61.91518987341773,61.73045118817643,58.22407620294371,59.83531354493415,21.89513764324228,23.506374985232725,20
850.0,61.81518987341774,61.586165446242944,58.02354257973674,59.674791365552636,21.911374080690308,23.562622866506203,20
875.0,62.015189873417725,61.764447422079925,58.09068683382941,59.78935154681348,21.975095875266447,23.673760588250516,20
900.0,61.91518987341773,61.65357353269566,57.89459421954399,59.63228216575192,22.021291366943743,23.75897931315167,20
925.0,61.41518987341773,61.197466120878886,57.35272635660441,59.14641926545387,22.051046855425014,23.84473976427448,20
950.0,61.31518987341772,61.09746612087889,57.170748537886894,59.02829579205711,22.069170328821784,23.926717582991998,20
975.0,61.715189873417714,61.47580467620024,57.40459689286111,59.332883164811264,22.142921511388977,24.071207783339133,20
1000.0,61.41518987341773,61.175804676200244,57.0205359332941,59.0129932246446,22.16281145155564,24.155268742906145,20
1030.0,60.91518987341773,60.70899966165052,56.445135761946275,58.50639853564893,22.202601126001596,24.263863899704248,20
1060.0,61.11518987341772,60.90899966165054,56.55433202311053,58.682971325967245,22.226028335683296,24.354667638540008,20
1090.0,61.015189873417725,60.831233941827136,56.35614497946705,58.54915949487052,22.282074446956614,24.47508896236009,20
1120.0,61.215189873417714,61.02027646814392,56.47695529136004,58.74212748871933,22.278148979424586,24.543321176783877,20
1150.0,61.31518987341772,61.165753867516045,56.51585739918782,58.846401930169364,22.31935193734668,24.649896468328222,20
1180.0,61.31518987341772,61.077371821660634,56.340263390305566,58.734664967984656,22.342706853675978,24.737108431355068,20
1220.0,61.81518987341774,61.61109748619599,56.81274099759558,59.26494774274752,22.346149743448464,24.798356488600405,20
1250.0,61.715189873417714,61.5467836527868,56.66547151920379,59.18576306962265,22.361020583164148,24.88131213358301,20
1280.0,61.41518987341773,61.18173514563418,56.228898215639234,58.8146984332074,22.36703671242678,24.952836929994945,20
1320.0,62.015189873417725,61.86375410493817,56.83917901887547,59.47393082725044,22.389823277687725,25.024575086062697,20
1360.0,62.41518987341773,62.23399875543329,57.16570241696802,59.835292471502385,22.398706283930906,25.068296338465274,20
1400.0,62.515189873417725,62.341017003052215,57.2477625108109,59.944361912784856,22.39665509026736,25.093254492241314,20
1450.0,62.31518987341772,62.118103172870065,57.00285789414848,59.71918162409844,22.398921548771625,25.115245278721588,20
1500.0,62.215189873417714,61.96148239878873,56.83186633334191,59.55699992559184,22.404482473196893,25.129616065446825,20
1550.0,62.31518987341772,62.0938640427172,56.9692122559068,59.692881997772545,22.400982044944655,25.124651786810404,20
1600.0,62.515189873417725,62.28718124542361,57.14845849100509,59.86109425632628,22.42608698909733,25.138722754418524,20
1650.0,62.31518987341772,62.0739899902774,56.947119340928595,59.636756432585074,22.437233557692323,25.126870649348803,20
1700.0,62.81518987341772,62.509925357279585,57.39894163269457,60.0650211945221,22.44490416275748,25.11098372458501,20
1750.0,62.81518987341772,62.584679649081295,57.47295611070159,60.12224086211606,22.462438786965237,25.111723538379707,20
1800.0,62.91518987341773,62.6895675776735,57.56365081029196,60.18370211400858,22.505865463664918,25.12591676738154,20
1850.0,62.715189873417714,62.40767087467228,57.275280125948115,59.87676594257118,22.530904932101095,25.132390748724163,20
1900.0,61.91518987341773,61.6022783942056,56.45594252830709,59.02543445067228,22.57684394353332,25.146335865898507,20
1950.0,61.715189873417714,61.43152107077336,56.24585277946768,58.80681807579478,22.624702994978577,25.185668291305674,20
2000.0,62.11518987341772,61.74350321988031,56.51673469525656,59.05189791345559,22.69160530642472,25.22676852462375,20
2060.0,62.61518987341772,62.21828757946402,56.962728516772486,59.4902967311897,22.727990848274317,25.255559062691532,20
2120.0,62.015189873417725,61.575408452495,56.27973676819336,58.80131518175564,22.774093270739357,25.295671684301638,20
2180.0,62.31518987341772,61.85071245843562,56.52061431433633,59.02539251904473,22.825319939390894,25.330098144099296,20
2240.0,62.515189873417725,61.99405344451516,56.61992243826157,59.12756152253394,22.866491921981222,25.37413100625359,20
2300.0,62.515189873417725,61.964438243255884,56.55235577616267,59.06532632398104,22.899111919274844,25.412082467093214,20
2360.0,62.715189873417714,62.164450028118765,56.72927665490387,59.238564947932375,22.92588508018639,25.435173373214894,20
2400.0,63.31518987341771,62.68159821193237,57.23840238645502,59.7402569206114,22.941341291320967,25.443195825477346,20
2500.0,63.61518987341772,63.00625354379628,57.536716784787686,60.04720325344451,22.95905029035177,25.46953675900859,20
2580.0,63.515189873417725,62.87009882018576,57.3982500033722,59.905660761893046,22.964438058292714,25.471848816813562,20
