Freq "On Axis"
22.4 18.11518987341772
23.0 16.515189873417725
23.6 14.215189873417742
24.0 10.91518987341773
25.0 8.515189873417725
25.8 10.515189873417725
26.5 15.11518987341772
27.2 18.91518987341773
28.0 21.815189873417708
29.0 24.215189873417742
30.0 26.215189873417742
30.7 27.91518987341773
31.5 29.41518987341773
32.5 30.815189873417708
33.5 32.015189873417725
34.5 33.11518987341772
35.5 34.11518987341772
36.5 35.515189873417725
37.5 36.31518987341771
38.7 37.015189873417725
40.0 38.015189873417725
41.2 38.715189873417714
42.5 39.61518987341772
43.7 40.11518987341772
45.0 40.91518987341773
46.2 41.41518987341773
47.5 42.11518987341772
48.7 42.715189873417714
50.0 43.215189873417714
51.5 43.91518987341773
53.0 44.515189873417725
54.5 45.215189873417714
56.0 45.715189873417714
58.0 46.515189873417725
60.0 47.015189873417725
61.5 47.715189873417714
63.0 48.41518987341773
65.0 49.015189873417725
67.0 49.61518987341772
69.0 50.215189873417714
71.0 50.81518987341771
73.0 51.41518987341773
75.0 51.91518987341773
77.5 52.515189873417725
80.0 52.91518987341773
82.5 53.515189873417725
85.0 54.11518987341772
87.5 54.61518987341772
90.0 55.31518987341772
92.5 55.91518987341773
95.0 56.515189873417725
97.5 57.11518987341772
100.0 57.81518987341772
103.0 58.515189873417725
106.0 59.11518987341772
109.0 59.81518987341772
112.0 60.41518987341773
115.0 61.11518987341772
118.0 61.715189873417714
122.0 62.215189873417714
125.0 62.61518987341772
128.0 63.015189873417725
132.0 63.31518987341771
136.0 63.515189873417725
140.0 63.715189873417714
145.0 64.01518987341773
150.0 64.11518987341772
155.0 64.21518987341771
160.0 64.31518987341774
165.0 64.21518987341771
170.0 64.01518987341773
175.0 63.715189873417714
180.0 63.515189873417725
185.0 63.31518987341771
190.0 63.11518987341772
195.0 62.91518987341773
200.0 62.715189873417714
206.0 62.515189873417725
212.0 62.31518987341772
218.0 62.015189873417725
224.0 61.715189873417714
230.0 61.41518987341773
236.0 61.31518987341772
240.0 61.31518987341772
250.0 61.31518987341772
258.0 61.11518987341772
265.0 60.91518987341773
272.0 60.715189873417714
280.0 60.41518987341773
290.0 60.215189873417714
300.0 60.31518987341772
307.0 60.515189873417725
315.0 60.715189873417714
325.0 60.91518987341773
335.0 61.11518987341772
345.0 61.31518987341772
355.0 61.515189873417725
365.0 61.41518987341773
375.0 61.31518987341772
387.0 61.61518987341772
400.0 62.015189873417725
412.0 62.31518987341772
425.0 62.41518987341773
437.0 62.515189873417725
450.0 62.41518987341773
462.0 61.91518987341773
475.0 61.715189873417714
487.0 62.215189873417714
500.0 62.515189873417725
515.0 62.515189873417725
530.0 62.41518987341773
545.0 62.11518987341772
560.0 61.715189873417714
580.0 61.715189873417714
600.0 61.515189873417725
615.0 60.715189873417714
630.0 60.715189873417714
650.0 60.91518987341773
670.0 61.11518987341772
690.0 61.41518987341773
710.0 60.91518987341773
730.0 61.11518987341772
750.0 61.91518987341773
775.0 62.31518987341772
800.0 62.41518987341773
825.0 61.91518987341773
850.0 61.81518987341774
875.0 62.015189873417725
900.0 61.91518987341773
925.0 61.41518987341773
950.0 61.31518987341772
975.0 61.715189873417714
1000.0 61.41518987341773
1030.0 60.91518987341773
1060.0 61.11518987341772
1090.0 61.015189873417725
1120.0 61.215189873417714
1150.0 61.31518987341772
1180.0 61.31518987341772
1220.0 61.81518987341774
1250.0 61.715189873417714
1280.0 61.41518987341773
1320.0 62.015189873417725
1360.0 62.41518987341773
1400.0 62.515189873417725
1450.0 62.31518987341772
1500.0 62.215189873417714
1550.0 62.31518987341772
1600.0 62.515189873417725
1650.0 62.31518987341772
1700.0 62.81518987341772
1750.0 62.81518987341772
1800.0 62.91518987341773
1850.0 62.715189873417714
1900.0 61.91518987341773
1950.0 61.715189873417714
2000.0 62.11518987341772
2060.0 62.61518987341772
2120.0 62.015189873417725
2180.0 62.31518987341772
2240.0 62.515189873417725
2300.0 62.515189873417725
2360.0 62.715189873417714
2400.0 63.31518987341771
2500.0 63.61518987341772
2580.0 63.515189873417725
2650.0 62.91518987341773
2720.0 63.015189873417725
2800.0 63.61518987341772
2900.0 64.01518987341773
3000.0 64.01518987341773
3070.0 63.41518987341773
3150.0 63.015189873417725
3250.0 62.91518987341773
3350.0 62.515189873417725
3450.0 61.91518987341773
3550.0 61.61518987341772
3650.0 61.41518987341773
3750.0 61.31518987341772
3870.0 61.31518987341772
4000.0 61.515189873417725
4120.0 61.61518987341772
4250.0 61.61518987341772
4370.0 61.41518987341773
4500.0 61.11518987341772
4620.0 60.91518987341773
4750.0 60.715189873417714
4870.0 60.81518987341771
5000.0 61.015189873417725
5150.0 61.31518987341772
5300.0 62.015189873417725
5450.0 62.515189873417725
5600.0 62.515189873417725
5800.0 62.31518987341772
6000.0 62.215189873417714
6150.0 61.91518987341773
6300.0 61.715189873417714
6500.0 61.515189873417725
6700.0 61.11518987341772
6900.0 60.91518987341773
7100.0 61.015189873417725
7300.0 61.11518987341772
7500.0 61.215189873417714
7750.0 61.015189873417725
8000.0 60.81518987341771
8250.0 60.715189873417714
8500.0 61.015189873417725
8750.0 61.31518987341772
9000.0 61.215189873417714
9250.0 60.91518987341773
9500.0 60.715189873417714
9750.0 60.91518987341773
10000.0 61.015189873417725
10300.0 61.11518987341772
10600.0 61.41518987341773
10900.0 61.91518987341773
11200.0 61.41518987341773
11500.0 60.715189873417714
11800.0 60.41518987341773
12200.0 59.715189873417714
12500.0 59.715189873417714
12800.0 60.31518987341772
13200.0 61.41518987341773
13600.0 62.41518987341773
14000.0 61.91518987341773
14500.0 60.515189873417725
15000.0 59.215189873417714
15500.0 57.91518987341773
16000.0 57.215189873417714
16500.0 57.11518987341772
17000.0 57.11518987341772
17500.0 59.015189873417725
18000.0 59.015189873417725
18500.0 57.215189873417714
19000.0 55.81518987341771
19500.0 54.515189873417725
