Freq "Sound Power"
22.4 18.295789729766014
23.0 16.72238009438304
23.6 14.47070516365092
24.0 11.226150749599881
25.0 8.779096639022882
25.8 10.876664840882441
26.5 15.424567476857064
27.2 19.19798659242089
28.0 22.110364259550565
29.0 24.453733791409448
30.0 26.38004809327761
30.7 28.032331298856874
31.5 29.469050724023944
32.5 30.720281924628367
33.5 31.84406742682843
34.5 32.8880376310902
35.5 33.80162498329274
36.5 35.154704700753925
37.5 35.95908434954343
38.7 36.66643404491039
40.0 37.63634717700252
41.2 38.322937976392
42.5 39.16245356915344
43.7 39.69324973722435
45.0 40.42348345868777
46.2 40.86876531783135
47.5 41.488563550566184
48.7 42.068915165516145
50.0 42.60537345080989
51.5 43.308193802769736
53.0 43.841907023467456
54.5 44.51573525818459
56.0 45.096402532113956
58.0 45.86002586453007
60.0 46.38155604257139
61.5 47.08625220516262
63.0 47.76980338376943
65.0 48.44315777499227
67.0 49.06639191087247
69.0 49.6705807055355
71.0 50.2966420278493
73.0 50.90532912392379
75.0 51.40864136157687
77.5 52.03327449995906
80.0 52.501482657391506
82.5 53.10249197221323
85.0 53.681369784546675
87.5 54.25905697788957
90.0 54.95320066209018
92.5 55.51097634737127
95.0 56.12963185747371
97.5 56.77643837090048
100.0 57.42794760234257
103.0 58.13593497199821
106.0 58.73907784461453
109.0 59.50832307552052
112.0 60.139334239265196
115.0 60.81267169781411
118.0 61.39809999225115
122.0 61.88372388783776
125.0 62.34428948758391
128.0 62.67189239367771
132.0 62.96834276170448
136.0 63.21595823098308
140.0 63.44969989362808
145.0 63.668348180223504
150.0 63.826544626663846
155.0 63.93249265772968
160.0 63.93883155101301
165.0 63.829238354685685
170.0 63.62748375436023
175.0 63.369209832882106
180.0 63.12856091321467
185.0 62.89577394467774
190.0 62.67082132836752
195.0 62.458878844591496
200.0 62.24393072431478
206.0 62.02073402985168
212.0 61.792283321961065
218.0 61.5057289885668
224.0 61.155681441825166
230.0 60.84870490933355
236.0 60.7098195239826
240.0 60.65947999008155
250.0 60.59722453332243
258.0 60.44430739636114
265.0 60.22462200453508
272.0 59.94064604867624
280.0 59.662866441441935
290.0 59.47811060777137
300.0 59.46771050023075
307.0 59.64938220544566
315.0 59.8933670370682
325.0 60.065912018250685
335.0 60.235540073183856
345.0 60.4736726155996
355.0 60.556328414194084
365.0 60.43100554879415
375.0 60.374935358828495
387.0 60.59947381095387
400.0 60.99562635313137
412.0 61.24661843461665
425.0 61.28985211208061
437.0 61.298891858221324
450.0 61.072633996484115
462.0 60.46032875146109
475.0 60.22618002416071
487.0 60.60706372227645
500.0 60.71609064913518
515.0 60.59398442102889
530.0 60.3459065572208
545.0 59.90364930638508
560.0 59.46148852086398
580.0 59.25662317058405
600.0 58.89469097479595
615.0 58.029478476594406
630.0 57.89168862046749
650.0 57.92577950185307
670.0 58.07954785961954
690.0 58.24502565136585
710.0 57.5999384874232
730.0 57.68986776050552
750.0 58.462282798036014
775.0 58.78227961947003
800.0 58.72356308004109
825.0 58.22407620294371
850.0 58.02354257973674
875.0 58.09068683382941
900.0 57.89459421954399
925.0 57.35272635660441
950.0 57.170748537886894
975.0 57.40459689286111
1000.0 57.0205359332941
1030.0 56.445135761946275
1060.0 56.55433202311053
1090.0 56.35614497946705
1120.0 56.47695529136004
1150.0 56.51585739918782
1180.0 56.340263390305566
1220.0 56.81274099759558
1250.0 56.66547151920379
1280.0 56.228898215639234
1320.0 56.83917901887547
1360.0 57.16570241696802
1400.0 57.2477625108109
1450.0 57.00285789414848
1500.0 56.83186633334191
1550.0 56.9692122559068
1600.0 57.14845849100509
1650.0 56.947119340928595
1700.0 57.39894163269457
1750.0 57.47295611070159
1800.0 57.56365081029196
1850.0 57.275280125948115
1900.0 56.45594252830709
1950.0 56.24585277946768
2000.0 56.51673469525656
2060.0 56.962728516772486
2120.0 56.27973676819336
2180.0 56.52061431433633
2240.0 56.61992243826157
2300.0 56.55235577616267
2360.0 56.72927665490387
2400.0 57.23840238645502
2500.0 57.536716784787686
2580.0 57.3982500033722
2650.0 56.767844698414805
2720.0 56.89989252264998
2800.0 57.476422413986754
2900.0 57.836004551484606
3000.0 57.89286608661317
3070.0 57.196245396657346
3150.0 56.77725147481371
3250.0 56.69011808211857
3350.0 56.205803198864444
3450.0 55.53409721827606
3550.0 55.220934877004694
3650.0 54.93827316702534
3750.0 54.743315764270406
3870.0 54.624254102338185
4000.0 54.738327986009764
4120.0 54.687931131470435
4250.0 54.60626030470951
4370.0 54.31315109147441
4500.0 53.85909256569143
4620.0 53.56156124441107
4750.0 53.33204341994919
4870.0 53.32806624783835
5000.0 53.449318725797596
5150.0 53.679150093814
5300.0 54.26557328294322
5450.0 54.7085634753451
5600.0 54.67372117094418
5800.0 54.421101511615646
6000.0 54.288709343933235
6150.0 54.02534254515872
6300.0 53.7565294710563
6500.0 53.505733211140694
6700.0 53.13541497873787
6900.0 52.80011618475115
7100.0 52.858780449853555
7300.0 52.881598626190865
7500.0 52.91776631296709
7750.0 52.64510942215644
8000.0 52.28411862810064
8250.0 52.12113637354095
8500.0 52.186168131741525
8750.0 52.41500880842355
9000.0 52.1517507490655
9250.0 51.7020817082053
9500.0 51.35350677008431
9750.0 51.412582620518805
10000.0 51.27697836602299
10300.0 51.257257759877845
10600.0 51.51891431274268
10900.0 51.90308775408512
11200.0 51.24341794442866
11500.0 50.51153045663254
11800.0 50.14632540225419
12200.0 49.447401903753914
12500.0 49.41146502551193
12800.0 49.96676805624777
13200.0 50.9671936215877
13600.0 51.93485794805923
14000.0 51.37343007141517
14500.0 49.81836774532847
15000.0 48.40080030166568
15500.0 47.06168102189574
16000.0 46.22426134829382
16500.0 45.953696695503965
17000.0 45.83538560356003
17500.0 47.67173243044009
18000.0 47.623687911986565
18500.0 45.72391608765794
19000.0 44.36486381174693
19500.0 43.09989254255072
