Freq "Listening Window"
22.4 -7.187767441099524
23.0 -4.295691691841128
23.6 -0.8497464791666829
24.0 0.47558709476753336
25.0 1.3438299637142137
25.8 2.2879462080950503
26.5 3.27952413506803
27.2 4.4678593615729625
28.0 5.601259600792801
29.0 7.167506631368681
30.0 8.17288407624379
30.7 8.070812475343146
31.5 9.970315155131246
32.5 12.762124342339504
33.5 14.336637342046217
34.5 15.934637107929959
35.5 18.488369750270735
36.5 20.460833248664372
37.5 21.477069478849003
38.7 22.476527963351984
40.0 24.55547066619677
41.2 27.18224975137089
42.5 30.423408622699085
43.7 32.17552908194462
45.0 31.72273625178657
46.2 31.73545799428122
47.5 33.15995562732026
48.7 37.3545740367221
50.0 40.06905416525974
51.5 42.376409350066
53.0 44.029128502128046
54.5 45.92179046307963
56.0 48.72583847035945
58.0 49.422330204440655
60.0 51.15594956840387
61.5 53.670045281631744
63.0 55.71829263838235
65.0 57.850348437282776
67.0 59.0296059554402
69.0 60.73728292066467
71.0 62.59818381560457
73.0 64.22060615716639
75.0 65.89529580624882
77.5 67.51324347649869
80.0 69.1137654781959
82.5 70.62445814420117
85.0 72.12293110248063
87.5 73.51173585711585
90.0 74.82319152961713
92.5 75.97875330279001
95.0 76.94498217571201
97.5 77.66743157327174
100.0 78.16743157327174
103.0 78.54524128393409
106.0 78.7568734667009
109.0 78.92423322006925
112.0 79.02344601362167
115.0 79.1681873776849
118.0 79.23460537419207
122.0 79.3015116981936
125.0 79.33460537419207
128.0 79.37898114000669
132.0 79.40151169819359
136.0 79.41273329638743
140.0 79.44648419610154
145.0 79.43508988019029
150.0 79.54648419610153
155.0 79.54720358089867
160.0 79.53728287288855
165.0 79.52612460995225
170.0 79.52612460995225
175.0 79.51638275575661
180.0 79.51638275575661
185.0 79.42782619350767
190.0 79.36171858260171
195.0 79.2974971236301
200.0 79.20872908634402
206.0 79.18834599102547
212.0 79.1657468491676
218.0 79.20872908634402
224.0 79.2996016151792
230.0 79.34089740279423
236.0 79.44945409189363
240.0 79.57213795325735
250.0 79.64945409189363
258.0 79.66249888282454
265.0 79.6394990086638
272.0 79.57135938312827
280.0 79.47304333891209
290.0 79.40872908634402
300.0 79.32536645785135
307.0 79.27757489761603
315.0 79.21186017308123
325.0 79.17679131012171
335.0 79.14301680265689
345.0 79.0894015772043
355.0 79.02412080413447
365.0 78.93528420999421
375.0 78.84721425343047
387.0 78.82008529397984
400.0 78.81125251992769
412.0 78.79275073346541
425.0 78.74027688223974
437.0 78.7327413120323
450.0 78.69588978559933
462.0 78.6994496534386
475.0 78.7295172137869
487.0 78.82346137263639
500.0 78.96424269609548
515.0 78.99615876626991
530.0 78.87921779902881
545.0 78.7507105645319
560.0 78.65548712135471
580.0 78.68378545586712
600.0 78.80479263565499
615.0 78.95981671599112
630.0 79.00052754455311
650.0 78.89274532672142
670.0 78.68738313457953
690.0 78.56484477382779
710.0 78.4652810321377
730.0 78.46507139185043
750.0 78.54012358055208
775.0 78.72542052149704
800.0 78.93670588526463
825.0 79.05256379460256
850.0 79.06138303031456
875.0 78.93575991060737
900.0 78.71874733285276
925.0 78.43668014902418
950.0 78.42371337801944
975.0 78.65073451442218
1000.0 78.71637752282922
1030.0 78.77159365888771
1060.0 78.86384701534782
1090.0 78.75323099967854
1120.0 78.64344255939481
1150.0 78.50797528645211
1180.0 78.56563242577413
1220.0 78.71768159974776
1250.0 78.74688986490442
1280.0 78.68396861689321
1320.0 78.96141094747396
1360.0 79.25042062959311
1400.0 79.19928410668959
1450.0 79.33365154732233
1500.0 79.17444449720797
1550.0 79.18471203262612
1600.0 79.19574722913357
1650.0 79.06555472625122
1700.0 78.81710678729769
1750.0 78.70545077167185
1800.0 78.81801847411838
1850.0 78.98635708188586
1900.0 79.18502137357801
1950.0 79.65142698165756
2000.0 79.73314664988634
2060.0 79.43327972775027
2120.0 79.33878753244626
2180.0 79.11234309321088
2240.0 79.10686987423377
2300.0 79.31434501920371
2360.0 79.50773642922773
2400.0 79.55976523950916
2500.0 79.8178454626915
2580.0 79.63644461395081
2650.0 79.37032982182635
2720.0 78.89750766675624
2800.0 78.11724307977956
2900.0 78.1405724861345
3000.0 78.0850751052605
3070.0 78.33048274615047
3150.0 78.39697946707594
3250.0 78.18763528369772
3350.0 78.21442671009369
3450.0 78.12078980277393
3550.0 78.36297954864648
3650.0 78.06049224111219
3750.0 77.99002318402765
3870.0 77.72049009643467
4000.0 77.46207432479792
4120.0 77.97879763425817
4250.0 77.80446664228326
4370.0 77.65322859657942
4500.0 77.50759205285011
4620.0 77.3631792484867
4750.0 77.28625551332279
4870.0 77.10722272432552
5000.0 77.0591424395665
5150.0 77.18613688046281
5300.0 77.72237564418565
5450.0 78.12688362663268
5600.0 78.42775292078422
5800.0 78.76666029227208
6000.0 77.4770634938999
6150.0 77.87049483905045
6300.0 78.13972079871945
6500.0 77.41790364092986
6700.0 77.13139123582147
6900.0 77.81544643279523
7100.0 78.30820590787751
7300.0 78.02572454099707
7500.0 78.06922016929609
7750.0 77.81861946850871
8000.0 78.34729278527486
8250.0 78.90855583826523
8500.0 79.11916276947366
8750.0 78.89586060529751
9000.0 78.13382886354039
9250.0 77.21888234049801
9500.0 76.9107652425905
9750.0 77.06152398485537
10000.0 77.50460793153373
10300.0 78.1112643138559
10600.0 78.52453480179145
10900.0 78.10969412375479
11200.0 77.31440001740944
11500.0 77.6755015824066
11800.0 78.34251677744668
12200.0 78.57277824757794
12500.0 78.13116734719914
12800.0 77.40026897597909
13200.0 75.58400131945342
13600.0 75.97891437244712
14000.0 75.77557669996078
14500.0 77.56675518324037
15000.0 78.49906068076685
15500.0 78.14303159465659
16000.0 77.15788587253631
16500.0 76.93918178732835
17000.0 76.9616093775321
17500.0 77.71182448244537
18000.0 78.9300533473237
18500.0 79.98818561426476
19000.0 79.28729380043474
19500.0 78.0226445933986
