Freq "Estimated In-Room Response"
22.4 -3.9133241300477266
23.0 -3.5491926329166574
23.6 -2.7313771192436604
24.0 -0.11395493085436215
25.0 1.693842612321049
25.8 2.965589759684377
26.5 3.9730585062190755
27.2 4.818008928499921
28.0 5.541972082414333
29.0 6.239379540463744
30.0 7.482179259715025
30.7 9.584975772689916
31.5 11.133012797925801
32.5 12.34145969876738
33.5 13.353614202028695
34.5 14.175049651220178
35.5 15.162722181657386
36.5 17.46363815011796
37.5 19.274814096073385
38.7 20.676376855018844
40.0 21.829026663232668
41.2 22.9430839485903
42.5 24.96114176549429
43.7 26.970774189573945
45.0 28.581904150245492
46.2 30.015259731468745
47.5 31.540711665292832
48.7 34.00317978151497
50.0 36.00338287877
51.5 37.72057224119939
53.0 39.363367346710874
54.5 41.49458404597382
56.0 43.509549862400405
58.0 45.38501588014188
60.0 47.25723564912698
61.5 49.381704701398945
63.0 51.181693847750864
65.0 52.88082419560868
67.0 55.368669782565604
69.0 57.558735422490344
71.0 59.432639876517015
73.0 61.48705050367613
75.0 63.23851319352329
77.5 64.90934101409542
80.0 66.55741282087259
82.5 68.19845979409973
85.0 69.76433955311991
87.5 71.13737864596968
90.0 72.28575440552804
92.5 73.15164575622322
95.0 73.90264566041955
97.5 74.63885581607433
100.0 75.36726301374007
103.0 75.9054340993025
106.0 76.3825171012482
109.0 77.02347006432873
112.0 77.5616718068844
115.0 77.91692487335581
118.0 78.26571122676148
122.0 78.59117856507419
125.0 78.87387547334595
128.0 78.94692293295743
132.0 79.16059780483205
136.0 79.37057691830235
140.0 79.52011148543474
145.0 79.72118332438188
150.0 79.85413614305632
155.0 80.00375200143927
160.0 80.1533407820609
165.0 80.2835365437811
170.0 80.3568994113458
175.0 80.39929814415389
180.0 80.45903444610843
185.0 80.52167119681837
190.0 80.55482844268349
195.0 80.5654660461812
200.0 80.57187143329894
206.0 80.59670268827034
212.0 80.63043899198058
218.0 80.62914376397107
224.0 80.63778091016286
230.0 80.65586457643033
236.0 80.68343054610202
240.0 80.66998315942769
250.0 80.59370707056735
258.0 80.51020376380113
265.0 80.37148625211633
272.0 80.25563869928457
280.0 80.07138683885483
290.0 79.99538196034922
300.0 79.92316230908571
307.0 79.8645156499065
315.0 79.87392543201207
325.0 79.91786349815027
335.0 79.95005519250469
345.0 79.90476229877345
355.0 79.89071161339447
365.0 79.8431053839568
375.0 79.75092741974731
387.0 79.72028025641714
400.0 79.68648699836746
412.0 79.7123768837391
425.0 79.72827578858897
437.0 79.69317499451182
450.0 79.66025900651294
462.0 79.57457597686533
475.0 79.51005104705018
487.0 79.42531680605796
500.0 79.32405475383376
515.0 79.26321470505363
530.0 79.18729874059859
545.0 79.11342732108136
560.0 79.02650739962573
580.0 78.95373825074188
600.0 78.89722413919297
615.0 78.78083900858397
630.0 78.74109933331044
650.0 78.78784763390382
670.0 78.72709098070118
690.0 78.61391754691391
710.0 78.45681470727371
730.0 78.2341034280451
750.0 77.99567549779236
775.0 77.75578302926344
800.0 77.52051240389594
825.0 77.40710407351358
850.0 77.4126968015272
875.0 77.49343909556757
900.0 77.61321715328808
925.0 77.65588329506907
950.0 77.68049280219313
975.0 77.71740127892403
1000.0 77.70934590474698
1030.0 77.6644915119791
1060.0 77.55536021461192
1090.0 77.37476360966397
1120.0 77.12497670756828
1150.0 76.859250574939
1180.0 76.70784377321013
1220.0 76.72632506708962
1250.0 76.76615789457944
1280.0 76.43054132581184
1320.0 75.92714598160273
1360.0 75.2295213181169
1400.0 74.77127679936378
1450.0 74.7922141771109
1500.0 75.26160747935234
1550.0 75.8179098296578
1600.0 76.10039992633824
1650.0 76.02683076326731
1700.0 75.7659299659224
1750.0 75.41178222502083
1800.0 75.12462905207248
1850.0 75.00015213640035
1900.0 75.08782988965626
1950.0 75.26263717499958
2000.0 75.44422878586006
2060.0 75.64865445468806
2120.0 75.89220453820485
2180.0 76.08707992824544
2240.0 75.97270800400005
2300.0 75.60877603112577
2360.0 75.21366899322824
2400.0 75.12815027177547
2500.0 75.26962670823278
2580.0 75.30309343637299
2650.0 74.82682195032
2720.0 74.61117693786956
2800.0 74.57152554147535
2900.0 74.68905169550254
3000.0 74.57665242117069
3070.0 74.06972356994795
3150.0 73.56634876364228
3250.0 73.178804784697
3350.0 73.18537702540554
3450.0 73.66159842265515
3550.0 74.01197036582735
3650.0 74.16409761968158
3750.0 74.6840922563889
3870.0 74.71990083319753
4000.0 74.5366975830677
4120.0 74.85841699324116
4250.0 75.14218555979122
4370.0 75.20101084207559
4500.0 75.09680132749511
4620.0 74.9820848399304
4750.0 75.00073772282833
4870.0 74.45250902870097
5000.0 73.68509295409983
5150.0 73.21538508074649
5300.0 73.25581623240626
5450.0 73.97690120918323
5600.0 74.84281062557292
5800.0 75.40384760716431
6000.0 75.42940948349327
6150.0 75.45401047575956
6300.0 75.39523661904946
6500.0 75.14691134290776
6700.0 74.62664584737689
6900.0 74.65727029100819
7100.0 75.55506039219676
7300.0 76.33703822433493
7500.0 76.69471094071307
7750.0 76.66328879743116
8000.0 76.3894807076638
8250.0 76.0329397909434
8500.0 75.77576599576902
8750.0 75.44785454882714
9000.0 74.89770031636711
9250.0 74.35747764624669
9500.0 74.26341782598745
9750.0 74.836495488808
10000.0 75.61213380368345
10300.0 76.03807899901868
10600.0 75.91544250369307
10900.0 75.43582155853163
11200.0 75.23454410013639
11500.0 75.17031574177199
11800.0 74.94745472893888
12200.0 74.69445105481694
12500.0 74.67709659720992
12800.0 74.8794088280662
13200.0 74.85595561195416
13600.0 74.37373610525307
14000.0 74.06329338719783
14500.0 73.98874475851885
15000.0 73.82227129353207
15500.0 73.50706684649771
16000.0 72.90369497392538
16500.0 72.3034308069721
17000.0 72.36177682099641
17500.0 72.65434207110715
18000.0 72.17310102422532
18500.0 70.92367859540778
19000.0 69.7030730383836
19500.0 69.27081016059371
