Freq "Floor Bounce"
20.5078 62.19329210505215
21.9727 65.98216669224804
23.4375 67.65512445965389
24.9023 71.24338396977735
26.3672 74.58905552847368
27.832 77.56901467769943
29.2969 80.22683726481038
30.7617 82.14571248328609
32.2266 83.37987753545782
33.6914 83.88384089097976
35.1562 84.14681251368133
36.6211 84.17905298105414
38.0859 84.18518854324789
39.5508 84.2831680002825
41.0156 84.38866727718138
42.4805 84.26317003677578
43.9453 84.4473881900165
45.4102 84.6064422629425
46.875 84.86801780262878
48.3398 85.1000909068534
51.2695 85.5467479639005
52.7344 85.81744000181438
54.1992 86.02905507068286
55.6641 86.07651579438959
58.5938 86.85879580767538
60.0586 87.16824488472251
62.9883 87.58323633673898
64.4531 87.80153355772386
67.3828 88.22170528968215
68.8477 88.46341153144327
71.7773 88.73550734427697
74.707 89.00441960785669
77.6367 89.19243333972615
79.1016 89.28339360209203
82.0312 89.49786203477501
84.9609 89.7095345083943
87.8906 89.55004068038748
90.8203 89.83438880497475
95.2148 89.80524510052417
98.1445 89.73126363617074
101.074 89.61697641912433
105.469 90.12503145935555
108.398 90.17911897859352
112.793 90.01854805240697
117.188 90.05850949156617
120.117 90.03751394259893
124.512 90.16930982510898
128.906 90.15776908355606
133.301 90.19781473522569
139.16 90.01397415190922
143.555 89.7824110008731
147.949 89.83636962528321
153.809 89.82286992417714
159.668 89.7621897332144
165.527 89.50386328123061
171.387 89.76288112542865
177.246 89.36930734290961
183.105 89.25597945803771
188.965 89.7073534875072
196.289 89.78562397115604
203.613 89.78558558634292
210.938 89.60832429539606
218.262 89.10324855211003
225.586 89.88760157243038
232.91 89.29704607451444
241.699 89.41829935803824
250.488 89.14128871537949
259.277 90.08253520872375
268.066 88.87158943650266
276.855 88.4627000706625
287.109 88.13370587656864
297.363 88.62906704396568
307.617 87.85737049148734
319.336 87.53342522802048
329.59 87.39649887827166
341.309 87.92714582759643
353.027 87.39301545718035
366.211 86.82146517062127
379.395 86.81253883211464
392.578 85.72289606987455
405.762 87.53805466379356
420.41 88.73990939387114
435.059 88.38769033393406
451.172 86.81424700217234
465.82 88.06917540092769
483.398 88.49766995442023
499.512 87.59504102377495
517.09 88.2526751881728
536.133 87.07211451388382
555.176 88.36974424625969
574.219 88.65694397417936
594.727 85.59214016619467
615.234 87.5459358990468
637.207 87.37901409478481
659.18 87.32086600085695
682.617 86.04425198038298
707.52 88.69469024067944
732.422 86.55751857262378
757.324 87.02006459293452
785.156 87.61759852741822
811.523 86.25710650703441
840.82 87.62764402411402
870.117 86.28773877814906
900.879 86.11407965313141
933.105 88.32338075517137
965.332 87.40190525531024
1000.49 88.04439887939564
1035.64 88.26207486270827
1072.27 87.97899973486442
1108.89 87.09685535078792
1148.44 87.08266546158094
1189.45 87.42926980789368
1230.47 87.75194251311551
1274.41 87.98660746875642
1319.82 88.01515745927794
1366.7 89.33789926281437
1413.57 88.86181311408929
1463.38 89.22409332655363
1516.11 89.16556396196927
1568.85 88.79722035903582
1624.51 87.87002054284811
1681.64 87.90163263739022
1741.7 88.33389002431923
1803.22 87.7167197586359
1866.21 88.61158663986375
1932.13 88.6832127866732
1999.51 89.3318632220831
2069.82 89.41643614533052
2143.07 89.84409902158738
2219.24 90.02578479412315
2296.88 90.01640520724571
2378.91 88.91557202751741
2462.4 88.4231111966505
2548.83 88.53755953099012
2639.65 89.07508999161324
2731.93 88.9491584427149
2828.61 88.68018630642605
2928.22 89.17106963445262
3030.76 89.03613265291499
3137.7 88.93979319692178
3249.02 89.36863660339917
3363.28 88.90716364699865
3481.93 89.26109920361117
3604.98 88.95688034556034
3732.42 88.90994618648544
3864.26 89.2527886133007
4000.49 88.70554538191982
4141.11 89.00850121161183
4287.6 88.80565636679039
4438.48 88.67080161028754
4595.21 88.68973081418919
4756.35 88.44701878054742
4924.8 87.83292849641914
5097.66 88.1519700954756
5277.83 88.2264602598261
5463.87 88.06720373520459
5657.23 88.29775780568454
5856.45 88.33942945678977
6062.99 88.08411393235832
6276.86 88.26865227812492
6498.05 88.08591467848844
6726.56 87.54815821084743
6963.87 87.45298776308509
7209.96 87.17938578447233
7464.84 86.85936058589832
7727.05 86.2248492729715
7999.51 85.75206786533984
8282.23 85.50433892103393
8573.73 85.09384911153882
8876.95 85.2998483893255
9188.96 85.55757717125128
9514.16 86.01291380445277
9849.61 86.12282003948516
10196.8 86.03278998224125
10555.7 86.05224293892437
10927.7 85.91950903322919
11313.0 85.51830455108977
11712.9 85.41505903582598
12126.0 85.66430783732898
12553.7 86.29921203512399
12996.1 85.4492677247918
13454.6 84.10716682080223
13929.2 84.4002867293968
14419.9 84.77651311888805
14928.2 84.66181195876189
15455.6 84.3701731599474
16000.5 84.2286857269363
16564.5 84.19252405424741
17148.9 83.81977707921018
17752.4 83.38443366010864
18379.4 83.10537817013201
19026.9 82.54292230679049
19697.8 81.85650490089968
19999.5 81.91979687601155
