Freq,On Axis,Listening Window,Sound Power,Early Reflections,Early Reflections DI,Sound Power DI,DI offset
22.4,22.12278481012656,21.900905419828533,20.962608000344247,21.196069372236124,40.70483604759241,40.938297419484286,40
23.0,30.62278481012656,30.47318433042831,30.875153888938726,30.513684449853642,39.95949988057467,39.598030441489584,40
23.6,41.62278481012656,41.492003142636506,41.03544242991906,41.17069507404749,40.32130806858902,40.45656071271745,40
24.0,48.92278481012657,48.85714213146217,48.48423989834181,48.59929678457509,40.25784534688708,40.37290223312036,40
25.0,55.12278481012656,55.079135411382666,54.631155702913716,54.7990807237051,40.28005468767756,40.44797970846895,40
25.8,60.12278481012656,60.06802609406067,59.51624161940127,59.72804464939233,40.33998144466834,40.5517844746594,40
26.5,64.02278481012657,63.97913541138264,63.470605080228395,63.67869357504841,40.30044183633423,40.50853033115425,40
27.2,67.12278481012656,67.08996446388652,66.61337044077065,66.80843098491626,40.28153347897026,40.476594023115865,40
28.0,69.62278481012656,69.55637463700653,69.10816549680014,69.30080664847661,40.25556798852992,40.44820914020639,40
29.0,71.72278481012657,71.68970666128708,71.28195717773919,71.46666271317355,40.22304394811353,40.40774948354789,40
30.0,73.42278481012657,73.434010309985,73.08062194904106,73.2382875297191,40.195722780265896,40.35338836094394,40
30.7,74.72278481012658,74.72278481012658,74.3829605806899,74.53828311444494,40.18450169568165,40.33982422943669,40
31.5,75.82278481012658,75.81178673017321,75.46499867512327,75.6201537863671,40.19163294380611,40.34678805504994,40
32.5,76.62278481012656,76.62278481012656,76.32172280355158,76.45222871232646,40.1705560978001,40.30106200657498,40
33.5,77.32278481012655,77.32278481012655,77.08085347797463,77.20137478136526,40.12141002876129,40.24193133215192,40
34.5,77.92278481012657,77.92278481012657,77.67564688207992,77.79131284632909,40.13147196379748,40.247137928046655,40
35.5,78.42278481012657,78.38970666128706,78.18027033645411,78.27950423685037,40.11020242443669,40.20943632483295,40
36.5,78.72278481012656,78.75637463700653,78.58578384689389,78.6712247656534,40.085149871353124,40.17059079011264,40
37.5,79.02278481012657,79.04520686933176,78.84263510497196,78.93144253145937,40.1137643378724,40.2025717643598,40
38.7,79.32278481012656,79.30101787521046,79.09216497378112,79.1877643701026,40.11325350510786,40.20885290142934,40
40.0,79.42278481012657,79.48996446388651,79.34534206791177,79.41655353939682,40.07341092448969,40.144622395974736,40
41.2,79.72278481012658,79.71229970555339,79.50259880042556,79.60040740291403,40.11189230263936,40.20970090512783,40
42.5,80.02278481012657,80.00101787521045,79.75995192764223,79.87147122809833,40.12954664711212,40.24106594756822,40
43.7,80.42278481012657,80.40101787521046,80.13169958542827,80.25559521304068,40.14542266216978,40.26931828978219,40
45.0,80.92278481012657,80.91229970555341,80.63440348879864,80.7667118673456,40.1455878382078,40.27789621675477,40
46.2,81.52278481012657,81.50101787521047,81.27036323917122,81.37954745795841,40.121470417252056,40.23065463603925,40
47.5,82.12278481012656,82.15637463700655,81.89592913423935,82.01644347927919,40.13993115772736,40.2604455027672,40
48.7,82.72278481012657,82.70076072794035,82.45381990715404,82.56339208860726,40.13736863933309,40.24694082078631,40
50.0,83.22278481012657,83.22278481012657,82.93804822971848,83.058762899537,40.16402191058957,40.284736580408094,40
51.5,83.72278481012656,83.7117867301732,83.2966610186923,83.49255849457832,40.21922823559488,40.4151257114809,40
53.0,84.02278481012657,83.98970666128707,83.5454745870732,83.74793504466939,40.24177161661768,40.44423207421387,40
54.5,84.12278481012656,84.1457159126072,83.68797134071929,83.8789108938211,40.2668050187861,40.457744571887915,40
56.0,84.22278481012657,84.22380228334767,83.72621029139027,83.95384925953304,40.26995302381462,40.49759199195739,40
58.0,84.32278481012656,84.23502515697781,83.67575872934513,83.93539232361971,40.2996328333581,40.55926642763268,40
60.0,84.22278481012657,84.22380228334767,83.60200003421154,83.88494852326585,40.33885376008182,40.621802249136124,40
61.5,84.22278481012657,84.14621910361868,83.44426333954746,83.76841920827904,40.377799895339635,40.701955764071215,40
63.0,84.12278481012656,84.03577320406119,83.22765773891804,83.59067580793591,40.44509739612528,40.808115465143146,40
65.0,84.02278481012657,83.93577320406119,83.03385142705952,83.44998586986112,40.48578733420007,40.901921777001675,40
67.0,83.82278481012656,83.79071444502661,82.79869488093529,83.24661127877404,40.54410316625257,40.99201956409132,40
69.0,83.62278481012656,83.5902163833983,82.50147534988417,83.00211197227765,40.58810441112065,41.088741033514125,40
71.0,83.62278481012656,83.47964637565698,82.2133552961965,82.78803320847378,40.691613167183206,41.26629107946049,40
73.0,83.52278481012657,83.38014565089132,81.9568106891501,82.60539137698966,40.774754273901664,41.42333496174122,40
75.0,83.22278481012657,83.09148176142092,81.6663368341104,82.31062447929098,40.78085728212994,41.42514492731053,40
77.5,83.02278481012657,82.87004012066004,81.37546147360257,82.06292428424179,40.80711583641825,41.494578647057466,40
80.0,82.72278481012657,82.61506244172142,80.94880526642088,81.7172028414603,40.897859600261114,41.666257175300544,40
82.5,82.62278481012656,82.48237823644271,80.65050796272591,81.52101097314734,40.96136726329537,41.8318702737168,40
85.0,82.42278481012657,82.30404476338448,80.36345697687732,81.29261648481634,41.01142827856815,41.940587786507166,40
87.5,82.02278481012657,81.93628929531663,79.88851457904813,80.87589092562521,41.06039836969141,42.04777471626849,40
90.0,81.72278481012657,81.63579062678065,79.55925444989592,80.55645847103521,41.07933215574543,42.07653617688473,40
92.5,81.32278481012656,81.225319583615,78.999972434351,80.08392037121727,41.14139921239773,42.22534714926401,40
95.0,80.92278481012657,80.8038049472697,78.45826946088083,79.60115986259868,41.20264508467102,42.34553548638887,40
97.5,80.42278481012657,80.2263309120418,77.80675473720571,78.9946918329788,41.231639079063,42.419576174836095,40
100.0,80.02278481012657,79.83731548938273,77.3742436302123,78.59317749784574,41.24413799153699,42.46307185917043,40
103.0,79.92278481012657,79.73753604657782,77.29622065121062,78.50085039409454,41.236685652483274,42.4413153953672,40
106.0,80.72278481012657,80.54872353159372,78.14903478480838,79.33129030975262,41.217433221841105,42.399688746785344,40
109.0,82.22278481012658,82.0155809998584,79.45103729538697,80.69312881879178,41.32245218106662,42.56454370447143,40
112.0,84.02278481012657,83.80604294888208,80.99758776285695,82.35889592521889,41.44714702366319,42.80845518602513,40
115.0,84.52278481012657,84.3168051981623,81.36167946532413,82.81517540126866,41.50162979689364,42.95512573283817,40
118.0,84.52278481012657,84.3047981652749,81.1681162405956,82.72887185405519,41.57592631121972,43.13668192467931,40
122.0,83.82278481012656,83.63930938431857,80.37434009057134,82.00791591599575,41.63139346832281,43.26496929374723,40
125.0,83.42278481012657,83.17206513569054,79.77409497358603,81.48180107756347,41.69026405812707,43.397970162104514,40
128.0,82.72278481012657,82.53753604657781,79.05426329364754,80.84329112298272,41.69424492359509,43.483272752930276,40
132.0,82.12278481012656,81.93926400790879,78.51336670136513,80.2679231317151,41.671340876193696,43.42589730654366,40
136.0,81.42278481012657,81.29397209292955,77.966692202968,79.66719792544832,41.62677416748123,43.327279889961545,40
140.0,81.22278481012656,81.06041257026428,77.65291251548079,79.38824644899479,41.672166121269484,43.40750005478348,40
145.0,81.32278481012656,81.06290477289669,77.50863613117896,79.32203006641929,41.7408747064774,43.55426864171773,40
150.0,81.32278481012656,81.1065510265828,77.44752907215413,79.32258109160395,41.783969934978856,43.65902195442868,40
155.0,81.32278481012656,81.1375704813795,77.44266002822143,79.3523843424229,41.785186138956604,43.69491045315807,40
160.0,81.32278481012656,81.11609949608567,77.45210446820464,79.37272204344603,41.743377452639635,43.66399502788103,40
165.0,81.42278481012657,81.21757388580203,77.47655652006863,79.39584222440851,41.821731661393514,43.7410173657334,40
170.0,81.92278481012657,81.71808061637539,77.71992012254371,79.7547272659614,41.96335335041398,43.998160493831676,40
175.0,82.42278481012657,82.20631680470592,78.04876480252472,80.16845694494603,42.03785985975989,44.157552002181205,40
180.0,82.52278481012657,82.28518383867315,78.07677676981048,80.2477217176115,42.03746212106165,44.20840706886267,40
185.0,82.22278481012658,82.01738122755413,77.93731729852404,80.05562226989413,41.961758957659995,44.08006392903009,40
190.0,82.02278481012657,81.8283766675334,77.87927679947413,79.95286704798507,41.87550961954834,43.94909986805928,40
195.0,82.02278481012657,81.83038749175147,77.85510024520407,79.90337394452702,41.92701354722445,43.975287246547396,40
200.0,82.32278481012655,82.12788264487592,77.99660118463838,80.07908377387952,42.04879887099641,44.131281460237545,40
206.0,82.62278481012656,82.39108343369482,78.12371650201136,80.2313855378703,42.15969789582452,44.267366931683455,40
212.0,82.72278481012657,82.43985313446792,78.0535648609465,80.14736701549498,42.292486118972946,44.38628827352143,40
218.0,82.52278481012657,82.21327043701211,77.77673103401301,79.91771123157005,42.29555920544206,44.4365394029991,40
224.0,82.22278481012658,81.98987388926963,77.61958014581035,79.7459708943371,42.243902994932526,44.370293743459285,40
230.0,82.22278481012658,81.91461619182182,77.49133633024488,79.69957138248505,42.215044809336774,44.423279861576944,40
236.0,82.32278481012655,82.0212673494684,77.53221292163747,79.76196211037995,42.25930523908845,44.489054427830936,40
240.0,82.22278481012658,81.93170763166343,77.43466742246301,79.6590929996378,42.27261463202562,44.49704020920042,40
250.0,82.02278481012657,81.69478275761786,77.36315758533993,79.52123642681707,42.17354633080079,44.331625172277924,40
258.0,81.92278481012657,81.63876818287856,77.57058368060528,79.61583619927433,42.02293198360424,44.06818450227328,40
265.0,82.42278481012657,82.04275794998902,77.78800087546709,79.87763943591169,42.165118514077335,44.25475707452193,40
272.0,82.62278481012656,82.201885508751,77.72375990541606,79.79432789798106,42.40755761076994,44.478125603334945,40
280.0,82.42278481012657,81.96599561466932,77.6016244879214,79.58366422426603,42.382331390403294,44.364371126747926,40
290.0,82.12278481012656,81.74355891281742,77.55494207557062,79.51767132126429,42.22588759155313,44.1886168372468,40
300.0,82.22278481012658,81.84967732636484,77.54232150452106,79.65382620392316,42.19585112244168,44.307355821843785,40
307.0,82.62278481012656,82.093344808449,77.61711083784246,79.78572339045076,42.30762141799825,44.47623397060654,40
315.0,82.82278481012656,82.32716917295755,77.74932139191091,79.92811480105836,42.3990543718992,44.57784778104664,40
325.0,82.52278481012657,82.07629777555742,77.72007899662312,79.82892287286664,42.24737490269078,44.356218778934306,40
335.0,82.12278481012656,81.66618560186946,77.59823494612927,79.69340733774555,41.9727782641239,44.06795065574019,40
345.0,82.12278481012656,81.64090813334101,77.51855108814931,79.73639383293028,41.90451430041074,44.122357045191706,40
355.0,82.02278481012657,81.52343532533713,77.33907626447748,79.76733433283437,41.756100992502766,44.18435906085965,40
365.0,81.92278481012657,81.47572139230083,77.4568543625817,79.93366843666558,41.54205295563524,44.01886702971913,40
375.0,82.42278481012657,81.9315886032393,77.7854482942571,80.2280090007949,41.70357960244441,44.14614030898221,40
387.0,82.62278481012656,82.20861808506282,77.83188862933774,80.4283200932289,41.78029799183392,44.37672945572508,40
400.0,82.52278481012657,82.06949029909534,77.53902487674904,80.49507479159571,41.57441550749962,44.530465422346296,40
412.0,82.62278481012656,82.18613786815817,77.31277431669496,80.5036537742003,41.68248409395787,44.873363551463214,40
425.0,82.82278481012656,82.36742318113319,77.16648219908575,80.43535553081175,41.93206765032144,45.20094098204744,40
437.0,82.52278481012657,82.1801433175455,76.93048579427015,80.30806620151165,41.87207711603385,45.249657523275346,40
450.0,82.62278481012656,82.21234469378045,76.90287302606647,80.39354073063218,41.81880396314827,45.30947166771398,40
462.0,82.82278481012656,82.313755458026,76.70317430927828,80.41901456104976,41.89474089697623,45.61058114874771,40
475.0,82.72278481012657,82.22608992976734,76.35992079525194,80.2004349848409,42.025654944926444,45.8661691345154,40
487.0,82.42278481012657,81.95077282703227,76.02316025453722,79.92331894008429,42.02745388694798,45.92761257249505,40
500.0,82.42278481012657,81.84023939055577,75.77235145008483,79.74486777299103,42.09537161756474,46.06788794047094,40
515.0,82.02278481012657,81.52952023598382,75.40500062936995,79.48535828976762,42.04416194621621,46.12451960661387,40
530.0,82.22278481012658,81.58743109670742,75.26066003018029,79.31907845970937,42.268352636998046,46.32677106652713,40
545.0,82.22278481012658,81.6699426583502,75.09800228757778,79.2007023714073,42.46924028694289,46.57194037077241,40
560.0,82.52278481012657,81.80577926619684,74.89255224841706,79.00016271949455,42.80561654670228,46.913227017779775,40
580.0,82.52278481012657,81.72601196990333,74.63307282587122,78.78542178374285,42.94059018616048,47.0929391440321,40
600.0,82.02278481012657,81.28886259121668,74.05375333081626,78.30805340809628,42.9808091831204,47.23510926040042,40
615.0,80.92278481012657,80.1798142828698,73.08436239240481,77.3369619449029,42.8428523379669,47.095451890464986,40
630.0,79.62278481012656,79.02586662519599,71.95075806052988,76.18161268360646,42.84425394158953,47.07510856466611,40
650.0,78.92278481012657,78.10630240317336,71.13737249237846,75.27962018791126,42.826682215262096,46.9689299107949,40
670.0,78.52278481012657,77.80942171759553,70.90050253681638,74.76539305268194,43.04402866491358,46.90891918077915,40
690.0,78.82278481012656,77.93057981729594,70.91504218093921,74.59908171130084,43.331498105995095,47.015537636356726,40
710.0,79.12278481012656,78.2676046134431,71.2258780364627,74.69678307537258,43.57082153807052,47.041726576980395,40
730.0,79.62278481012656,78.65128166648059,71.57580979299073,74.8440431727223,43.80723849375829,47.07547187348986,40
750.0,79.82278481012655,78.76858732711098,71.42398528789899,74.80138221706757,43.96720511004341,47.34460203921199,40
775.0,79.32278481012656,78.33404444521973,71.0089584859733,74.43955294403553,43.894491501184206,47.32508595924644,40
800.0,78.92278481012657,77.79584143487766,70.5548293265946,73.99329104583761,43.80255038904005,47.24101210828306,40
825.0,78.62278481012656,77.4141945725152,70.09711137954235,73.60558048332501,43.808614089190186,47.317083192972845,40
850.0,78.52278481012657,77.41408600384932,70.13952841593762,73.53301376115819,43.88107224269113,47.2745575879117,40
875.0,79.42278481012657,78.19809878017318,70.70593882107916,74.12857730383065,44.06952147634253,47.492159959094025,40
900.0,79.92278481012657,78.72967122693825,71.29381004636481,74.7418655398977,43.98780568704055,47.43586118057344,40
925.0,79.92278481012657,78.63230199869706,71.22701861214107,74.66286387077244,43.96943812792462,47.40528338655599,40
950.0,79.32278481012656,78.07988620143072,71.16749581903689,74.42350068707923,43.6563855143515,46.91239038239384,40
975.0,78.72278481012656,77.73537487641394,71.40336126676875,74.34829899025257,43.38707588616137,46.33201360964519,40
1000.0,79.42278481012657,78.41249020682555,72.26209341789112,74.96707526118097,43.445414945644586,46.15039678893443,40
1030.0,79.62278481012656,78.92519115448417,72.88227266751242,75.47727224670776,43.44791890777641,46.04291848697174,40
1060.0,79.62278481012656,79.11283174764479,72.95637625365745,75.62886241821582,43.48396932942897,46.15645549398734,40
1090.0,79.52278481012657,79.16608806493295,72.73759285594289,75.45121044361737,43.71487762131558,46.42849520899006,40
1120.0,79.72278481012658,79.21401218709507,72.4368842436431,75.27558164049033,43.938430546604735,46.77712794345196,40
1150.0,80.02278481012657,79.50747729772314,72.60326949844438,75.54510628707384,43.962371010649306,46.904207799278765,40
1180.0,79.82278481012655,79.42353917861725,72.56330985851532,75.55518282165669,43.86835635696056,46.86022932010192,40
1220.0,79.12278481012656,78.75103540533027,71.93362739066895,75.02175491203501,43.72928049329526,46.817408014661325,40
1250.0,78.32278481012658,78.0726240156167,71.20138267273062,74.38176687504136,43.69085714057533,46.87124134288608,40
1280.0,78.82278481012656,78.41283701783698,71.17265027709453,74.57948647407211,43.833350543764865,47.240186740742445,40
1320.0,79.22278481012657,78.7764360509112,71.35537917196235,74.89595669809299,43.88047935281821,47.421056878948846,40
1360.0,78.62278481012656,78.20570846993091,70.88627915707654,74.57410429378989,43.631604176141025,47.31942931285437,40
1400.0,77.62278481012656,77.33138827700355,70.10255574037835,73.97474698594993,43.35664129105362,47.228832536625205,40
1450.0,77.62278481012656,77.26302213688507,69.772393764542,73.81840075920326,43.44462137768181,47.49062837234307,40
1500.0,77.82278481012656,77.42389512552359,69.61241242992645,73.73197963546208,43.691915490061504,47.811482695597135,40
1550.0,77.32278481012655,76.96249230703064,69.00404909758815,73.1773836812172,43.78510862581345,47.95844320944249,40
1600.0,76.92278481012657,76.34768700693976,68.41667818307772,72.73645864548325,43.61122836145651,47.931008823862044,40
1650.0,77.52278481012657,77.02008544289166,68.9163852928702,73.29786997648775,43.72221546640391,48.10370015002145,40
1700.0,78.52278481012657,77.95424479476894,69.52185635112458,73.99767185001403,43.95657294475491,48.432388443644356,40
1750.0,78.12278481012656,77.67549943902837,69.36863282044168,73.85795376783246,43.817545671195916,48.306866618586696,40
1800.0,78.22278481012657,77.8074667535242,69.57870062091736,73.92281736024073,43.88464939328347,48.228766132606836,40
1850.0,80.12278481012656,79.37960503335071,70.62607566561803,74.94926541218642,44.43033962116429,48.75352936773268,40
1900.0,80.52278481012657,79.84113680566337,71.14262156469033,75.27256884040096,44.5685679652624,48.69851524097304,40
1950.0,80.42278481012657,79.46151783056219,71.2021545940436,75.12362807836833,44.33788975219386,48.25936323651858,40
2000.0,81.02278481012657,79.4666300091876,71.67290153215842,75.40774182303488,44.058888186152714,47.79372847702918,40
2060.0,82.12278481012656,79.83317324164358,72.41160221128142,75.85185324506845,43.981319996575124,47.42157103036216,40
2120.0,82.92278481012657,80.15277270822945,72.90943958052459,76.12015655690969,44.03261615131976,47.24333312770486,40
2180.0,82.92278481012657,80.13770921508738,73.00629262789859,76.22070210934461,43.91700710574277,47.131416587188795,40
2240.0,83.22278481012657,80.60891224303506,73.07890600392615,76.46209437989941,44.14681786313565,47.530006239108914,40
2300.0,82.92278481012657,80.95480573646125,72.99222071304922,76.46096307767326,44.493842658788,47.96258502341203,40
2360.0,82.12278481012656,80.46141229345541,72.47474227752663,76.0916827345765,44.369729558878916,47.98667001592878,40
2400.0,82.02278481012657,80.51331543798193,72.18088365641253,76.00899171931867,44.50432371866326,48.3324317815694,40
2500.0,81.62278481012656,80.49384336577252,71.88121784416923,75.94189310045218,44.55195026532034,48.61262552160329,40
2580.0,81.62278481012656,80.43515767330085,71.6319537007153,76.10717080248811,44.32798687081274,48.80320397258555,40
2650.0,81.82278481012656,80.51597361671897,71.3201600974083,76.10429705339516,44.41167656332381,49.19581351931066,40
2720.0,82.42278481012657,81.02838044265677,71.40544752836924,76.35932183548202,44.66905860717475,49.62293291428753,40
2800.0,82.62278481012656,81.06670029624095,71.11878024995588,76.20144508046566,44.86525521577529,49.94792004628508,40
2900.0,82.62278481012656,80.77746640512783,70.524250985504,75.74870866051764,45.02875774461019,50.25321541962383,40
