Freq,On Axis,Listening Window,Sound Power,Early Reflections,Early Reflections DI,Sound Power DI,DI offset
22.4,21.10000000000001,20.87812060970201,19.939823190217666,20.173284562109544,40.704836047592465,40.93829741948434,40
23.0,29.60000000000001,29.45039952030173,29.852369078812146,29.49089963972706,39.95949988057467,39.598030441489584,40
23.6,40.60000000000001,40.46921833250995,40.01265761979248,40.147910263920934,40.32130806858902,40.456560712717476,40
24.0,47.89999999999999,47.83435732133559,47.46145508821523,47.576511974448536,40.25784534688705,40.37290223312036,40
25.0,54.10000000000001,54.056350601256085,53.608370892787136,53.77629591357852,40.28005468767756,40.44797970846895,40
25.8,59.10000000000001,59.04524128393412,58.49345680927469,58.705259839265764,40.339981444668354,40.55178447465943,40
26.5,63.0,62.95635060125608,62.44782027010184,62.65590876492186,40.300441836334215,40.50853033115423,40
27.2,66.09999999999998,66.06717965375995,65.59058563064407,65.78564617478969,40.28153347897026,40.47659402311588,40
28.0,68.59999999999998,68.53358982687998,68.08538068667357,68.27802183835003,40.25556798852995,40.4482091402064,40
29.0,70.7,70.6669218511605,70.25917236761262,70.44387790304698,40.223043948113514,40.407749483547875,40
30.0,72.40000000000002,72.41122549985843,72.05783713891448,72.21550271959254,40.195722780265896,40.35338836094395,40
30.7,73.7,73.7,73.36017577056333,73.51549830431837,40.18450169568163,40.33982422943667,40
31.5,74.8,74.78900192004663,74.4422138649967,74.59736897624053,40.1916329438061,40.34678805504993,40
32.5,75.6,75.6,75.298937993425,75.42944390219989,40.1705560978001,40.301062006574995,40
33.5,76.3,76.3,76.05806866784806,76.1785899712387,40.121410028761304,40.241931332151935,40
34.5,76.9,76.9,76.65286207195334,76.76852803620253,40.13147196379748,40.24713792804667,40
35.5,77.40000000000002,77.36692185116051,77.15748552632755,77.25671942672382,40.11020242443669,40.209436324832964,40
36.5,77.7,77.73358982687998,77.56299903676732,77.64843995552685,40.085149871353124,40.170590790112655,40
37.5,78.0,78.02242205920518,77.8198502948454,77.9086577213328,40.11376433787238,40.20257176435979,40
38.7,78.3,78.27823306508388,78.06938016365454,78.16497955997603,40.11325350510785,40.20885290142934,40
40.0,78.4,78.46717965375996,78.3225572577852,78.39376872927026,40.07341092448969,40.14462239597475,40
41.2,78.7,78.68951489542683,78.47981399029901,78.57762259278746,40.11189230263936,40.20970090512782,40
42.5,79.0,78.97823306508388,78.73716711751565,78.84868641797176,40.12954664711212,40.24106594756823,40
43.7,79.4,79.37823306508388,79.1089147753017,79.23281040291411,40.145422662169764,40.26931828978218,40
45.0,79.90000000000002,79.88951489542683,79.61161867867207,79.74392705721904,40.14558783820779,40.277896216754755,40
46.2,80.5,80.47823306508388,80.24757842904467,80.35676264783184,40.12147041725204,40.23065463603922,40
47.5,81.09999999999998,81.13358982687997,80.87314432411279,80.99365866915261,40.13993115772736,40.26044550276718,40
48.7,81.7,81.67797591781378,81.43103509702748,81.5406072784807,40.137368639333076,40.24694082078631,40
50.0,82.2,82.2,81.91526341959191,82.03597808941043,40.16402191058957,40.284736580408094,40
51.5,82.7,82.68900192004664,82.27387620856574,82.46977368445175,40.21922823559488,40.4151257114809,40
53.0,83.0,82.9669218511605,82.52268977694665,82.72515023454282,40.24177161661768,40.44423207421386,40
54.5,83.1,83.12293110248062,82.66518653059272,82.85612608369455,40.26680501878607,40.4577445718879,40
56.0,83.2,83.20101747322109,82.7034254812637,82.93106444940646,40.26995302381462,40.49759199195739,40
58.0,83.3,83.21224034685125,82.65297391921858,82.91260751349314,40.2996328333581,40.559266427632664,40
60.0,83.2,83.20101747322109,82.57921522408499,82.86216371313928,40.338853760081804,40.621802249136095,40
61.5,83.2,83.12343429349211,82.4214785294209,82.74563439815248,40.377799895339635,40.701955764071215,40
63.0,83.1,83.01298839393463,82.20487292879146,82.56789099780934,40.44509739612529,40.808115465143175,40
65.0,83.0,82.91298839393464,82.01106661693295,82.42720105973456,40.48578733420008,40.90192177700169,40
67.0,82.8,82.76792963490004,81.77591007080872,82.22382646864749,40.544103166252555,40.99201956409132,40
69.0,82.6,82.56743157327173,81.47869053975762,81.97932716215108,40.58810441112065,41.08874103351411,40
71.0,82.6,82.45686156553042,81.19057048606993,81.76524839834723,40.69161316718319,41.26629107946049,40
73.0,82.49999999999999,82.35736084076476,80.93402587902355,81.5826065668631,40.77475427390165,41.423334961741205,40
75.0,82.2,82.06869695129437,80.64355202398384,81.28783966916441,40.78085728212996,41.42514492731053,40
77.5,82.0,81.84725531053347,80.352676663476,81.04013947411524,40.807115836418234,41.494578647057466,40
80.0,81.7,81.59227763159487,79.9260204562943,80.69441803133374,40.89785960026113,41.66625717530057,40
82.5,81.6,81.45959342631615,79.62772315259936,80.49822616302076,40.96136726329539,41.83187027371679,40
85.0,81.39999999999999,81.28125995325793,79.34067216675076,80.26983167468977,41.01142827856816,41.940587786507166,40
87.5,81.00000000000001,80.91350448519006,78.86572976892157,79.85310611549865,41.06039836969141,42.04777471626849,40
90.0,80.7,80.6130058166541,78.53646963976935,79.53367366090866,41.07933215574543,42.076536176884744,40
92.5,80.3,80.20253477348844,77.97718762422444,79.06113556109071,41.14139921239773,42.225347149263996,40
95.0,79.90000000000002,79.78102013714313,77.43548465075425,78.57837505247211,41.20264508467102,42.34553548638888,40
97.5,79.4,79.20354610191522,76.78396992707913,77.97190702285225,41.23163907906297,42.419576174836095,40
100.0,79.0,78.81453067925615,76.35145882008575,77.57039268771916,41.24413799153699,42.4630718591704,40
103.0,78.89999999999999,78.71475123645124,76.27343584108407,77.47806558396799,41.236685652483246,42.44131539536717,40
106.0,79.7,79.52593872146716,77.1262499746818,78.30850549962607,41.21743322184109,42.39968874678536,40
109.0,81.2,80.99279618973183,78.42825248526039,79.67034400866521,41.32245218106662,42.56454370447145,40
112.0,83.0,82.7832581387555,79.9748029527304,81.33611111509232,41.44714702366318,42.8084551860251,40
115.0,83.50000000000001,83.29402038803575,80.33889465519758,81.79239059114211,41.50162979689364,42.95512573283817,40
118.0,83.50000000000001,83.28201335514835,80.14533143046903,81.7060870439286,41.575926311219746,43.13668192467932,40
122.0,82.8,82.61652457419198,79.35155528044477,80.98513110586917,41.63139346832281,43.264969293747214,40
125.0,82.40000000000002,82.14928032556396,78.75131016345945,80.45901626743692,41.69026405812704,43.397970162104514,40
128.0,81.7,81.51475123645123,78.03147848352098,79.82050631285612,41.69424492359511,43.48327275293025,40
132.0,81.09999999999998,80.91647919778222,77.49058189123856,79.24513832158853,41.671340876193696,43.42589730654366,40
136.0,80.4,80.27118728280297,76.94390739284142,78.64441311532174,41.62677416748123,43.327279889961545,40
140.0,80.2,80.03762776013771,76.63012770535421,78.36546163886821,41.6721661212695,43.4075000547835,40
145.0,80.3,80.04011996277012,76.48585132105238,78.29924525629274,41.740874706477385,43.55426864171774,40
150.0,80.3,80.08376621645623,76.42474426202757,78.29979628147737,41.783969934978856,43.65902195442865,40
155.0,80.3,80.11478567125293,76.41987521809486,78.32959953229631,41.78518613895662,43.69491045315807,40
160.0,80.3,80.09331468595911,76.42931965807807,78.34993723331947,41.74337745263965,43.66399502788104,40
165.0,80.4,80.19478907567547,76.45377170994205,78.37305741428193,41.82173166139354,43.74101736573343,40
170.0,80.9,80.69529580624884,76.69713531241715,78.73194245583484,41.963353350413996,43.99816049383169,40
175.0,81.39999999999999,81.18353199457935,77.02597999239815,79.14567213481946,42.03785985975989,44.157552002181205,40
180.0,81.5,81.26239902854658,77.05399195968391,79.22493690748492,42.037462121061665,44.20840706886267,40
185.0,81.2,80.99459641742757,76.91453248839746,79.03283745976755,41.961758957660024,44.08006392903012,40
190.0,81.00000000000001,80.80559185740685,76.85649198934756,78.93008223785851,41.87550961954834,43.94909986805929,40
195.0,81.00000000000001,80.80760268162489,76.83231543507749,78.88058913440044,41.92701354722445,43.975287246547396,40
200.0,81.3,81.10509783474934,76.97381637451183,79.05629896375297,42.04879887099638,44.13128146023752,40
206.0,81.6,81.36829862356826,77.10093169188478,79.20860072774371,42.15969789582455,44.26736693168348,40
212.0,81.7,81.41706832434134,77.03078005081993,79.12458220536841,42.29248611897293,44.386288273521416,40
218.0,81.5,81.19048562688556,76.75394622388644,78.8949264214435,42.29555920544206,44.43653940299912,40
224.0,81.2,80.96708907914307,76.59679533568378,78.72318608421055,42.24390299493251,44.370293743459285,40
230.0,81.2,80.89183138169527,76.46855152011833,78.67678657235847,42.2150448093368,44.423279861576944,40
236.0,81.3,80.99848253934182,76.5094281115109,78.73917730025337,42.25930523908845,44.48905442783092,40
240.0,81.2,80.90892282153685,76.41188261233644,78.63630818951125,42.27261463202559,44.49704020920041,40
250.0,81.00000000000001,80.67199794749128,76.34037277521338,78.4984516166905,42.173546330800775,44.331625172277896,40
258.0,80.9,80.61598337275201,76.5477988704787,78.59305138914775,42.022931983604266,44.06818450227331,40
265.0,81.39999999999999,81.01997313986244,76.76521606534051,78.85485462578512,42.16511851407732,44.25475707452193,40
272.0,81.6,81.17910069862442,76.70097509528948,78.77154308785451,42.40755761076991,44.478125603334945,40
280.0,81.39999999999999,80.94321080454274,76.57883967779482,78.56087941413944,42.38233139040331,44.364371126747926,40
290.0,81.09999999999998,80.72077410269084,76.53215726544407,78.49488651113772,42.22588759155312,44.18861683724677,40
300.0,81.2,80.82689251623829,76.51953669439447,78.6310413937966,42.195851122441695,44.307355821843814,40
307.0,81.6,81.07055999832244,76.5943260277159,78.76293858032419,42.30762141799825,44.47623397060654,40
315.0,81.8,81.30438436283097,76.72653658178434,78.90532999093179,42.39905437189918,44.57784778104663,40
325.0,81.5,81.05351296543085,76.69729418649655,78.80613806274008,42.24737490269078,44.356218778934306,40
335.0,81.09999999999998,80.64340079174289,76.57545013600269,78.670622527619,41.97277826412389,44.067950655740205,40
345.0,81.09999999999998,80.61812332321446,76.49576627802274,78.7136090228037,41.90451430041077,44.12235704519172,40
355.0,81.00000000000001,80.50065051521057,76.31629145435093,78.74454952270779,41.75610099250278,44.184359060859634,40
365.0,80.9,80.45293658217426,76.43406955245513,78.910883626539,41.542052955635256,44.01886702971913,40
375.0,81.39999999999999,80.90880379311274,76.76266348413054,79.20522419066835,41.70357960244439,44.1461403089822,40
387.0,81.6,81.18583327493626,76.80910381921117,79.40553528310234,41.78029799183392,44.37672945572508,40
400.0,81.5,81.04670548896875,76.51624006662247,79.47228998146916,41.574415507499594,44.53046542234628,40
412.0,81.6,81.16335305803159,76.2899895065684,79.48086896407372,41.68248409395787,44.873363551463186,40
425.0,81.8,81.34463837100662,76.1436973889592,79.41257072068518,41.93206765032144,45.20094098204743,40
437.0,81.5,81.15735850741893,75.90770098414357,79.28528139138508,41.87207711603385,45.24965752327536,40
450.0,81.6,81.18955988365389,75.88008821593992,79.3707559205056,41.818803963148284,45.309471667713964,40
462.0,81.8,81.29097064789943,75.68038949915172,79.39622975092318,41.894740896976245,45.61058114874771,40
475.0,81.7,81.20330511964077,75.33713598512537,79.17765017471434,42.02565494492643,45.8661691345154,40
487.0,81.39999999999999,80.92798801690572,75.00037544441065,78.90053412995772,42.027453886947995,45.927612572495065,40
500.0,81.39999999999999,80.8174545804292,74.74956663995825,78.72208296286446,42.09537161756474,46.06788794047095,40
515.0,81.00000000000001,80.50673542585726,74.38221581924337,78.46257347964107,42.04416194621619,46.12451960661389,40
530.0,81.2,80.56464628658085,74.23787522005374,78.29629364958281,42.268352636998046,46.326771066527115,40
545.0,81.2,80.64715784822364,74.0752174774512,78.17791756128072,42.46924028694292,46.57194037077244,40
560.0,81.5,80.78299445607026,73.86976743829048,77.97737790936797,42.80561654670228,46.913227017779775,40
580.0,81.5,80.70322715977676,73.61028801574466,77.76263697361627,42.94059018616049,47.0929391440321,40
600.0,81.00000000000001,80.26607778109012,73.0309685206897,77.28526859796973,42.980809183120385,47.23510926040042,40
615.0,79.90000000000002,79.15702947274323,72.06157758227825,76.31417713477633,42.8428523379669,47.095451890464986,40
630.0,78.59999999999998,78.00308181506942,70.92797325040333,75.1588278734799,42.84425394158953,47.075108564666095,40
650.0,77.9,77.08351759304679,70.1145876822519,74.2568353777847,42.826682215262096,46.9689299107949,40
670.0,77.49999999999999,76.78663690746896,69.87771772668981,73.74260824255538,43.04402866491358,46.90891918077915,40
690.0,77.8,76.90779500716937,69.89225737081264,73.57629690117427,43.331498105995095,47.015537636356726,40
710.0,78.1,77.24481980331655,70.20309322633612,73.673998265246,43.57082153807055,47.04172657698042,40
730.0,78.59999999999998,77.628496856354,70.55302498286416,73.82125836259571,43.80723849375829,47.075471873489846,40
750.0,78.8,77.74580251698443,70.40120047777243,73.778597406941,43.96720511004342,47.34460203921199,40
775.0,78.3,77.31125963509318,69.98617367584673,73.41676813390895,43.894491501184234,47.32508595924645,40
800.0,77.9,76.77305662475109,69.53204451646802,72.97050623571104,43.80255038904005,47.24101210828307,40
825.0,77.6,76.39140976238862,69.07432656941579,72.58279567319845,43.80861408919017,47.31708319297283,40
850.0,77.49999999999999,76.39130119372275,69.11674360581105,72.51022895103164,43.88107224269112,47.2745575879117,40
875.0,78.4,77.1753139700466,69.68315401095258,73.10579249370409,44.069521476342516,47.492159959094025,40
900.0,78.89999999999999,77.70688641681168,70.27102523623823,73.71908072977115,43.987805687040535,47.435861180573454,40
925.0,78.89999999999999,77.60951718857048,70.20423380201449,73.64007906064589,43.96943812792459,47.40528338655599,40
950.0,78.3,77.05710139130414,70.14471100891032,73.40071587695266,43.656385514351484,46.91239038239382,40
975.0,77.7,76.71259006628738,70.3805764566422,73.32551418012602,43.387075886161355,46.33201360964517,40
1000.0,78.4,77.389705396699,71.23930860776456,73.94429045105441,43.445414945644586,46.150396788934444,40
1030.0,78.59999999999998,77.90240634435759,71.85948785738584,74.45448743658118,43.44791890777641,46.04291848697174,40
1060.0,78.59999999999998,78.09004693751821,71.93359144353089,74.60607760808925,43.48396932942896,46.15645549398732,40
1090.0,78.50000000000001,78.14330325480637,71.71480804581633,74.42842563349079,43.71487762131558,46.42849520899004,40
1120.0,78.7,78.19122737696848,71.41409943351655,74.25279683036376,43.93843054660472,46.77712794345193,40
1150.0,79.0,78.48469248759659,71.58048468831782,74.52232147694725,43.962371010649335,46.904207799278765,40
1180.0,78.8,78.40075436849067,71.54052504838877,74.53239801153012,43.86835635696055,46.860229320101894,40
1220.0,78.1,77.7282505952037,70.9108425805424,73.99897010190844,43.72928049329526,46.81740801466131,40
1250.0,77.3,77.04983920549013,70.17859786260406,73.3589820649148,43.69085714057533,46.871241342886066,40
1280.0,77.8,77.39005220771041,70.14986546696797,73.55670166394555,43.833350543764865,47.240186740742445,40
1320.0,78.2,77.75365124078463,70.33259436183579,73.87317188796642,43.88047935281821,47.421056878948846,40
1360.0,77.6,77.18292365980435,69.86349434694996,73.5513194836633,43.63160417614104,47.31942931285438,40
1400.0,76.6,76.30860346687699,69.07977093025177,72.95196217582337,43.35664129105362,47.22883253662522,40
1450.0,76.6,76.24023732675849,68.74960895441542,72.7956159490767,43.444621377681784,47.49062837234307,40
1500.0,76.8,76.401110315397,68.58962761979988,72.70919482533553,43.691915490061476,47.81148269559712,40
1550.0,76.3,75.93970749690409,67.98126428746157,72.15459887109064,43.78510862581345,47.95844320944252,40
1600.0,75.9,75.32490219681318,67.39389337295117,71.71367383535669,43.6112283614565,47.931008823862015,40
1650.0,76.5,75.99730063276508,67.89360048274365,72.27508516636118,43.722215466403895,48.103700150021425,40
1700.0,77.49999999999999,76.93145998464239,68.49907154099803,72.97488703988745,43.95657294475494,48.432388443644356,40
1750.0,77.10000000000001,76.65271462890179,68.34584801031512,72.8351689577059,43.81754567119589,48.30686661858667,40
1800.0,77.2,76.78468194339762,68.55591581079078,72.90003255011416,43.88464939328345,48.228766132606836,40
1850.0,79.1,78.35682022322413,69.60329085549147,73.92648060205984,44.43033962116429,48.75352936773267,40
1900.0,79.5,78.81835199553682,70.11983675456375,74.24978403027441,44.5685679652624,48.698515240973066,40
1950.0,79.4,78.4387330204356,70.17936978391705,74.10084326824175,44.33788975219386,48.25936323651855,40
2000.0,79.99999999999999,78.44384519906103,70.65011672203185,74.38495701290832,44.058888186152714,47.79372847702918,40
2060.0,81.09999999999998,78.81038843151701,71.38881740115484,74.82906843494189,43.981319996575124,47.42157103036217,40
2120.0,81.9,79.12998789810287,71.88665477039801,75.09737174678311,44.03261615131976,47.24333312770486,40
2180.0,81.9,79.1149244049608,71.98350781777202,75.19791729921803,43.91700710574277,47.13141658718878,40
2240.0,82.2,79.5861274329085,72.05612119379958,75.43930956977285,44.14681786313565,47.530006239108914,40
2300.0,81.9,79.9320209263347,71.96943590292265,75.4381782675467,44.493842658788,47.962585023412046,40
2360.0,81.09999999999998,79.43862748332886,71.45195746740008,75.06889792444991,44.369729558878944,47.98667001592878,40
2400.0,81.00000000000001,79.49053062785536,71.15809884628598,74.98620690919209,44.50432371866327,48.33243178156938,40
2500.0,80.6,79.47105855564595,70.85843303404265,74.91910829032561,44.55195026532034,48.612625521603306,40
2580.0,80.6,79.41237286317428,70.60916889058875,75.08438599236155,44.32798687081274,48.803203972585536,40
2650.0,80.8,79.49318880659239,70.29737528728172,75.0815122432686,44.41167656332378,49.19581351931066,40
2720.0,81.39999999999999,80.00559563253022,70.38266271824267,75.33653702535547,44.66905860717475,49.622932914287546,40
2800.0,81.6,80.0439154861144,70.09599543982932,75.17866027033911,44.86525521577529,49.94792004628508,40
2900.0,81.6,79.75468159500126,69.50146617537743,74.72592385039106,45.0287577446102,50.25321541962383,40
3000.0,82.40000000000002,80.28682599837187,69.59499612676869,74.78544619020128,45.50137980817058,50.691829871603176,40
3070.0,81.3,79.29673501109257,68.78127379962666,73.77701707345938,45.51971793763319,50.515461211465905,40
3150.0,81.5,79.56976016980398,69.20908565935002,74.1124426266803,45.45731754312368,50.36067451045396,40
3250.0,80.1,78.59965796197714,68.60059476507655,73.30892446374632,45.29073349823082,49.99906319690059,40
3350.0,79.7,78.44928340942182,68.72738345381225,73.37412709025082,45.075156319171,49.72189995560957,40
3450.0,77.6,77.13784417420108,68.05384109094948,72.34470729442721,44.79313687977387,49.0840030832516,40
3550.0,77.10000000000001,77.01926212092002,67.92653139347438,72.1933600409179,44.82590208000212,49.09273072744564,40
3650.0,76.00000000000001,76.32478690010745,67.00308024784309,71.22806281818174,45.096724081925714,49.32170665226437,40
3750.0,76.7,76.6793294403932,66.8361136454027,71.24850156610505,45.430827874288155,49.8432157949905,40
3870.0,77.0,76.86863947949753,66.72417418014842,71.18461931819158,45.68402016130595,50.14446529934911,40
4000.0,77.9,77.58120597814919,67.1961690729397,71.82149919073716,45.75970678741203,50.38503690520949,40
4120.0,77.8,77.32804813747588,66.88258363398707,71.69145758719141,45.63659055028447,50.44546450348881,40
4250.0,77.6,77.16138502287141,66.78733378227913,71.61147575784126,45.54990926503015,50.37405124059228,40
4370.0,77.8,77.36202548177347,67.25124845343954,72.10224722095043,45.25977826082304,50.11077702833393,40
