Freq "Ceiling Bounce"
22.4 -1.3210301047988224
23.0 -0.3856936213771718
23.6 0.4441577493485198
24.0 1.1143063786227998
25.0 1.8143063786228169
25.8 3.3143063786227884
26.5 4.8441577493485255
27.2 6.044157749348514
28.0 7.078969895201155
29.0 7.9789698952011605
30.0 8.778969895201143
30.7 9.914306378622811
31.5 11.214306378622794
32.5 12.078969895201155
33.5 12.714306378622823
34.5 13.17896989520115
35.5 13.714306378622794
36.5 14.814306378622817
37.5 15.714306378622823
38.7 16.378969895201166
40.0 16.844157749348497
41.2 18.044157749348514
42.5 19.844157749348525
43.7 21.314306378622817
45.0 22.578969895201155
46.2 23.91430637862281
47.5 25.378969895201166
48.7 26.614306378622828
50.0 27.714306378622823
51.5 28.814306378622817
53.0 29.778969895201143
54.5 30.578969895201155
56.0 31.64415774934851
58.0 32.91430637862284
60.0 33.97896989520116
61.5 35.21430637862282
63.0 36.67896989520112
65.0 37.97896989520116
67.0 39.81430637862282
69.0 41.714306378622794
71.0 43.514306378622805
73.0 45.64415774934851
75.0 47.47896989520116
77.5 49.21430637862282
80.0 50.74415774934852
82.5 52.51430637862282
85.0 54.44415774934852
87.5 56.114306378622814
90.0 57.71430637862282
92.5 58.97896989520116
95.0 60.04415774934853
97.5 61.344157749348525
100.0 62.67896989520115
103.0 63.80906430015982
106.0 64.80906430015983
109.0 66.00531806766472
112.0 66.97071732495408
115.0 67.7022846139602
118.0 68.4022846139602
122.0 69.03435140868501
125.0 69.60076749445561
128.0 69.93358982687998
132.0 70.33358982687997
136.0 70.63358982687998
140.0 70.9
145.0 71.10000000000001
150.0 71.2
155.0 71.26692185116049
160.0 71.36692185116051
165.0 71.36692185116051
170.0 71.36692185116051
175.0 71.33358982687999
180.0 71.30076749445561
185.0 71.30076749445561
190.0 71.26769521305295
195.0 71.23358982687996
200.0 71.13358982687997
206.0 71.03358982687998
212.0 70.90076749445562
218.0 70.80076749445563
224.0 70.70076749445563
230.0 70.60076749445562
236.0 70.50076749445562
240.0 70.40076749445562
250.0 70.40076749445562
258.0 70.40076749445562
265.0 70.40076749445562
272.0 70.36845083805433
280.0 70.46845083805432
290.0 70.5022846139602
300.0 70.5022846139602
307.0 70.6022846139602
315.0 70.67071732495408
325.0 70.73964531976002
335.0 70.83964531976001
345.0 70.93964531976002
355.0 71.03964531976001
365.0 71.13964531976
375.0 71.17449351030437
387.0 71.2404416794549
400.0 71.2404416794549
412.0 71.20690501035459
425.0 71.04283030471974
437.0 70.94136150423586
450.0 70.80934661896389
462.0 70.64608461666676
475.0 70.5148352363348
487.0 70.45380974359448
500.0 70.49188145404554
515.0 70.50123572626639
530.0 70.54066256291328
545.0 70.60937400321451
560.0 70.7191293045836
580.0 70.71844816715095
600.0 70.7191293045836
615.0 70.68407681298943
630.0 70.64898359150843
650.0 70.55016923070222
670.0 70.49408963790566
690.0 70.5292653088357
710.0 70.53012065974809
730.0 70.7301206597481
750.0 70.89408963790565
775.0 71.0560373652456
800.0 71.08239860760773
825.0 70.93563946709274
850.0 70.59238562216105
875.0 70.18982856673472
900.0 69.85380974359447
925.0 69.62188682922213
950.0 69.46023818113063
975.0 69.46826674204793
1000.0 69.378578322151
1030.0 69.23183881345315
1060.0 69.06194697319562
1090.0 68.79825001362084
1120.0 68.69430869811559
1150.0 68.57033939633071
1180.0 68.29365387530115
1220.0 68.00091389014041
1250.0 67.96268190818897
1280.0 68.17245249207646
1320.0 68.27083383381351
1360.0 68.21832676913883
1400.0 68.09804670748717
1450.0 68.27813636156328
1500.0 68.41628511153327
1550.0 68.43012177221654
1600.0 68.39727311966745
1650.0 68.48444762363007
1700.0 68.5452051609938
1750.0 68.80937829065057
1800.0 68.8079107556345
1850.0 68.63920982111144
1900.0 68.56226741403312
1950.0 68.49389595883675
2000.0 68.49389595883675
2060.0 68.59389595883674
2120.0 68.64915203998831
2180.0 68.61719474435358
2240.0 68.61719474435358
2300.0 68.67269145322597
2360.0 68.82875610128315
2400.0 68.82875610128315
2500.0 68.56136837622763
2580.0 68.16136837622763
2650.0 67.80497668676807
2720.0 67.92602452356692
2800.0 67.94852015458805
2900.0 67.59430744544665
3000.0 67.10937829065057
3070.0 66.73510550729975
3150.0 66.42618710391504
3250.0 66.10091389014042
3350.0 65.9771046600885
3450.0 65.93392657477243
3550.0 65.68382160833151
3650.0 65.36585727595256
3750.0 65.28888377963459
3870.0 65.21627615049991
4000.0 65.21627615049991
4120.0 65.20554950338958
4250.0 65.34351870470792
4370.0 65.48760046288922
4500.0 65.59380864002826
4620.0 65.71246641261479
4750.0 65.84293492570157
4870.0 65.95632382767523
5000.0 66.0234581987282
5150.0 65.8978137962719
5300.0 65.84027530866605
5450.0 65.67833425668982
5600.0 65.40417076915651
5800.0 64.90417076915651
6000.0 64.29059140787744
6150.0 63.651195013004184
6300.0 62.765679406100375
6500.0 62.14277775075742
6700.0 61.60609330848389
6900.0 61.083753546198906
7100.0 60.772449932293355
7300.0 60.570762757254386
7500.0 60.55477168396807
7750.0 60.26503937590752
8000.0 59.58959528561198
8250.0 58.96503937590752
8500.0 58.50962074754837
8750.0 58.93113467688883
9000.0 60.00937829065056
9250.0 60.962263701495544
9500.0 61.60146480937388
9750.0 62.23131741555753
10000.0 63.07211025799337
10300.0 63.35206000485604
10600.0 62.90840017459456
10900.0 62.358251492120445
11200.0 62.20204404422748
11500.0 61.61895853169291
11800.0 60.84831694379051
12200.0 60.25326719562787
12500.0 59.74744450743124
12800.0 59.068154742488076
13200.0 58.8301246186698
13600.0 59.1372352180728
14000.0 59.29473218864021
14500.0 59.648606980508234
15000.0 58.54942636664187
15500.0 57.68910921343739
16000.0 59.51115315731633
16500.0 60.59472217650472
17000.0 61.76443680503088
17500.0 62.02638463906274
18000.0 61.71172975410157
18500.0 60.62638463906275
19000.0 58.41172975410157
19500.0 54.92638463906276
