Freq "Front Wall Bounce"
22.4 -3.088464549458834
23.0 -2.129534523269413
23.6 -1.2884645494588227
24.0 -0.6029607694215571
25.0 0.028899925163372586
25.8 1.5970392305784316
26.5 3.111535450541183
27.2 4.3115354505412
28.0 5.311535450541172
29.0 6.211535450541177
30.0 7.011535450541189
30.7 8.141436149389747
31.5 9.42889992516335
32.5 10.328899925163356
33.5 10.968187576039085
34.5 11.411535450541166
35.5 11.92889992516335
36.5 13.070465476730575
37.5 13.928899925163378
38.7 14.611535450541183
40.0 15.111535450541183
41.2 16.31153545054117
42.5 18.111535450541183
43.7 19.583466781259702
45.0 20.81153545054117
46.2 22.168187576039074
47.5 23.611535450541183
48.7 24.841436149389736
50.0 25.955140381295237
51.5 27.028899925163373
53.0 28.01153545054119
54.5 28.81153545054117
56.0 29.911535450541166
58.0 31.197039230578454
60.0 32.21153545054118
61.5 33.47046547673055
63.0 34.911535450541166
65.0 36.21153545054118
67.0 38.08346678125967
69.0 39.997039230578466
71.0 41.74143614938974
73.0 43.911535450541166
75.0 45.71153545054118
77.5 47.44143614938973
80.0 49.01153545054119
82.5 50.76818757603908
85.0 52.71153545054118
87.5 54.41153545054118
90.0 55.968187576039085
92.5 57.24143614938974
95.0 58.31153545054117
97.5 59.61153545054118
100.0 61.01153545054119
103.0 62.21153545054118
106.0 63.33409756741017
109.0 64.74880505083127
112.0 65.91753598747621
115.0 66.77246681424684
118.0 67.55642554082768
122.0 68.28308507814528
125.0 68.86744795632141
128.0 69.26744795632142
132.0 69.66578282809341
136.0 70.00718280685601
140.0 70.24849669766245
145.0 70.4628224537156
150.0 70.59100953588701
155.0 70.66249688473351
160.0 70.73378816818875
165.0 70.76151985865759
170.0 70.76151985865759
175.0 70.7621787030252
180.0 70.7190448007643
185.0 70.70522601187574
190.0 70.70522601187574
195.0 70.69103967631156
200.0 70.60522601187574
206.0 70.49136311267783
212.0 70.37745582066363
218.0 70.31969497652844
224.0 70.23445123271755
230.0 70.1488233178229
236.0 70.09102443263086
240.0 70.07743314354732
250.0 70.09102443263086
258.0 70.09102443263086
265.0 70.14849669766242
272.0 70.20521081790774
280.0 70.33378816818873
290.0 70.42033025846064
300.0 70.4478357742416
307.0 70.56216370700805
315.0 70.66216370700805
325.0 70.74945435345394
335.0 70.84849669766244
345.0 71.00685303985378
355.0 71.1068530398538
365.0 71.19331127356172
375.0 71.29331127356171
387.0 71.3373706678626
400.0 71.36576784451603
412.0 71.3507759575122
425.0 71.22098024182374
437.0 71.16542716247672
450.0 71.06478379779273
462.0 70.96578282809342
475.0 70.89300287221474
487.0 70.89300287221474
500.0 70.99300287221473
515.0 71.07844455657319
530.0 71.19167916346389
545.0 71.26349644118275
560.0 71.36316334013439
580.0 71.34914247947079
600.0 71.30883214033707
615.0 71.18337960130337
630.0 71.05714984114206
650.0 70.85714984114207
670.0 70.68477697229854
690.0 70.57084853978692
710.0 70.55480127687235
730.0 70.66815295405374
750.0 70.89465759862664
775.0 71.09465759862663
800.0 71.2494766576064
825.0 71.17874626201373
850.0 71.02296056951462
875.0 70.80850249855247
900.0 70.64034237606225
925.0 70.55571968628608
950.0 70.5732833687482
975.0 70.67856344471637
1000.0 70.76767462120559
1030.0 70.77040998132847
1060.0 70.73262226487321
1090.0 70.66373396492695
1120.0 70.65595865991878
1150.0 70.65595865991878
1180.0 70.45595865991876
1220.0 70.2398561818959
1250.0 70.22545434192817
1280.0 70.2925066867798
1320.0 70.20878535417053
1360.0 69.94923261552496
1400.0 69.70709757712575
1450.0 69.78113566155095
1500.0 69.83431043326563
1550.0 69.79264217478455
1600.0 69.79640062809985
1650.0 69.82887673338838
1700.0 70.03359761866155
1750.0 70.27185623871414
1800.0 70.3941258639276
1850.0 70.26658446143361
1900.0 70.22498158518746
1950.0 70.2552188339603
2000.0 70.3279364574431
2060.0 70.41939937341252
2120.0 70.50867727563873
2180.0 70.48460470682761
2240.0 70.53239978565966
2300.0 70.6752352797974
2360.0 70.88629151448953
2400.0 70.95232580284949
2500.0 70.80336022997136
2580.0 70.46269947071455
2650.0 70.22028409663095
2720.0 70.40288506982607
2800.0 70.64440261933557
2900.0 70.54440261933556
3000.0 70.42629281818978
3070.0 70.39957949022714
3150.0 70.41057400115831
3250.0 70.52794231270902
3350.0 70.77600690367154
3450.0 71.08706117664188
3550.0 71.05648510769197
3650.0 70.90785795731269
3750.0 70.91489154106883
3870.0 70.9322426289166
4000.0 70.88946030999792
4120.0 70.87233676928567
4250.0 70.86124490609807
4370.0 70.8472406759739
4500.0 70.82565840792049
4620.0 70.85400585207128
4750.0 70.91374133412914
4870.0 70.94723193591432
5000.0 70.92064748792431
5150.0 70.84564356985844
5300.0 70.74814037273073
5450.0 70.66575966283435
5600.0 70.43773182850295
5800.0 70.06640181817679
6000.0 69.62628095658448
6150.0 69.21574202181884
6300.0 68.71065905257672
6500.0 68.52570661075842
6700.0 68.54288589583321
6900.0 68.55188018686596
7100.0 68.60967899685947
7300.0 68.60085853036585
7500.0 68.73214305937854
7750.0 68.46713800135481
8000.0 67.70904864660415
8250.0 66.81661171859665
8500.0 66.02528516011596
8750.0 65.98805997634776
9000.0 66.67296657025015
9250.0 67.23237089166311
9500.0 67.43484258233015
9750.0 67.71899808894024
10000.0 68.33235414091125
10300.0 68.60634524754927
10600.0 68.34476729876643
10900.0 68.14327138326068
11200.0 68.41597646252322
11500.0 68.49901245347444
11800.0 68.58451964880825
12200.0 68.83229846368262
12500.0 68.84132322494827
12800.0 68.5728934090398
13200.0 68.54947993801294
13600.0 68.82138149260943
14000.0 68.71397281307526
14500.0 68.47510598329369
15000.0 66.65899832551732
15500.0 65.18308940148857
16000.0 66.68122178859153
16500.0 67.70495880857897
17000.0 68.92797718205544
17500.0 69.3106053762215
18000.0 68.98438636489675
18500.0 67.88438636489676
19000.0 65.67655862479525
19500.0 62.18438636489675
