Freq,On Axis,Listening Window,Sound Power,Early Reflections,Early Reflections DI,Sound Power DI,DI offset
22.4,22.999999999999986,24.665484917966452,22.302911523599462,22.3354223877041,32.33006253026235,32.36257339436699,30
23.0,24.499999999999986,26.044522643929938,25.280733277950034,24.601910935824932,31.442611708105005,30.763789365979903,30
23.6,24.999999999999986,27.27483144380325,29.288985052479333,27.583214184879708,29.691617258923543,27.985846391323918,30
24.0,27.499999999999986,29.783902515336294,31.20221055891217,30.334239400150793,29.4496631151855,28.581691956424123,30
25.0,30.499999999999986,32.150028048519275,33.376006563696805,32.78751992487231,29.36250812364696,28.77402148482247,30
25.8,33.2,34.19676888442292,36.014324071064905,35.28977289259937,28.90699599182355,28.182444813358018,30
26.5,36.3,36.28367432814467,39.53841153073971,38.38730949787113,27.89636483027354,26.745262797404962,30
27.2,38.3,38.48159145900949,41.187114112690224,40.36118420093517,28.120407258074323,27.29447734631927,30
28.0,39.60000000000001,40.39358851586489,42.24232816620302,41.96064662999514,28.432941885869752,28.151260349661868,30
29.0,40.499999999999986,42.10441649151885,43.38893665031715,43.531636588499666,28.572779903019182,28.7154798412017,30
30.0,43.8,43.9812104505025,45.008866039435006,45.37646863613075,28.60474181437175,28.972344411067496,30
30.7,47.89999999999999,45.76867382040773,47.110276882356416,47.3805595576561,28.38811426275163,28.65839693805131,30
31.5,50.499999999999986,47.16494629537094,48.762434050639925,48.92801062958627,28.23693566578467,28.402512244731014,30
32.5,52.499999999999986,48.27988843668841,50.19962116814777,50.265244614652644,28.014643822035765,28.080267268540638,30
33.5,53.999999999999986,51.23418345412746,51.78564342640486,51.91205199376587,29.32213146036159,29.4485400277226,30
34.5,54.89999999999999,53.68848063942086,52.947415934100704,53.20536826281331,30.48311237660755,30.741064705320156,30
35.5,54.89999999999999,55.73858531867192,53.8596960667319,54.33714733075202,31.401437987919905,31.878889251940024,30
36.5,56.8,58.006763696218954,55.981710805314094,56.6539656373682,31.35279805885075,32.02505289090486,30
37.5,58.7,59.93778073764561,58.02378281125641,58.8091972164638,31.12858352118181,31.9139979263892,30
38.7,60.3,61.687810681662484,59.93533012018584,60.747979470688165,30.93983121097432,31.752480561476645,30
40.0,61.999999999999986,63.331594799443906,61.78948115364467,62.581270913242406,30.7503238862015,31.542113645799233,30
41.2,63.5,64.80425234666079,63.363328931312694,64.15985034072713,30.644402005933657,31.440923415348095,30
42.5,65.1,66.44595010794554,64.72137068215612,65.61177237369351,30.834177734252023,31.724579425789415,30
43.7,66.60000000000001,68.09218174644373,65.82723702563698,66.90404723861312,31.18813450783061,32.26494472080675,30
45.0,68.00000000000001,69.32884738750742,66.96727832419356,68.06026960539218,31.268577782115244,32.361569063313866,30
46.2,69.49999999999999,69.86192983283958,68.6633762615485,69.37789499756012,30.48403483527946,31.19855357129107,30
47.5,70.89999999999999,70.57057070451044,70.27596422152206,70.6709292330054,29.89964147150505,30.294606482988385,30
48.7,72.4,71.87725079949307,72.23314980626638,72.03180097033622,29.84544982915685,29.644100993226687,30
50.0,74.10000000000001,73.74572505855308,74.30659239484599,73.4361584154447,30.309566643108383,29.439132663707085,30
51.5,74.2,73.59366729074515,72.97019873680519,73.10485105746274,30.488816233282407,30.623468553939958,30
53.0,74.9,74.44613108982841,72.718450530049,73.5764944923164,30.869636597512013,31.727680559779415,30
54.5,75.8,75.37715639723321,72.97347042157027,74.16816217219836,31.208994225034843,32.40368597566294,30
56.0,76.60000000000001,76.23244162151826,73.73023853374865,74.97640085067991,31.256040770838354,32.502203087769615,30
58.0,77.4,77.11881952234127,74.78905371368633,75.9430586019159,31.175760920425375,32.32976580865494,30
60.0,78.3,77.94220039298423,75.74991993669812,76.83360006180492,31.108600331179318,32.19228045628611,30
61.5,79.2,78.77458837071558,76.69172320680886,77.6935681215501,31.081020249165476,32.08286516390672,30
63.0,80.0,79.60666133335359,77.61471270596994,78.56842351705349,31.038237816300096,31.99194862738365,30
65.0,80.7,80.33972224942545,78.48422538389678,79.37669110730658,30.963031142118865,31.855496865528664,30
67.0,81.2,80.89585471202552,79.08990140742873,79.91787221485085,30.97798249717468,31.805953304596798,30
69.0,81.60000000000001,81.31881952234126,79.70331661204467,80.41982846803482,30.898991054306435,31.615502910296584,30
71.0,81.99999999999999,81.7076136594324,80.30564519340986,80.87911591159467,30.82849774783773,31.401968466022538,30
73.0,82.2,81.93789335294638,80.83677069725003,81.24416130132671,30.693732051619662,31.101122655696344,30
75.0,82.3,82.0699738260637,81.2680213002593,81.5330138839342,30.5369599421295,30.801952525804396,30
77.5,82.3,82.12445814420117,81.54993072091752,81.72333028467335,30.40112785952782,30.574527423283655,30
80.0,82.3,82.17899271118895,81.72947957540383,81.8522136291673,30.32677908202166,30.449513135785125,30
82.5,82.3,82.2130058166541,81.90363406072022,81.95419536343714,30.258810453216967,30.30937175593388,30
85.0,82.3,82.2343573213356,82.00031483543818,82.00923767308161,30.22511964825398,30.23404248589742,30
87.5,82.3,82.24472895057721,82.02150013081827,82.03165184816335,30.213077102413862,30.223228819758944,30
90.0,82.4,82.30051167804048,82.09553382801478,82.11134435947997,30.189167318560507,30.2049778500257,30
92.5,82.4,82.3454944791988,82.08318858979594,82.14853102528876,30.196963453910044,30.262305889402867,30
95.0,82.4,82.41173585711586,81.99656135870161,82.16148803079533,30.250247826320532,30.415174498414245,30
97.5,82.5,82.48925841531062,81.91830927937586,82.20526272834212,30.283995686968495,30.570949135934754,30
100.0,82.5,82.54498217571202,81.77907295686332,82.18146098652348,30.363521189188546,30.765909218848705,30
103.0,82.4,82.45583957685776,81.59345786858617,82.05754133637446,30.3982982404833,30.862381708271585,30
106.0,82.2,82.32267658830112,81.36122421889202,81.87413997611675,30.44853661218437,30.961452369409102,30
109.0,81.99999999999999,82.08900192004663,81.08535175698906,81.62066840808032,30.468333511966307,31.00365016305757,30
112.0,81.7,81.86768934561613,80.80702065458256,81.36912927026677,30.49856007534936,31.06066869103357,30
115.0,81.5,81.60051167804048,80.50561332949685,81.08940847522766,30.51110320281282,31.094898348543623,30
118.0,81.3,81.35583957685776,80.21026394681626,80.80155076549865,30.554288811359115,31.145575630041506,30
122.0,81.1,81.13358982687998,79.9843247925368,80.57554478906685,30.55804503781313,31.149265034343188,30
125.0,80.89999999999999,80.92267658830112,79.74011511032094,80.31416472831073,30.608511859990386,31.182561477980173,30
128.0,80.7,80.67823306508387,79.46582122204916,80.02768837955963,30.65054468552424,31.212411843034715,30
132.0,80.50000000000001,80.50076749445562,79.24099888420989,79.80598136968366,30.69478612477195,31.25976861024573,30
136.0,80.4,80.2795068701197,78.95680557507278,79.5454044244617,30.73410244565801,31.322701295046926,30
140.0,80.2,80.1130058166541,78.67670554948077,79.3194584238242,30.793547392829893,31.436300267173323,30
145.0,80.1,79.95837672536983,78.37860404321466,79.1010839361975,30.857292789172334,31.579772682155166,30
150.0,80.0,79.82445814420117,78.07504143600346,78.86989786436791,30.95456027983326,31.749416708197714,30
155.0,79.9,79.70354610191525,77.84295850409815,78.71176773506556,30.991778366849687,31.8605875978171,30
160.0,79.8,79.60354610191523,77.62154894955893,78.54475938521786,31.05878671669737,31.9819971523563,30
165.0,79.7,79.49281329520848,77.40710639577387,78.37766453646968,31.115148758738798,32.08570689943461,30
170.0,79.6,79.38405159795617,77.17741022739487,78.2020601476595,31.181991450296678,32.2066413705613,30
175.0,79.49999999999999,79.26090170960877,76.95129534051522,78.01186209601832,31.249039613590455,32.30960636909356,30
180.0,79.3,79.06090170960879,76.72862253313573,77.78208530720889,31.278816402399897,32.33227917647305,30
185.0,79.10000000000001,78.84063796503014,76.44146500625165,77.50770848564407,31.332929479386067,32.39917295877849,30
190.0,78.8,78.48756720128137,76.08572639776578,77.13148975953443,31.356077441746933,32.40184080351558,30
195.0,78.39999999999999,78.11058184408851,75.50086049810615,76.6263989803215,31.484182863767018,32.609721345982365,30
200.0,78.2,77.89855684849735,74.96212353102541,76.27945567607392,31.619101172423427,32.93643331747194,30
206.0,78.39999999999999,77.99101239693367,74.78020833792097,76.30408320386957,31.686929193064103,33.2108040590127,30
212.0,78.7,78.36735356144409,74.66366702220473,76.46607379615638,31.90127976528771,33.70368653923936,30
218.0,79.0,78.72047706924546,74.61415948826716,76.70376733795943,32.01670973128603,34.1063175809783,30
224.0,79.2,78.92074371294616,74.64287418545739,76.882368046143,32.03837566680316,34.277869527488775,30
230.0,79.3,78.96895471775876,74.67720579947935,76.9028531343966,32.06610158336217,34.29174891827941,30
236.0,79.3,78.92021363305625,75.10607915668933,77.08547443324976,31.834739199806492,33.81413447636692,30
240.0,79.10000000000001,78.76549719198147,75.59905530372234,77.30531655909779,31.460180632883677,33.16644188825913,30
250.0,78.7,78.41881952234125,74.64448871440662,76.67109250126968,31.74772702107157,33.77433080793463,30
258.0,78.39999999999999,78.24901542823474,74.1896255143675,76.39573020778225,31.85328522045249,34.059389913867236,30
265.0,78.2,78.06919486783487,74.029233512343,76.26033749382714,31.80885737400773,34.03996135549187,30
272.0,77.9,77.8902725709036,74.0602304783117,76.18370419832536,31.706568372578246,33.83004209259191,30
280.0,77.7,77.64523538608282,74.01664004980256,76.02711330554071,31.618122080542108,33.628595336280256,30
290.0,77.5,77.52318560174545,73.97880076169234,75.90210345269391,31.621082149051546,33.54438484005311,30
300.0,77.3,77.3563506012561,73.89696274938005,75.77284726784774,31.58350333340836,33.459387851876045,30
307.0,77.2,77.24498217571202,73.80722718539108,75.65606376425193,31.5889184114601,33.43775499032094,30
315.0,77.2,77.14574765970298,73.63838950018301,75.46148818131768,31.6842594783853,33.50735815951997,30
325.0,77.3,77.17022558355184,73.5666210306897,75.41133987030985,31.758885713241995,33.60360455286214,30
335.0,77.6,77.40682938470806,73.6504135899999,75.51814768068809,31.888681704019973,33.75641579470816,30
345.0,78.00000000000001,77.65334746775575,73.65281611753299,75.59734483448084,32.056002633274915,34.00053135022276,30
355.0,78.3,77.88000361795667,73.50115602877356,75.61778099737695,32.26222262057972,34.37884758918311,30
365.0,78.39999999999999,77.97287533370347,73.25734707803117,75.55565667098838,32.41721866271509,34.7155282556723,30
375.0,78.39999999999999,77.96180826037765,72.99509934152879,75.43346631622916,32.528341944148494,34.966708918848866,30
387.0,78.2,77.71015218792294,72.55749727223782,75.09171589902267,32.61843628890027,35.15265491568512,30
400.0,77.8,77.25145493805697,71.8125731667601,74.45189923236497,32.799555705692,35.43888177129686,30
412.0,77.3,76.72460563297335,71.03878737617528,73.74591270563576,32.97869292733759,35.68581825679807,30
425.0,76.99999999999999,76.43432853473153,70.72130874484293,73.36996942439195,33.06435911033958,35.713019789888605,30
437.0,77.3,76.76389660734803,71.52070392941832,73.9678056138052,32.79609099354283,35.24319267792971,30
450.0,77.9,77.43473906249483,72.46054198293156,74.89028021256624,32.54445884992859,34.97419707956327,30
462.0,78.39999999999999,77.99879330715038,72.8485466327316,75.34415074003078,32.654642567119595,35.15024667441878,30
475.0,78.6,78.25339409477196,73.1501150689752,75.58517077453686,32.6682233202351,35.103279025796766,30
487.0,78.5,78.12792718353332,73.25283171853214,75.55768008658087,32.57024709695244,34.87509546500118,30
500.0,78.09999999999998,77.78104088113396,73.98166841658745,75.88358113703477,31.897459744099194,33.79937246454651,30
515.0,77.6,77.33363654971404,74.37368083858195,76.14796841992101,31.18566812979303,32.959955711132096,30
530.0,77.4,77.21109612884813,74.5850753339476,76.53939451291455,30.67170161593357,32.626020794900526,30
545.0,77.8,77.63326012458289,75.08359993428066,77.4944762566473,30.138783867935587,32.549660190302234,30
560.0,78.5,77.98281646267314,73.53951117059522,76.86841195890167,31.114404503771468,34.44330529207792,30
580.0,79.2,78.53995187461308,72.03435562203424,75.86020010492284,32.67975176969024,36.50559625257884,30
600.0,79.40000000000002,78.77250882591862,72.28159614467798,76.02771808482592,32.7447907410927,36.490912681240644,30
615.0,79.10000000000001,78.51258149629705,72.2061488891908,76.05629191231444,32.45628958398261,36.306432607106245,30
630.0,78.5,77.90786734652731,70.64689024148998,74.875923786021,33.031943560506306,37.26097710503733,30
650.0,78.3,77.47438599464198,69.23983001072325,73.45322781855482,34.021158176087155,38.234555983918725,30
670.0,78.3,77.33547264303402,69.01207475383777,72.95074304039532,34.3847296026387,38.32339788919626,30
690.0,78.39999999999999,77.44072589871574,69.69481734382494,73.386628806467,34.05409709224874,37.7459085548908,30
710.0,78.39999999999999,77.5784843428299,70.29923612051918,73.99743370746384,33.581050635366054,37.27924822231071,30
730.0,78.3,77.37703561774934,70.16030582097657,74.02431929220366,33.352716325545686,37.21672979677277,30
750.0,78.5,77.53730533413905,70.33969276484628,74.34287430975427,33.194431024384784,37.19761256929277,30
775.0,78.9,78.12028615942637,71.17000393647139,75.20803200547836,32.91225415394801,36.95028222295498,30
800.0,79.10000000000001,78.52571375921855,71.71413650827164,75.81093663532648,32.71477712389206,36.81157725094691,30
825.0,78.7,78.31279328560034,71.60733031893811,75.67500634802764,32.6377869375727,36.705462966662225,30
850.0,77.9,77.65441176535865,71.12406727988463,75.11152404384707,32.542887721511576,36.53034448547402,30
875.0,77.5,77.21772135132646,71.05130207447347,74.9476583426562,32.27006300867026,36.16641927685299,30
900.0,77.8,77.34747156157262,71.27005473480955,75.14505574444158,32.20241581713104,36.07741682676307,30
925.0,78.00000000000001,77.29074126462537,71.01890905379035,74.827772383619,32.46296888100636,36.271832210835015,30
950.0,78.39999999999999,77.46140450969449,70.29552831814227,74.45157778988529,33.0098267198092,37.165876191552215,30
975.0,78.7,77.81530998599611,70.18959876319869,74.81186408408907,33.00344590190704,37.62571122279742,30
1000.0,78.7,77.65526651864543,69.34971678318982,74.19125276425954,33.46401375438589,38.305549735455614,30
1030.0,79.0,77.69482333378018,68.78478692229145,73.55856381340924,34.13625952037094,38.91003641148873,30
1060.0,79.49999999999999,78.05300848970916,69.12219399903522,74.02078806904483,34.03222042066433,38.93081449067394,30
1090.0,80.0,78.24836083646014,68.846434427105,73.66955391168797,34.57880692477217,39.40192640935514,30
1120.0,79.49999999999999,78.1382196299341,70.36018290241947,74.7678145804151,33.37040504951899,37.77803672751463,30
1150.0,78.39999999999999,77.60206880174779,70.44146330170115,74.69525009588403,32.906818705863756,37.16060550004664,30
1180.0,77.9,77.37429202895983,69.55789512805818,73.80006928755698,33.57422274140285,37.81639690090165,30
1220.0,77.6,77.03565884946114,69.06922328288744,73.38204803858028,33.65361081088086,37.96643556657371,30
1250.0,77.2,76.27325538114347,67.92729646134937,72.54079831385403,33.732457067289445,38.3459589197941,30
1280.0,77.4,76.43735107057006,67.9909679638736,72.66713786444464,33.77021320612542,38.44638310669646,30
1320.0,77.5,76.32249219058473,67.2074004707773,72.15591988480433,34.16657230578039,39.115091719807424,30
1360.0,78.3,76.58694268426608,66.63654351672041,71.7473529479608,34.83958973630527,39.95039916754567,30
1400.0,78.6,76.93387188705519,67.51329620776437,72.3283642948296,34.60550759222559,39.42057567929082,30
1450.0,76.90000000000002,74.89726235300402,64.99798533294872,70.07890315190853,34.81835920109549,39.89927702005531,30
1500.0,76.5,74.92102079836333,65.61208128222346,70.23499729447815,34.68602350388518,39.30893951613987,30
1550.0,76.3,75.29573601876247,65.86727707043929,70.33576100224082,34.95997501652165,39.42845894832318,30
1600.0,75.89999999999999,74.6848050757316,64.92856568567579,69.56569216167334,35.11911291405826,39.75623939005581,30
1650.0,76.90000000000002,75.0464110559151,65.25460994182653,70.05647812242472,34.98993293349038,39.79180111408857,30
1700.0,76.7,75.0461949919446,65.55427894113075,70.02848271798054,35.017712273964065,39.491916050813856,30
1750.0,76.99999999999999,75.02352355320349,65.30652404684376,69.93813313365264,35.08539041955085,39.71699950635973,30
1800.0,77.1,74.75358659242035,65.04672255701266,70.12694881907984,34.626637773340505,39.70686403540769,30
1850.0,77.6,75.77687938052448,66.05228670533657,71.1623118891845,34.61456749133998,39.72459267518791,30
1900.0,78.3,76.46726089925305,66.81309887560407,71.94091643585956,34.526344463393485,39.65416202364898,30
1950.0,77.9,76.04185119539078,66.58095827159315,71.76258177497597,34.279269420414806,39.46089292379763,30
2000.0,76.5,74.78562797440694,65.63663285678965,70.48978558089823,34.29584239350871,39.14899511761729,30
2060.0,75.8,73.76313200108832,64.78997642025628,69.34573479273807,34.41739720835025,38.97315558083204,30
2120.0,75.0,72.86601009950859,64.1053912871805,68.71142435890368,34.1545857406049,38.76061881232809,30
2180.0,74.9,72.12643822507839,63.91876891627541,68.52077825348624,33.60565997159215,38.20766930880298,30
2240.0,74.9,72.13226598735298,63.04476478013093,67.93079732438618,34.2014686629668,39.08750120722205,30
2300.0,76.7,74.42876322875394,65.42527093901607,70.53954345445973,33.889219774294205,39.00349228973786,30
2360.0,78.7,76.20530213169904,67.16244965527638,72.58483322116756,33.620468910531486,39.04285247642267,30
2400.0,79.8,77.20374728901552,68.0878590197076,73.5017606135241,33.701986675491426,39.11588826930793,30
2500.0,78.8,77.07023535845342,68.19043269398406,73.14096625688146,33.92926910157196,38.87980266446935,30
2580.0,78.5,77.36547563776695,68.58588834540676,73.56717112941642,33.798304508350526,38.77958729236019,30
2650.0,78.7,77.30371832106489,68.77855005160951,73.75286953590016,33.55084878516473,38.52516826945538,30
2720.0,79.40000000000002,77.38052566988694,69.11098100473161,73.80044090265174,33.58008476723519,38.26954466515532,30
2800.0,79.10000000000001,76.67895948281544,68.40184051712575,73.00642761084764,33.672531871967806,38.277118965689695,30
2900.0,78.5,76.6049862221221,68.43177565285123,73.07072553516888,33.53426068695322,38.173210569270864,30
3000.0,76.2,75.83183568198527,67.82190307456825,71.98383289858526,33.848002783400005,38.009932607417014,30
3070.0,76.1,75.07964895866486,66.5427091682585,70.63193941388202,34.44770954478284,38.536939790406365,30
3150.0,77.4,76.07499166195183,67.26186424877763,71.29161866406525,34.78337299788657,38.8131274131742,30
3250.0,78.09999999999998,76.87913764257034,67.7285966993832,72.03382726509476,34.845310377475585,39.15054094318714,30
3350.0,77.8,75.87401501427692,66.5759794729271,70.81593609810326,35.058078916173656,39.29803554134982,30
3450.0,77.8,75.90149610073489,66.24066610463761,70.72528572445945,35.176210376275435,39.66082999609728,30
3550.0,77.5,75.92855211092443,66.24453481612882,70.80134427775404,35.12720783317039,39.68401729479561,30
3650.0,77.8,76.00446628830592,65.85521867497823,70.6026736143872,35.40179267391872,40.14924761332769,30
3750.0,77.6,75.72329079966329,65.6135568937347,70.34469795259233,35.37859284707096,40.10973390592859,30
3870.0,77.9,75.70284466449314,65.4191624417117,70.10110490655065,35.6017397579425,40.28368222278144,30
4000.0,77.7,75.68697680028397,65.81590491872122,70.31432318728058,35.37265361300339,39.871071881562756,30
4120.0,78.6,76.27271547152002,66.4972149780795,70.99906927916271,35.273646192357305,39.77550049344052,30
4250.0,78.7,75.98286533077604,66.17212011958581,70.74268448973092,35.24018084104512,39.81074521119022,30
