Freq "On Axis"
22.4 23.936708860759467
23.0 25.436708860759467
23.6 25.936708860759467
24.0 28.436708860759467
25.0 31.436708860759467
25.8 34.136708860759484
26.5 37.23670886075948
27.2 39.23670886075948
28.0 40.53670886075949
29.0 41.43670886075947
30.0 44.73670886075948
30.7 48.83670886075947
31.5 51.43670886075947
32.5 53.43670886075947
33.5 54.93670886075947
34.5 55.83670886075947
35.5 55.83670886075947
36.5 57.73670886075948
37.5 59.636708860759484
38.7 61.23670886075948
40.0 62.93670886075947
41.2 64.43670886075948
42.5 66.03670886075948
43.7 67.53670886075949
45.0 68.9367088607595
46.2 70.43670886075947
47.5 71.83670886075947
48.7 73.33670886075949
50.0 75.03670886075949
51.5 75.13670886075948
53.0 75.83670886075949
54.5 76.73670886075948
56.0 77.53670886075949
58.0 78.33670886075949
60.0 79.23670886075948
61.5 80.13670886075948
63.0 80.93670886075948
65.0 81.63670886075948
67.0 82.13670886075948
69.0 82.53670886075949
71.0 82.93670886075947
73.0 83.13670886075948
75.0 83.23670886075948
77.5 83.23670886075948
80.0 83.23670886075948
82.5 83.23670886075948
85.0 83.23670886075948
87.5 83.23670886075948
90.0 83.33670886075949
92.5 83.33670886075949
95.0 83.33670886075949
97.5 83.43670886075948
100.0 83.43670886075948
103.0 83.33670886075949
106.0 83.13670886075948
109.0 82.93670886075947
112.0 82.63670886075948
115.0 82.43670886075948
118.0 82.23670886075948
122.0 82.03670886075948
125.0 81.83670886075947
128.0 81.63670886075948
132.0 81.4367088607595
136.0 81.33670886075949
140.0 81.13670886075948
145.0 81.03670886075948
150.0 80.93670886075948
155.0 80.83670886075949
160.0 80.73670886075948
165.0 80.63670886075948
170.0 80.53670886075948
175.0 80.43670886075947
180.0 80.23670886075948
185.0 80.03670886075949
190.0 79.73670886075948
195.0 79.33670886075947
200.0 79.13670886075948
206.0 79.33670886075947
212.0 79.63670886075948
218.0 79.93670886075948
224.0 80.13670886075948
230.0 80.23670886075948
236.0 80.23670886075948
240.0 80.03670886075949
250.0 79.63670886075948
258.0 79.33670886075947
265.0 79.13670886075948
272.0 78.83670886075949
280.0 78.63670886075948
290.0 78.43670886075948
300.0 78.23670886075948
307.0 78.13670886075948
315.0 78.13670886075948
325.0 78.23670886075948
335.0 78.53670886075948
345.0 78.9367088607595
355.0 79.23670886075948
365.0 79.33670886075947
375.0 79.33670886075947
387.0 79.13670886075948
400.0 78.73670886075948
412.0 78.23670886075948
425.0 77.93670886075947
437.0 78.23670886075948
450.0 78.83670886075949
462.0 79.33670886075947
475.0 79.53670886075948
487.0 79.43670886075948
500.0 79.03670886075946
515.0 78.53670886075948
530.0 78.33670886075949
545.0 78.73670886075948
560.0 79.43670886075948
580.0 80.13670886075948
600.0 80.3367088607595
615.0 80.03670886075949
630.0 79.43670886075948
650.0 79.23670886075948
670.0 79.23670886075948
690.0 79.33670886075947
710.0 79.33670886075947
730.0 79.23670886075948
750.0 79.43670886075948
775.0 79.83670886075949
800.0 80.03670886075949
825.0 79.63670886075948
850.0 78.83670886075949
875.0 78.43670886075948
900.0 78.73670886075948
925.0 78.9367088607595
950.0 79.33670886075947
975.0 79.63670886075948
1000.0 79.63670886075948
1030.0 79.93670886075948
1060.0 80.43670886075947
1090.0 80.93670886075948
1120.0 80.43670886075947
1150.0 79.33670886075947
1180.0 78.83670886075949
1220.0 78.53670886075948
1250.0 78.13670886075948
1280.0 78.33670886075949
1320.0 78.43670886075948
1360.0 79.23670886075948
1400.0 79.53670886075948
1450.0 77.8367088607595
1500.0 77.43670886075948
1550.0 77.23670886075948
1600.0 76.83670886075947
1650.0 77.8367088607595
1700.0 77.63670886075948
1750.0 77.93670886075947
1800.0 78.03670886075948
1850.0 78.53670886075948
1900.0 79.23670886075948
1950.0 78.83670886075949
2000.0 77.43670886075948
2060.0 76.73670886075948
2120.0 75.93670886075948
2180.0 75.83670886075949
2240.0 75.83670886075949
2300.0 77.63670886075948
2360.0 79.63670886075948
2400.0 80.73670886075948
2500.0 79.73670886075948
2580.0 79.43670886075948
2650.0 79.63670886075948
2720.0 80.3367088607595
2800.0 80.03670886075949
2900.0 79.43670886075948
3000.0 77.13670886075948
3070.0 77.03670886075948
3150.0 78.33670886075949
3250.0 79.03670886075946
3350.0 78.73670886075948
3450.0 78.73670886075948
3550.0 78.43670886075948
3650.0 78.73670886075948
3750.0 78.53670886075948
3870.0 78.83670886075949
4000.0 78.63670886075948
4120.0 79.53670886075948
4250.0 79.63670886075948
4370.0 78.53670886075948
4500.0 78.53670886075948
4620.0 78.03670886075948
4750.0 79.13670886075948
4870.0 80.53670886075948
5000.0 81.13670886075948
5150.0 81.13670886075948
5300.0 80.3367088607595
5450.0 78.53670886075948
5600.0 78.63670886075948
5800.0 78.03670886075948
6000.0 78.23670886075948
6150.0 77.63670886075948
6300.0 77.73670886075948
6500.0 78.73670886075948
6700.0 79.63670886075948
6900.0 79.83670886075949
7100.0 80.13670886075948
7300.0 79.53670886075948
7500.0 79.03670886075946
7750.0 78.63670886075948
8000.0 79.33670886075947
8250.0 80.03670886075949
8500.0 81.63670886075948
8750.0 81.93670886075948
9000.0 80.73670886075948
9250.0 78.63670886075948
9500.0 79.23670886075948
9750.0 82.13670886075948
10000.0 81.33670886075949
10300.0 81.83670886075947
10600.0 81.83670886075947
10900.0 81.93670886075948
11200.0 84.53670886075948
11500.0 83.43670886075948
11800.0 82.53670886075949
12200.0 81.73670886075948
12500.0 80.03670886075949
12800.0 77.8367088607595
13200.0 79.33670886075947
13600.0 79.03670886075946
14000.0 78.53670886075948
14500.0 77.8367088607595
15000.0 77.03670886075948
15500.0 75.63670886075948
16000.0 74.13670886075948
16500.0 81.83670886075947
17000.0 77.03670886075948
17500.0 76.13670886075948
18000.0 79.33670886075947
18500.0 76.33670886075949
19000.0 73.13670886075948
19500.0 73.13670886075948
