Freq "Floor Bounce"
22.4 31.137527773000258
23.0 33.73752777300028
23.6 36.73752777300028
24.0 38.098974451309246
25.0 38.765888460596855
25.8 39.39897445130926
26.5 38.527587192835924
27.2 38.26096514237183
28.0 40.38982856673472
29.0 41.52349685065978
30.0 42.6865664631125
30.7 44.37977745790566
31.5 47.279777457905695
32.5 50.544157749348514
33.5 54.209064300159824
34.5 57.83964531976001
35.5 60.805318067664686
36.5 63.07150800786938
37.5 65.30531806766471
38.7 67.4404416794549
40.0 69.4053180676647
41.2 71.50906430015984
42.5 73.20906430015982
43.7 74.64415774934851
45.0 76.07977745790569
46.2 77.37977745790569
47.5 78.71592692226706
48.7 79.71592692226706
50.0 80.58656646311248
51.5 81.45260953202218
53.0 82.35260953202219
54.5 83.21592692226707
56.0 84.07977745790568
58.0 84.97977745790568
60.0 86.0441577493485
61.5 87.07449351030438
63.0 87.9404416794549
65.0 88.87449351030438
67.0 89.7744935103044
69.0 90.6098662867233
71.0 91.37609175449221
73.0 92.2457671943847
75.0 92.98219967332305
77.5 93.58219967332303
80.0 94.28219967332306
82.5 94.78219967332305
85.0 95.21227178315618
87.5 95.4122717831562
90.0 95.4122717831562
92.5 95.21227178315618
95.0 94.81227178315618
97.5 94.35260953202217
100.0 93.81916705502753
103.0 93.48982856673473
106.0 93.18982856673472
109.0 93.08982856673472
112.0 93.08982856673472
115.0 93.08982856673472
118.0 92.98982856673473
122.0 92.88982856673472
125.0 92.62758719283593
128.0 92.33752777300026
132.0 92.0096325668162
136.0 91.70963256681621
140.0 91.38219812790055
145.0 91.04898359150842
150.0 90.64898359150843
155.0 90.12179738688896
160.0 89.62179738688896
165.0 89.56194867563767
170.0 89.83546263134683
175.0 90.23546263134682
180.0 90.53546263134683
185.0 90.67641629732151
190.0 90.50942248426018
195.0 90.25062128010363
200.0 90.02526453928849
206.0 89.82526453928848
212.0 89.75062128010364
218.0 89.82526453928848
224.0 89.86726558859611
230.0 89.86726558859611
236.0 89.74258273663015
240.0 89.54258273663014
250.0 89.34258273663016
258.0 89.08538710465898
265.0 88.7183254418497
272.0 88.26136837622765
280.0 87.80497668676807
290.0 87.58161208533421
300.0 87.8145789575331
307.0 88.18161208533421
315.0 88.4586572401787
325.0 88.70330383828929
335.0 88.68098490550679
345.0 88.50473949550548
355.0 88.27695775614914
365.0 87.8844476236301
375.0 87.46322504785601
387.0 87.2765534603207
400.0 87.22790007353127
412.0 87.1022520696168
425.0 86.62638463906274
437.0 85.95299799878154
450.0 85.48201452057556
462.0 84.98397949702586
475.0 84.16534188731522
487.0 83.56644862347794
500.0 82.62451222983246
515.0 81.57090653812116
530.0 80.97693080019971
545.0 80.34610209921529
560.0 80.36506011325959
580.0 80.74302103107541
600.0 81.09810190657838
615.0 81.24027118697524
630.0 82.11398956374131
650.0 83.32966772555959
670.0 84.56795072971059
690.0 85.57867966705477
710.0 86.42536375559062
730.0 86.78821631719208
750.0 87.11851145389801
775.0 87.35472443693179
800.0 88.03638088039143
825.0 89.20962074754836
850.0 90.1888837796346
875.0 90.87244660678603
900.0 90.83183881345316
925.0 90.5904606009204
950.0 90.57857832215102
975.0 90.56826674204795
1000.0 90.41213611976862
1030.0 90.18888547155002
1060.0 89.89506458035831
1090.0 89.37584607527147
1120.0 88.5361070797735
1150.0 87.10921140720403
1180.0 85.87695775614917
1220.0 85.77245249207645
1250.0 85.47245249207646
1280.0 84.52154865751024
1320.0 84.2231203439938
1360.0 84.8467871964985
1400.0 85.34915203998831
1450.0 85.20982855556757
1500.0 84.68407681298943
1550.0 84.61912930458361
1600.0 85.53049587637973
1650.0 85.88888377963458
1700.0 86.36226044405475
1750.0 86.39188145404553
1800.0 86.29913536951436
1850.0 86.38407681298943
1900.0 86.87035193787354
1950.0 87.24090753602631
2000.0 87.96620989389217
2060.0 88.6625132206552
2120.0 88.89727311966745
2180.0 88.8412305303684
2240.0 88.65905592381314
2300.0 87.84882433806493
2360.0 86.96072651529057
2400.0 86.17700161453513
2500.0 85.23804772319075
2580.0 85.61981943961739
2650.0 85.1148708551686
2720.0 85.12380429492318
2800.0 85.05269579506134
2900.0 85.06174268592247
3000.0 85.19365387530114
3070.0 85.14827552839256
3150.0 85.43049587637972
3250.0 85.17584607527147
3350.0 85.68219671845802
3450.0 85.13639559608384
3550.0 85.12303060258374
3650.0 84.75791897084481
3750.0 84.83657123656859
3870.0 85.17286790912905
4000.0 85.84337028810793
4120.0 86.18346763951381
4250.0 86.77871447131493
4370.0 87.19430017477815
4500.0 86.70879341872707
4620.0 86.43088317154636
4750.0 86.4396160490764
4870.0 86.38988317511374
5000.0 86.27944802079098
5150.0 87.70274274418537
5300.0 88.70844439650682
5450.0 88.30870389637978
5600.0 87.55959385611935
5800.0 86.45655353025553
6000.0 86.24714456959119
6150.0 86.60141428554171
6300.0 86.51682493652957
6500.0 86.21906209763623
6700.0 85.54583140390199
6900.0 84.85463624332226
7100.0 84.7236262000267
7300.0 84.66112198786006
7500.0 84.61102546115588
7750.0 86.10018750585743
8000.0 86.25374816470483
8250.0 87.27640124428997
8500.0 86.91224949657776
8750.0 87.11949066074608
9000.0 87.23574393777254
9250.0 86.91125159582658
9500.0 86.19472217650473
9750.0 85.8692144778937
10000.0 85.52844657579128
10300.0 85.5236262000267
10600.0 85.7723238639022
10900.0 84.68123660209812
11200.0 84.61209519796076
11500.0 82.20661761538491
11800.0 79.97737589849775
12200.0 75.78915630129642
12500.0 81.22585044351924
12800.0 82.71903234364801
13200.0 82.18836433477439
13600.0 86.51845254529691
14000.0 88.68161208533421
14500.0 86.17083383381352
15000.0 94.09003455309984
15500.0 79.19971333848831
16000.0 79.93741786327003
16500.0 76.91111818142375
17000.0 84.44482181533935
17500.0 79.59262503149147
18000.0 81.08817100851729
18500.0 83.89284775179796
19000.0 72.5658089407434
19500.0 67.3214570384565
