Freq "Listening Window"
22.4 38.95679526888203
23.0 36.879638940431576
23.6 32.73868904918389
24.0 30.880710073928427
25.0 31.943045419678256
25.8 34.286371778985185
26.5 36.65185609659376
27.2 44.43431541973821
28.0 49.47081401661082
29.0 52.65235595599323
30.0 55.88294392517962
30.7 59.38294392517962
31.5 61.671928260670015
32.5 63.90489758867351
33.5 67.61510121126098
34.5 69.92600804892638
35.5 71.8469817541106
36.5 74.75730499099326
37.5 76.62371712004254
38.7 78.89038509576201
40.0 81.95731085877836
41.2 83.790385095762
42.5 86.9234632446015
43.7 89.27887533776817
45.0 90.85679526888204
46.2 92.45679526888203
47.5 93.72397098064364
48.7 94.513059019467
50.0 95.40238064076269
51.5 95.98041421812428
53.0 96.60264790948088
54.5 96.97016393074001
56.0 97.281696768389
58.0 97.56988880456382
60.0 97.79293730140067
61.5 97.90468284946759
63.0 97.94983573304201
65.0 97.94983573304201
67.0 97.97380367158111
69.0 97.74135525761497
71.0 97.24502198031365
73.0 96.88434129312543
75.0 96.24429681356172
77.5 95.38843174105521
80.0 94.67459004885785
82.5 93.91596893709915
85.0 94.03347339531034
87.5 94.85513877014898
90.0 95.74761882628547
92.5 96.29832893620159
95.0 96.74694044848717
97.5 96.36332206203787
100.0 95.64743309454616
103.0 95.68492264380231
106.0 95.95953653218277
109.0 96.5238431817831
112.0 97.0975039923954
115.0 97.47466430376879
118.0 97.93297962524473
122.0 97.19082251291492
125.0 96.15635142485576
128.0 95.37913075349378
132.0 94.76932073012414
136.0 94.30194181264248
140.0 94.29255107404497
145.0 94.52613655576687
150.0 94.73490602440896
155.0 94.80633679558754
160.0 94.63349000420973
165.0 94.419296720266
170.0 94.34490207798429
175.0 94.39525595631021
180.0 94.52600967928052
185.0 94.54589228179164
190.0 94.42657385636387
195.0 94.12707572056188
200.0 93.57161167204258
206.0 92.90218451151372
212.0 92.48991456352617
218.0 92.51566893450962
224.0 92.72632641508945
230.0 92.86091427918541
236.0 92.90770754686758
240.0 92.712917048232
250.0 92.29612356907577
258.0 92.04541006726281
265.0 92.321323553672
272.0 92.6443205503811
280.0 92.61695877283181
290.0 92.40105342650217
300.0 91.91505854740987
307.0 89.08931178484733
315.0 87.56660192703062
325.0 89.87012250402293
335.0 90.15419753834941
345.0 89.92479502889599
355.0 89.43422866051233
365.0 89.46517168187172
375.0 90.83359309370682
387.0 90.8784626933902
400.0 91.00459638144005
412.0 90.45504162303239
425.0 89.0441208567586
437.0 87.66195624409033
450.0 85.41110060412248
462.0 78.94872479313196
475.0 90.22822184371631
487.0 92.15956654809894
500.0 89.18206669129351
515.0 86.60621094021367
530.0 84.71767213260755
545.0 81.58367813430561
560.0 88.91931547577363
580.0 90.03100223713619
600.0 87.61126107768887
615.0 85.43821098239881
630.0 84.20584560368398
650.0 83.02362049477263
670.0 83.174210043116
690.0 84.02406149788752
710.0 85.02110452930867
730.0 85.37919705987
750.0 85.3598260967576
775.0 83.15931289995741
800.0 82.02941899456978
825.0 81.74646017897321
850.0 84.1567664251019
875.0 84.40404941402376
900.0 87.47378214433772
925.0 87.37186306372168
950.0 86.56952126404737
975.0 84.80294488195575
1000.0 84.59770476986048
1030.0 87.78537003295372
1060.0 87.91961901256057
1090.0 87.39381875002324
1120.0 87.85897012219007
1150.0 87.0361330620337
1180.0 86.57451015766269
1220.0 85.94299869077722
1250.0 86.12365481192818
1280.0 86.67917797190715
1320.0 86.41521638664729
1360.0 85.76400252345468
1400.0 85.05755410375578
1450.0 84.115265269441
1500.0 83.08551606981783
1550.0 83.64884746556324
1600.0 84.58690592500183
1650.0 85.47502014975684
1700.0 84.31071125818416
1750.0 85.1472501153562
1800.0 84.6413302997852
1850.0 84.20509346559751
1900.0 85.80911460755449
1950.0 85.92194683810479
2000.0 86.12215927309782
2060.0 85.7459634001119
2120.0 85.84367917820788
2180.0 85.474122993498
2240.0 83.4088059290781
2300.0 82.50363198255123
2360.0 84.03623088092401
2400.0 85.61574788333834
2500.0 87.2943029072199
2580.0 86.73038567721498
2650.0 86.16544298820327
2720.0 86.23346409948998
2800.0 87.10620971970226
2900.0 87.12361484990896
3000.0 85.69923782100044
3070.0 84.57132616727283
3150.0 85.27431253821871
3250.0 84.92861857266517
3350.0 86.04332224269022
3450.0 86.18949577814443
3550.0 85.15177008332476
3650.0 84.15801820925165
3750.0 85.05657704353958
3870.0 86.63436599831401
4000.0 86.98950654568416
4120.0 84.24921084641528
4250.0 84.87214686984476
4370.0 88.55757547303793
4500.0 88.42699303338578
4620.0 86.60998129465841
4750.0 89.15326526092903
4870.0 87.04449349142567
5000.0 84.63919402868446
5150.0 85.48150595004768
5300.0 84.985084634876
5450.0 85.03654072581084
5600.0 84.20150040160276
5800.0 84.63162735890909
6000.0 84.69647456988203
6150.0 85.36690196124118
6300.0 84.34856166648015
6500.0 82.56511387647895
6700.0 86.26014462008047
6900.0 87.01487931784723
7100.0 86.18363958035519
7300.0 86.18464112060248
7500.0 85.37209518634744
7750.0 83.59063987902213
8000.0 81.32845261901065
8250.0 84.58529695066547
8500.0 86.37559981658374
8750.0 88.57831465559453
9000.0 87.66340341685637
9250.0 87.18422463496827
9500.0 87.5308941501948
9750.0 88.98829031229049
10000.0 88.44426156713992
10300.0 85.95221336475777
10600.0 86.52061588030095
10900.0 87.9245850478616
11200.0 88.05155874035249
11500.0 87.38507964441011
11800.0 92.34131390761124
12200.0 92.38136459247109
12500.0 90.24328787734898
12800.0 85.86989926150855
13200.0 87.86443506080333
13600.0 91.68702003230698
14000.0 86.1073391576746
14500.0 83.50645979949648
15000.0 76.67759765570426
15500.0 82.13622219754176
16000.0 87.8113029808022
16500.0 79.63316326551727
17000.0 73.55048145764809
17500.0 74.53498035800115
18000.0 73.4785731585123
18500.0 73.28545654250401
19000.0 66.92258684347301
19500.0 65.98176302762941
