Freq "On Axis"
22.4 38.98987341772154
23.0 36.889873417721546
23.6 32.78987341772152
24.0 31.089873417721535
25.0 32.089873417721535
25.8 34.389873417721546
26.5 36.78987341772152
27.2 44.589873417721535
28.0 49.589873417721535
29.0 52.68987341772153
30.0 55.889873417721546
30.7 59.389873417721546
31.5 61.68987341772153
32.5 63.88987341772153
33.5 67.58987341772153
34.5 69.88987341772152
35.5 71.78987341772154
36.5 74.68987341772153
37.5 76.58987341772153
38.7 78.78987341772152
40.0 81.88987341772153
41.2 83.78987341772152
42.5 86.88987341772153
43.7 89.28987341772154
45.0 90.78987341772154
46.2 92.48987341772154
47.5 93.78987341772152
48.7 94.58987341772153
50.0 95.38987341772153
51.5 95.98987341772154
53.0 96.58987341772153
54.5 96.98987341772154
56.0 97.28987341772155
58.0 97.58987341772153
60.0 97.78987341772154
61.5 97.88987341772153
63.0 97.88987341772153
65.0 97.88987341772153
67.0 97.88987341772153
69.0 97.58987341772153
71.0 97.08987341772153
73.0 96.68987341772153
75.0 96.08987341772153
77.5 95.18987341772153
80.0 94.38987341772153
82.5 93.58987341772153
85.0 93.68987341772153
87.5 94.48987341772154
90.0 95.38987341772153
92.5 95.98987341772154
95.0 96.48987341772154
97.5 96.08987341772153
100.0 95.38987341772153
103.0 95.48987341772154
106.0 95.68987341772153
109.0 96.18987341772153
112.0 96.78987341772154
115.0 97.08987341772153
118.0 97.38987341772152
122.0 96.88987341772153
125.0 96.08987341772153
128.0 95.58987341772153
132.0 95.18987341772153
136.0 94.88987341772152
140.0 94.78987341772155
145.0 94.88987341772152
150.0 94.88987341772152
155.0 94.88987341772152
160.0 94.68987341772153
165.0 94.58987341772153
170.0 94.48987341772154
175.0 94.58987341772153
180.0 94.78987341772155
185.0 94.78987341772155
190.0 94.68987341772153
195.0 94.38987341772153
200.0 93.88987341772153
206.0 93.18987341772153
212.0 92.68987341772153
218.0 92.68987341772153
224.0 92.88987341772153
230.0 92.98987341772154
236.0 93.08987341772153
240.0 92.78987341772154
250.0 92.38987341772152
258.0 92.08987341772153
265.0 92.28987341772155
272.0 92.58987341772153
280.0 92.58987341772153
290.0 92.28987341772155
300.0 91.78987341772154
307.0 88.98987341772154
315.0 87.48987341772154
325.0 89.78987341772155
335.0 90.08987341772153
345.0 89.78987341772155
355.0 89.38987341772153
365.0 89.38987341772153
375.0 90.68987341772153
387.0 90.68987341772153
400.0 90.78987341772154
412.0 90.08987341772153
425.0 88.68987341772153
437.0 87.38987341772152
450.0 85.18987341772153
462.0 78.78987341772152
475.0 90.08987341772153
487.0 91.88987341772153
500.0 88.78987341772152
515.0 85.98987341772154
530.0 83.58987341772153
545.0 79.98987341772154
560.0 86.68987341772153
580.0 87.38987341772152
600.0 84.38987341772153
615.0 82.18987341772153
630.0 81.38987341772153
650.0 81.28987341772152
670.0 82.58987341772153
690.0 83.98987341772154
710.0 85.08987341772153
730.0 85.28987341772154
750.0 84.78987341772155
775.0 82.18987341772153
800.0 81.28987341772152
825.0 81.78987341772154
850.0 84.88987341772152
875.0 85.78987341772154
900.0 89.18987341772153
925.0 89.18987341772153
950.0 88.38987341772155
975.0 86.68987341772153
1000.0 86.48987341772154
1030.0 89.58987341772153
1060.0 89.48987341772154
1090.0 88.78987341772152
1120.0 89.08987341772153
1150.0 88.28987341772154
1180.0 87.68987341772153
1220.0 87.68987341772153
1250.0 87.88987341772153
1280.0 87.68987341772153
1320.0 86.68987341772153
1360.0 85.28987341772154
1400.0 83.38987341772155
1450.0 82.68987341772153
1500.0 81.38987341772153
1550.0 78.48987341772154
1600.0 76.98987341772154
1650.0 78.48987341772154
1700.0 81.48987341772154
1750.0 82.58987341772153
1800.0 83.78987341772152
1850.0 83.28987341772154
1900.0 84.38987341772153
1950.0 84.38987341772153
2000.0 83.28987341772154
2060.0 82.88987341772153
2120.0 82.98987341772154
2180.0 85.38987341772153
2240.0 84.18987341772153
2300.0 82.48987341772154
2360.0 83.48987341772154
2400.0 85.08987341772153
2500.0 85.48987341772154
2580.0 85.58987341772153
2650.0 86.18987341772153
2720.0 86.08987341772153
2800.0 86.18987341772153
2900.0 85.98987341772154
3000.0 84.98987341772154
3070.0 83.58987341772153
3150.0 84.58987341772153
3250.0 83.48987341772154
3350.0 84.28987341772154
3450.0 87.38987341772152
3550.0 87.38987341772152
3650.0 87.18987341772153
3750.0 86.88987341772153
3870.0 88.18987341772153
4000.0 89.38987341772153
4120.0 87.18987341772153
4250.0 86.48987341772154
4370.0 89.18987341772153
4500.0 85.98987341772154
4620.0 83.68987341772153
4750.0 86.08987341772153
4870.0 86.08987341772153
5000.0 82.28987341772155
5150.0 83.88987341772153
5300.0 84.18987341772153
5450.0 83.78987341772152
5600.0 84.68987341772153
5800.0 85.08987341772153
6000.0 84.48987341772154
6150.0 83.68987341772153
6300.0 76.58987341772153
6500.0 70.88987341772155
6700.0 77.88987341772153
6900.0 83.08987341772153
7100.0 83.38987341772155
7300.0 85.18987341772153
7500.0 84.08987341772153
7750.0 81.98987341772154
8000.0 75.18987341772153
8250.0 73.58987341772153
8500.0 85.98987341772154
8750.0 87.68987341772153
9000.0 87.68987341772153
9250.0 81.58987341772153
9500.0 65.78987341772154
9750.0 86.18987341772153
10000.0 87.28987341772155
10300.0 86.48987341772154
10600.0 86.08987341772153
10900.0 80.68987341772153
11200.0 69.38987341772153
11500.0 83.58987341772153
11800.0 89.68987341772153
12200.0 92.58987341772153
12500.0 91.38987341772153
12800.0 87.08987341772153
13200.0 82.28987341772155
13600.0 88.58987341772153
14000.0 82.78987341772154
14500.0 74.18987341772153
15000.0 71.78987341772154
15500.0 75.88987341772155
16000.0 88.58987341772153
16500.0 73.88987341772153
17000.0 71.58987341772153
17500.0 75.98987341772154
18000.0 74.58987341772153
18500.0 75.48987341772154
19000.0 67.18987341772153
19500.0 68.38987341772155
