Freq,On Axis,Listening Window,Sound Power,Early Reflections,Early Reflections DI,Sound Power DI,DI offset
22.4,31.000000000000014,34.85327345694951,31.75105049512969,33.65266318774711,41.2006102692024,43.10222296181982,40
23.0,33.8,38.075552711863324,34.82646326310943,36.714553335349805,41.36099937651352,43.24908944875389,40
23.6,36.8,41.62875264530932,38.20961697866129,40.07690924334277,41.55184340196655,43.41913566664803,40
24.0,39.000000000000014,44.43872043206365,40.80546362819963,42.679875709302635,41.75884472276101,43.633256803864015,40
25.0,40.3,46.398322202438365,42.524084299196986,44.36834864695906,42.0299735554793,43.87423790324138,40
25.8,41.500000000000014,48.28885225294239,44.1363417382491,45.9503616691933,42.33849058374909,44.15251051469329,40
26.5,42.39999999999999,49.56171975801179,45.25663162948088,46.973586942731615,42.588132815280176,44.30508812853091,40
27.2,43.000000000000014,49.694118211133045,45.64816567705917,47.18231748822613,42.51180072290691,44.04595253407388,40
28.0,43.39999999999999,48.906135143355115,45.42768481230668,46.6130237926789,42.29311135067621,43.478450331048435,40
29.0,44.10000000000001,48.26534884300882,45.425197493816725,46.27252330633159,41.99282553667723,42.8401513491921,40
30.0,45.10000000000001,47.86230919845839,45.65372947716246,46.20687107546961,41.655438122988784,42.20857972129593,40
30.7,46.500000000000014,48.11893235237365,46.37637901647402,46.7629979467698,41.35593440560385,41.74255333589963,40
31.5,48.39999999999999,49.19075097857906,47.78215890997062,48.089406513315126,41.101344465263935,41.40859206860844,40
32.5,50.60000000000001,50.76038606008727,49.62101718120964,49.930684059896194,40.82970200019108,41.13936887887763,40
33.5,52.8,52.58401020365308,51.611734460756836,51.951574465383786,40.632435738269294,40.972275742896244,40
34.5,54.89999999999999,54.46414212387192,53.5962446336154,53.97613713658576,40.48800498728616,40.867897490256524,40
35.5,56.89999999999999,56.335939042361744,55.50550183146548,55.940798578850675,40.39514046351107,40.830437210896264,40
36.5,58.8,58.15553937342882,57.29942032153191,57.784931302769294,40.37060807065953,40.85611905189691,40
37.5,60.39999999999999,59.813460280532595,58.95537936148669,59.508251295525,40.305208985007596,40.858080919045904,40
38.7,62.0,61.4714629016576,60.508605980132444,61.09792126750767,40.37354163414993,40.96285692152516,40
40.0,63.39999999999999,62.941533015982486,61.91244809670977,62.54575099640681,40.39578201957568,41.02908491927272,40
41.2,64.6,64.33924310578014,63.216645794435934,63.876414793782885,40.46282831199726,41.12259731134421,40
42.5,66.0,65.83246516061384,64.60223155392812,65.30602655657198,40.52643860404186,41.230233606685715,40
43.7,67.8,67.72703074869749,66.38466632685767,67.11334893779973,40.61368181089776,41.34236442183982,40
45.0,68.9,68.96734935739185,67.52969485663719,68.28075503649005,40.686594320901804,41.43765450075466,40
46.2,69.7,69.81327826729655,68.31497000512128,69.07836976722426,40.734908500072294,41.49830826217527,40
47.5,70.7,70.8243912874834,69.27705163743936,70.03553312158243,40.78885816590096,41.54733965004404,40
48.7,71.59999999999998,71.67557703621922,70.10926001305914,70.86253479905515,40.81304223716407,41.56631702316008,40
50.0,72.4,72.41843319662954,70.86606201632418,71.60889335917479,40.80953983745475,41.55237118030536,40
51.5,73.1,73.121802647194,71.5713575315094,72.30859830759775,40.813204339596254,41.550445115684596,40
53.0,73.9,73.82015943893413,72.30325696125567,73.01529900400514,40.80486043492898,41.51690247767846,40
54.5,74.7,74.57457595938877,73.09384737563799,73.8105792297672,40.76399672962157,41.480728583750775,40
56.0,75.6,75.41838488247163,73.96010735256354,74.67503675909323,40.7433481233784,41.45827752990809,40
58.0,76.50000000000001,76.36223924702028,74.96503286237234,75.66772345917799,40.69451578784229,41.397206384647944,40
60.0,77.90000000000002,77.73843522821144,76.36374355924202,77.06771712189877,40.67071810631268,41.37469166896942,40
61.5,79.09999999999998,78.98078628768829,77.5776277928191,78.28077390561087,40.70001238207742,41.40315849486919,40
63.0,80.10000000000001,79.93512468018193,78.54375499966073,79.24894872676177,40.68617595342016,41.391369680521194,40
65.0,81.0,80.88977136039706,79.5010539093939,80.20175170004525,40.68801966035181,41.38871745100316,40
67.0,82.0,81.91173585711586,80.51055708493674,81.21125719261214,40.70047866450372,41.40117877217912,40
69.0,82.99999999999999,82.90051167804049,81.49724885041151,82.18809293428062,40.71241874375987,41.40326282762898,40
71.0,83.8,83.76768347817135,82.40312680609453,83.09024393705307,40.677439541118275,41.364556672076816,40
73.0,84.7,84.64549447919879,83.26211854256933,83.94359532012545,40.701899159073335,41.38337593662946,40
75.0,85.49999999999999,85.41199695642737,84.0582149086272,84.72960538299111,40.68239157343626,41.353782047800166,40
77.5,86.2,86.17925578640906,84.87357948460597,85.53086521333731,40.64839057307175,41.30567630180309,40
80.0,86.8,86.7454944791988,85.43928375816357,86.09641391525066,40.64908056394813,41.30621072103523,40
82.5,87.1,87.0454944791988,85.76589818160964,86.41499033514305,40.63050414405575,41.27959629758915,40
85.0,87.4,87.33409756292211,86.04719930355692,86.70988051864525,40.62421704427686,41.28689825936519,40
87.5,87.5,87.4340975629221,86.1526253970262,86.81138453559127,40.62271302733083,41.281472165895906,40
90.0,87.4,87.38977136039705,86.09616141195902,86.7584449874203,40.631326372976744,41.29360994843803,40
92.5,87.2,87.18977136039705,85.87527536613165,86.54563769499067,40.64413366540637,41.3144959942654,40
95.0,86.89999999999999,86.84549447919879,85.52167531118268,86.20017998534173,40.64531449385706,41.323819168016115,40
97.5,86.59999999999998,86.56768347817136,85.2171770896538,85.90078943840624,40.666894039765126,41.35050638851756,40
100.0,86.50000000000001,86.42419779300914,85.02504478708953,85.71427844431825,40.70991934869089,41.399153005919615,40
103.0,86.4,86.33588639966173,84.9017879686882,85.5955075099665,40.740378889695236,41.434098430973535,40
106.0,86.50000000000001,86.34727862872393,84.88356900033955,85.59501587478306,40.75226275394087,41.46370962838438,40
109.0,86.59999999999998,86.44727862872392,84.96083014091379,85.6830430181994,40.76423561052452,41.48644848781014,40
112.0,86.7,86.55917581404756,85.03596660674678,85.76184569720161,40.797330116845956,41.52320920730078,40
115.0,86.8,86.62647644578222,85.04861324255309,85.78180233737997,40.844674108402245,41.57786320322913,40
118.0,86.8,86.60458656127427,84.96011308430839,85.7365053569667,40.86808120430757,41.644473476965885,40
122.0,86.7,86.50458656127425,84.8007257259688,85.6058231328511,40.89876342842315,41.70386083530545,40
125.0,86.59999999999998,86.40458656127427,84.60692001071517,85.45307159732438,40.95151496394989,41.7976665505591,40
128.0,86.4,86.24928032556396,84.34884864556177,85.25411757483808,40.99516275072588,41.900431680002185,40
132.0,86.3,86.12647644578222,84.10954825231495,85.08485008452222,41.04162636126,42.016928193467265,40
136.0,86.2,86.04727862872393,83.88788931888946,84.94446994325175,41.10280868547218,42.15938930983447,40
140.0,86.0,85.93588639966171,83.71455311670209,84.83581927047189,41.100067129189824,42.22133328295962,40
145.0,85.9,85.83588639966172,83.59027105337154,84.75255838466863,41.083328014993086,42.24561534629018,40
150.0,85.7,85.76820498106379,83.60683219563298,84.74465936665591,41.02354561440788,42.161372785430814,40
155.0,85.6,85.68977733405315,83.65864240201198,84.73304474998633,40.95673258406681,42.03113493204117,40
160.0,85.6,85.56768347817138,83.65710370356734,84.66076259397673,40.90692088419465,41.91057977460403,40
165.0,85.40000000000002,85.37925578640908,83.55047520595683,84.50110260153816,40.87815318487091,41.828780580452246,40
170.0,85.2,85.12419779300913,83.30276509470917,84.21963150235071,40.90456629065842,41.82143269829996,40
175.0,84.9,84.74727862872392,82.87737546950638,83.7963526406378,40.95092598808611,41.86990315921754,40
180.0,84.39999999999999,84.20458656127427,82.13359979680514,83.1090712876733,41.09551527360097,42.070986764469126,40
185.0,83.6,83.40708482926708,81.05681947417419,82.1668923377179,41.24019249154918,42.35026535509289,40
190.0,82.8,82.48756720128135,79.80262325210036,81.08765460378024,41.399912597501114,42.68494394918099,40
195.0,81.7,81.42948833002333,78.46574896421748,79.88370039740077,41.54578793262256,42.96373936580585,40
200.0,80.6,80.32948833002334,77.25024020524302,78.74315039133084,41.586337938692495,43.07924812478032,40
206.0,80.3,80.00954282022788,76.84812034961273,78.37615008933845,41.633392730889426,43.16142247061515,40
212.0,81.1,80.82948833002334,77.60101909425704,79.16558007991871,41.663908250104626,43.2284692357663,40
218.0,82.60000000000001,82.29856891052,78.970785574923,80.60104852800838,41.69752038251163,43.327783335597005,40
224.0,83.9,83.60682938470806,80.12869992101956,81.85345818785957,41.75337119684849,43.478129463688504,40
230.0,84.7,84.52647038441901,80.91818618359736,82.74165321184626,41.78481717257276,43.60828420082166,40
236.0,85.0,84.86945253554453,81.19820878930275,83.08136473011123,41.78808780543329,43.67124374624177,40
240.0,84.9,84.73736819726655,81.10206891835561,82.9789177810738,41.758450416192744,43.635299278910935,40
250.0,84.6,84.46945253554452,80.8635927509511,82.72653991868235,41.74291261686217,43.60585978459342,40
258.0,84.39999999999999,84.24727259632452,80.66612560870179,82.5075113956614,41.739761200663125,43.58114698762273,40
265.0,84.3,84.04980404287099,80.38316275806768,82.21799658298814,41.83180745988285,43.666641284803305,40
272.0,84.3,83.94620561865003,79.86353268698745,81.86611711208779,42.080088506562234,44.08267293166257,40
280.0,84.3,83.95601393922506,79.44377339298106,81.71511670564249,42.24089723358257,44.512240546244,40
290.0,84.39999999999999,84.11752171595779,79.51227647446767,81.90680883605755,42.21071287990024,44.605245241490124,40
300.0,84.39999999999999,84.19454391774933,79.66644810586783,82.06760412327473,42.126939794474595,44.5280958118815,40
307.0,84.3,84.11502336890955,79.63775092802476,81.98415296095108,42.13087040795847,44.47727244088479,40
315.0,84.2,84.01553921841096,79.7033046905925,81.95592361762219,42.059615600788774,44.31223452781846,40
325.0,84.09999999999998,83.90483022867689,79.87563217799901,81.94664595079175,41.95818427788514,44.02919805067788,40
335.0,83.9,83.59460768463326,79.61130061143378,81.59899005232741,41.99561763230585,43.983307073199484,40
345.0,83.6,83.11245338582462,78.60416431305718,80.83622106831973,42.27623231750489,44.50828907276744,40
355.0,83.2,82.86543830861704,78.19720351007334,80.56822897742532,42.29720933119172,44.66823479854371,40
365.0,82.99999999999999,82.62335548732229,78.04823657004151,80.36552801357905,42.257827473743234,44.575118917280776,40
375.0,82.90000000000002,82.43022150815047,77.69780128162701,80.01569144124214,42.41453006690833,44.73242022652346,40
387.0,83.1,82.65068851505264,77.64879258653826,80.03632793428396,42.614360580768675,45.00189592851437,40
400.0,83.6,83.20228522505886,77.8222017892421,80.44941741062372,42.752867814435135,45.38008343581676,40
412.0,83.9,83.4421015642607,77.7116269237635,80.61948810143683,42.82261346282387,45.73047464049719,40
425.0,84.09999999999998,83.53090999560384,77.90552124326929,80.89609977838924,42.63481021721459,45.625388752334544,40
437.0,84.09999999999998,83.62456768900871,78.45683978298767,81.24463514372958,42.37993254527913,45.16772790602104,40
450.0,83.9,83.53637674082394,78.80760116217813,81.22619983818952,42.310176902634424,44.72877557864581,40
462.0,83.6,83.38704801837713,79.04150120781524,81.18907603963994,42.197971978737186,44.345546810561885,40
475.0,83.6,83.36543830861706,79.31960131673215,81.19758726240273,42.167851046214324,44.04583699188491,40
487.0,83.7,83.37269175359991,79.08794999292321,80.99229209798456,42.38039965561535,44.284741760676695,40
500.0,84.00000000000001,83.41593155292855,77.89250778193966,80.47554548316405,42.9403860697645,45.5234237709889,40
515.0,84.3,83.72956103244786,78.0206210798837,80.8010130694447,42.928547963003155,45.708939952564165,40
530.0,84.5,84.08363466601689,79.08614984107852,81.46060567727626,42.62302898874063,44.99748482493837,40
545.0,84.6,84.40946848348531,79.96363344488908,82.00848492022712,42.400983563258194,44.44583503859623,40
560.0,84.39999999999999,84.20080791560217,80.23342626999647,82.41274317785066,41.78806473775151,43.9673816456057,40
580.0,83.6,83.06498533102007,79.48684599694128,81.51255678074794,41.552428550272126,43.578139334078784,40
600.0,82.2,81.77130861244454,78.74511915246548,80.41678589013169,41.35452272231285,43.026189459979065,40
615.0,81.1,80.94622774629029,78.41111333845576,79.75236674540609,41.1938610008842,42.53511440783453,40
630.0,81.1,80.70127447342101,80.19055077795771,81.26248459422835,39.438789879192655,40.5107236954633,40
650.0,82.0,82.19675194213039,80.2613877459688,82.18405029463916,40.01270164749123,41.935364196161586,40
670.0,82.5,82.36683507859156,78.47207107201872,81.18450365952044,41.18233141907112,43.89476400657284,40
690.0,82.60000000000001,82.26470537109397,78.64503659341584,81.3301871920928,40.934518179001174,43.61966877767813,40
710.0,82.90000000000002,83.01032347642472,79.32622455033145,82.33472286492331,40.67560061150141,43.68409892609327,40
730.0,83.6,83.61386868933549,80.69392434509055,83.30921746814091,40.304651221194575,42.91994434424494,40
750.0,84.39999999999999,84.03964047293506,80.1352887617753,82.64685351480207,41.39278695813299,43.90435171115976,40
775.0,85.0,84.45323099967852,77.94656315617057,81.36978469326617,43.083446306412355,46.506667843507955,40
800.0,85.0,84.13025953898268,76.67441485536251,80.5162247911057,43.614034747876985,47.45584468362017,40
825.0,84.39999999999999,83.50546399020786,75.6129237350633,79.72855862749277,43.776905362715084,47.89254025514455,40
850.0,83.7,82.76529912500472,74.96217119230054,79.18158487780802,43.583714247196696,47.80312793270417,40
875.0,83.3,82.67689929342961,74.79729694211962,78.91523065605439,43.76166863737522,47.87960235131,40
900.0,82.90000000000002,82.33646775803804,74.28224015674216,78.48562373092204,43.850844027116,48.05422760129588,40
925.0,82.60000000000001,81.87791001391246,73.40463079448602,77.77250778484189,44.10540222907056,48.47327921942643,40
950.0,82.5,81.57689702434459,72.82702664210446,77.27148490376294,44.30541212058165,48.74987038224013,40
975.0,82.4,81.57675329916795,73.13727996873752,77.50625403432139,44.07049926484656,48.43947333043043,40
1000.0,82.60000000000001,81.88371485523776,73.8656969707548,77.96460406154415,43.919110793693605,48.01801788448296,40
1030.0,82.5,81.74581958239754,73.8189829049199,77.62891434596702,44.116905236430526,47.92683667747764,40
1060.0,82.4,81.40056487194217,73.59997212686153,77.27579755241419,44.124767319527976,47.800592745080635,40
1090.0,82.4,81.2237724919891,72.38547681898154,76.73476977211068,44.489002719878414,48.83829567300755,40
1120.0,82.7,81.51702983579754,72.16470555329853,76.66919124079054,44.847838595007005,49.35232428249901,40
1150.0,82.99999999999999,81.91153693970905,72.79186789405848,77.1295128217108,44.78202411799825,49.11966904565057,40
1180.0,83.1,82.00972587657458,73.12515306829785,77.29002077555351,44.71970510102106,48.88457280827673,40
1220.0,83.6,82.46752368393251,73.54512465903689,77.82960089797633,44.63792278595618,48.922399024895626,40
1250.0,84.00000000000001,82.8478447143209,74.20740205007924,78.42193979005982,44.425904924261076,48.64044266424166,40
1280.0,84.09999999999998,83.11678123554817,74.73470611493323,78.7255349474271,44.39124628812108,48.38207512061494,40
1320.0,84.2,83.3275564613656,75.10679844390005,78.7789190213136,44.548637440052005,48.220758017465556,40
1360.0,84.3,83.06385066670714,74.34686473349515,78.46006720813092,44.60378345857622,48.71698593321199,40
1400.0,84.39999999999999,83.2549006507975,74.06601384862797,78.43525915997921,44.819641490818285,49.18888680216952,40
1450.0,84.09999999999998,82.71277606680955,73.68026282244541,77.97754877412008,44.73522729268947,49.03251324436414,40
1500.0,84.00000000000001,82.58839099020881,73.83986230754374,78.01746261259287,44.57092837761594,48.74852868266507,40
1550.0,83.7,82.65141333545058,74.12404601520262,77.99864375822919,44.65276957722139,48.52736732024796,40
1600.0,83.4,82.26624788092629,74.21467070219622,77.95336905329758,44.31287882762871,48.05157717873007,40
1650.0,83.3,82.49264970958356,74.70236379045697,78.31082640785492,44.18182330172864,47.79028591912659,40
1700.0,83.5,82.63387612376306,74.71346830104409,78.39111279221211,44.24276333155095,47.92040782271897,40
1750.0,83.7,82.65790588316345,74.85600609370711,78.56995904593948,44.08794683722397,47.80189978945634,40
1800.0,83.7,83.1278199892643,75.62142578783097,79.22313550575485,43.90468448350944,47.506394201433324,40
1850.0,83.8,83.20857956435533,75.64396239087255,79.52429917508412,43.68428038927121,47.56461717348279,40
1900.0,83.7,83.02813099052173,75.64132686061636,79.28874418825275,43.73938680226898,47.38680412990537,40
1950.0,83.2,82.55746144923508,75.05778175703645,78.8756290615882,43.68183238764688,47.499679692198626,40
2000.0,82.5,82.27878085271773,74.86464756563973,78.47296386352919,43.80581698918854,47.414133287078,40
2060.0,82.0,81.96505141607858,75.20878817414271,78.33345517106031,43.63159624501827,46.75626324193587,40
2120.0,81.8,82.15228523322779,76.00849031789997,79.10475429811724,43.047530935110544,46.14379491532782,40
2180.0,82.4,82.09846916520756,75.87546329239512,79.21586997475019,42.88259919045737,46.223005872812436,40
2240.0,83.2,82.6328629279078,73.99639484105099,78.09736991855546,44.53549300935234,48.63646808685681,40
2300.0,83.5,82.508167123348,73.04625867585037,77.04905467770018,45.45911244564782,49.461908447497635,40
2360.0,83.6,82.35251543872282,72.96159223660779,76.69781465242605,45.65470078629677,49.39092320211503,40
2400.0,83.2,82.12835242875164,72.8856051237528,76.51796282942789,45.61038959932375,49.242747304998844,40
2500.0,82.60000000000001,81.29274261507766,71.92779123128844,75.64478347942233,45.64795913565533,49.36495138378922,40
2580.0,82.5,81.41080085327613,72.65040935180546,76.190111187755,45.220689665521135,48.760391501470664,40
2650.0,82.5,81.80308200544472,73.36971845096225,77.10636943959905,44.69671256584567,48.43336355448247,40
2720.0,82.8,82.24487100632896,73.80497925584177,77.83247909100145,44.41239191532752,48.43989175048719,40
2800.0,83.2,82.05487798460338,73.74788534328012,77.65772622190227,44.397151762701114,48.30699264132326,40
2900.0,83.4,82.3094188522761,73.67767874320049,77.99832062487752,44.311098227398574,48.63174010907561,40
3000.0,83.5,82.3823222512869,74.2680727894163,78.42393087686503,43.958391374421865,48.1142494618706,40
3070.0,83.3,82.69587446484547,74.6559501065235,78.61601292713209,44.079861537713384,48.03992435832197,40
3150.0,83.2,82.23561742602837,73.5769571974199,78.02493758613892,44.21067983988945,48.65866022860847,40
3250.0,83.2,81.66304147538644,72.86884956546312,77.41837694918722,44.244664526199216,48.79419190992331,40
3350.0,83.3,82.14393454991321,73.76793366995506,77.9786981727168,44.16523637719641,48.376000879958156,40
3450.0,83.4,82.6473251001742,73.95664835092755,78.4699129550259,44.177412145148296,48.69067674924665,40
3550.0,83.6,83.12882590440815,73.92530737517359,78.53058306146089,44.59824284294726,49.20351852923456,40
3650.0,84.00000000000001,83.79413671611438,74.75467044985734,79.0094505858871,44.784686130227286,49.03946626625704,40
3750.0,84.39999999999999,83.83508461126011,74.03407862159432,78.65404666319533,45.181037948064784,49.801005989665796,40
3870.0,84.8,84.19477104621066,74.44555007651687,79.01493783326985,45.17983321294081,49.749220969693795,40
4000.0,84.9,83.8708282334334,73.14819425083186,78.19145064452012,45.67937758891328,50.722633982601536,40
4120.0,84.6,82.94797393676875,72.76127168847799,77.47035936691081,45.477614569857934,50.18670224829076,40
4250.0,84.00000000000001,82.45946762193272,72.43694836111304,77.17714503098598,45.282322590946734,50.02251926081968,40
