Freq "On Axis"
22.4 30.999999999999986
23.0 33.8
23.6 36.8
24.0 38.999999999999986
25.0 40.3
25.8 41.499999999999986
26.5 42.39999999999999
27.2 42.999999999999986
28.0 43.39999999999999
29.0 44.10000000000001
30.0 45.10000000000001
30.7 46.499999999999986
31.5 48.39999999999999
32.5 50.60000000000001
33.5 52.8
34.5 54.89999999999999
35.5 56.89999999999999
36.5 58.8
37.5 60.39999999999999
38.7 62.0
40.0 63.39999999999999
41.2 64.60000000000001
42.5 66.00000000000001
43.7 67.8
45.0 68.89999999999999
46.2 69.7
47.5 70.7
48.7 71.6
50.0 72.40000000000002
51.5 73.1
53.0 73.89999999999999
54.5 74.7
56.0 75.6
58.0 76.5
60.0 77.9
61.5 79.1
63.0 80.1
65.0 81.00000000000001
67.0 82.0
69.0 83.0
71.0 83.8
73.0 84.7
75.0 85.5
77.5 86.2
80.0 86.8
82.5 87.10000000000001
85.0 87.40000000000002
87.5 87.49999999999999
90.0 87.40000000000002
92.5 87.2
95.0 86.9
97.5 86.6
100.0 86.5
103.0 86.39999999999999
106.0 86.5
109.0 86.6
112.0 86.7
115.0 86.8
118.0 86.8
122.0 86.7
125.0 86.6
128.0 86.39999999999999
132.0 86.3
136.0 86.2
140.0 86.00000000000001
145.0 85.9
150.0 85.7
155.0 85.6
160.0 85.6
165.0 85.4
170.0 85.2
175.0 84.90000000000002
180.0 84.4
185.0 83.59999999999998
190.0 82.8
195.0 81.7
200.0 80.6
206.0 80.3
212.0 81.09999999999998
218.0 82.6
224.0 83.89999999999999
230.0 84.7
236.0 84.99999999999999
240.0 84.90000000000002
250.0 84.60000000000001
258.0 84.4
265.0 84.3
272.0 84.3
280.0 84.3
290.0 84.4
300.0 84.4
307.0 84.3
315.0 84.2
325.0 84.1
335.0 83.89999999999999
345.0 83.59999999999998
355.0 83.2
365.0 83.0
375.0 82.9
387.0 83.1
400.0 83.59999999999998
412.0 83.89999999999999
425.0 84.1
437.0 84.1
450.0 83.89999999999999
462.0 83.59999999999998
475.0 83.59999999999998
487.0 83.7
500.0 84.0
515.0 84.3
530.0 84.5
545.0 84.60000000000001
560.0 84.4
580.0 83.59999999999998
600.0 82.2
615.0 81.09999999999998
630.0 81.09999999999998
650.0 82.0
670.0 82.49999999999999
690.0 82.6
710.0 82.9
730.0 83.59999999999998
750.0 84.4
775.0 84.99999999999999
800.0 84.99999999999999
825.0 84.4
850.0 83.7
875.0 83.3
900.0 82.9
925.0 82.6
950.0 82.49999999999999
975.0 82.40000000000002
1000.0 82.6
1030.0 82.49999999999999
1060.0 82.40000000000002
1090.0 82.40000000000002
1120.0 82.7
1150.0 83.0
1180.0 83.1
1220.0 83.59999999999998
1250.0 84.0
1280.0 84.1
1320.0 84.2
1360.0 84.3
1400.0 84.4
1450.0 84.1
1500.0 84.0
1550.0 83.7
1600.0 83.4
1650.0 83.3
1700.0 83.50000000000001
1750.0 83.7
1800.0 83.7
1850.0 83.8
1900.0 83.7
1950.0 83.2
2000.0 82.49999999999999
2060.0 82.0
2120.0 81.8
2180.0 82.40000000000002
2240.0 83.2
2300.0 83.50000000000001
2360.0 83.59999999999998
2400.0 83.2
2500.0 82.6
2580.0 82.49999999999999
2650.0 82.49999999999999
2720.0 82.8
2800.0 83.2
2900.0 83.4
3000.0 83.50000000000001
3070.0 83.3
3150.0 83.2
3250.0 83.2
3350.0 83.3
3450.0 83.4
3550.0 83.59999999999998
3650.0 84.0
3750.0 84.4
3870.0 84.8
4000.0 84.90000000000002
4120.0 84.60000000000001
4250.0 84.0
4370.0 83.3
4500.0 82.7
4620.0 82.49999999999999
4750.0 83.3
4870.0 84.1
5000.0 84.99999999999999
5150.0 85.8
5300.0 85.9
5450.0 85.7
5600.0 85.2
5800.0 84.0
6000.0 82.40000000000002
6150.0 81.7
6300.0 83.1
6500.0 84.1
6700.0 84.60000000000001
6900.0 84.7
7100.0 84.60000000000001
7300.0 84.60000000000001
7500.0 85.5
7750.0 86.00000000000001
8000.0 86.2
8250.0 86.09999999999998
8500.0 85.5
8750.0 84.8
9000.0 84.3
9250.0 84.2
9500.0 84.99999999999999
9750.0 84.8
10000.0 84.4
10300.0 83.59999999999998
10600.0 83.2
10900.0 83.1
11200.0 83.1
11500.0 83.3
11800.0 83.59999999999998
12200.0 83.59999999999998
12500.0 85.4
12800.0 84.90000000000002
13200.0 85.2
13600.0 86.6
14000.0 86.09999999999998
14500.0 83.50000000000001
15000.0 81.9
15500.0 82.10000000000001
16000.0 80.3
16500.0 79.1
17000.0 77.8
17500.0 74.90000000000002
18000.0 68.8
18500.0 63.500000000000014
19000.0 59.8
19500.0 54.3
