Freq "Front Wall Bounce"
22.4 28.542430012592988
23.0 30.056855294337552
23.6 31.58491154723653
24.0 33.05685529433755
25.0 34.58491154723653
25.8 36.05685529433755
26.5 37.55685529433755
27.2 39.05685529433755
28.0 40.55685529433755
29.0 42.10017799693934
30.0 43.65685529433755
30.7 45.15685529433755
31.5 46.70017799693933
32.5 48.25685529433757
33.5 49.771567149457766
34.5 51.300177996939325
35.5 52.85685529433755
36.5 54.37156714945776
37.5 55.90017799693932
38.7 57.400177996939334
40.0 58.900177996939334
41.2 60.35685529433755
42.5 61.856855294337564
43.7 63.28556290609602
45.0 64.68556290609601
46.2 66.08556290609602
47.5 67.485562906096
48.7 68.81474406927573
50.0 70.14243001259298
51.5 71.41474406927574
53.0 72.64243001259298
54.5 73.81474406927573
56.0 74.94243001259296
58.0 75.94243001259298
60.0 76.94243001259298
61.5 77.75685529433756
63.0 78.55685529433755
65.0 79.25685529433756
67.0 79.85685529433756
69.0 80.35685529433755
71.0 80.7134349058176
73.0 80.95685529433756
75.0 81.15685529433755
77.5 81.22795665691821
80.0 81.17156714945776
82.5 81.10017799693934
85.0 80.95685529433756
87.5 80.82926145081912
90.0 80.70017799693933
92.5 80.62926145081913
95.0 80.52926145081913
97.5 80.42926145081913
100.0 80.42926145081913
103.0 80.32926145081913
106.0 80.22926145081914
109.0 80.22926145081914
112.0 80.22926145081914
115.0 80.22926145081914
118.0 80.22926145081914
122.0 80.12926145081913
125.0 79.94406691883565
128.0 79.74406691883564
132.0 79.60212527013067
136.0 79.44406691883565
140.0 79.37352729051779
145.0 79.17352729051777
150.0 78.90212527013067
155.0 78.57352729051779
160.0 78.31702337832328
165.0 78.21702337832328
170.0 78.12025693336888
175.0 77.89177849206943
180.0 77.53543805286652
185.0 77.23543805286654
190.0 77.23543805286654
195.0 77.38101490911863
200.0 77.48101490911863
206.0 77.48101490911863
212.0 77.38101490911863
218.0 77.33543805286654
224.0 77.83543805286654
230.0 78.83543805286654
236.0 79.56175638591316
240.0 79.66175638591315
250.0 79.26175638591316
258.0 79.02025693336888
265.0 78.73543805286651
272.0 78.26175638591315
280.0 78.03543805286654
290.0 77.63543805286655
300.0 77.23543805286654
307.0 77.03543805286654
315.0 76.49429179257997
325.0 75.73543805286653
335.0 75.18101490911863
345.0 74.23994760280576
355.0 73.68101490911862
365.0 73.43994760280576
375.0 73.03994760280575
387.0 72.83994760280575
400.0 73.36118618432069
412.0 74.35246181492501
425.0 74.77620394395767
437.0 74.71817272237443
450.0 74.63521074996207
462.0 74.54520814180718
475.0 74.65645068749409
487.0 75.15283353204369
500.0 75.66008732431217
515.0 75.51249039179224
530.0 75.33662622938996
545.0 74.55246181492502
560.0 73.25246181492501
580.0 71.99263428578057
600.0 73.19555588664419
615.0 75.09055397118915
630.0 75.86756853578594
650.0 75.61817272237444
670.0 75.35283353204368
690.0 75.42987294777824
710.0 76.07333949502738
730.0 76.8596875185863
750.0 77.2944567340641
775.0 77.98506878524306
800.0 78.35780493704117
825.0 78.44275892112425
850.0 78.40167383585869
875.0 78.09543602970017
900.0 77.33984951031836
925.0 76.17810769502225
950.0 76.84302282797627
975.0 77.37593633898842
1000.0 76.36956743358543
1030.0 75.26091010689886
1060.0 74.90477468291492
1090.0 76.10792916734323
1120.0 76.52000269981264
1150.0 76.65828014747812
1180.0 76.5480749888624
1220.0 76.0944567340641
1250.0 74.87544067940722
1280.0 73.91632260804886
1320.0 73.04991072327053
1360.0 72.53070932564722
1400.0 71.44020147926143
1450.0 71.96765810241881
1500.0 71.87737676379325
1550.0 74.80772962475879
1600.0 75.89340490701359
1650.0 74.6807726224357
1700.0 73.81361493851922
1750.0 74.68751094954717
1800.0 73.24258002872095
1850.0 72.40404557055031
1900.0 72.19650559454647
1950.0 72.66833403891827
2000.0 73.22260037312323
2060.0 73.95729325770093
2120.0 73.65958097121973
2180.0 73.05844035723601
2240.0 73.41215246484123
2300.0 73.26813462320719
2360.0 72.44543104936112
2400.0 72.56666779818441
2500.0 72.9360267552099
2580.0 73.26218404689912
2650.0 73.416315940819
2720.0 73.36929004977931
2800.0 73.51386795977437
2900.0 73.74946247376589
3000.0 74.14545796183937
3070.0 73.69105484231073
3150.0 73.75836887907954
3250.0 73.83267306062045
3350.0 72.86804561007601
3450.0 72.8788876752577
3550.0 73.4312638558153
3650.0 73.86084926243517
3750.0 74.57863635396725
3870.0 74.29711496321339
4000.0 74.35174381975447
4120.0 74.78992156605769
4250.0 75.3041818738386
4370.0 74.61202745674687
4500.0 74.7230868024553
4620.0 74.64448127103337
4750.0 74.18463272765581
4870.0 73.41143170247948
5000.0 72.56321868953935
5150.0 73.283740780147
5300.0 75.14022790126059
5450.0 76.84478461491327
5600.0 76.69885756710518
5800.0 76.58374965320552
6000.0 76.24740966942146
6150.0 75.63802791555297
6300.0 75.35538694695379
6500.0 75.77327615642079
6700.0 76.34179224351867
6900.0 75.71130192548391
7100.0 76.05701877405795
7300.0 74.60389621936895
7500.0 75.30176066261481
7750.0 76.52468299316918
8000.0 77.05834386974071
8250.0 76.85127210744052
8500.0 76.79878951397869
8750.0 76.45264314145568
9000.0 78.23494748747582
9250.0 78.30941097381272
9500.0 77.69755977083759
9750.0 77.86909926424785
10000.0 78.94553991171482
10300.0 76.42670020198804
10600.0 76.17163139788963
10900.0 77.06095027952911
11200.0 77.66487357504663
11500.0 73.50846458229864
11800.0 75.5755355302786
12200.0 76.50306461418744
12500.0 73.39952086254597
12800.0 79.40963939475884
13200.0 80.29044927299236
13600.0 77.21904021509961
14000.0 78.5858819272394
14500.0 74.29440730649974
15000.0 81.99461368383017
15500.0 73.41355795816503
16000.0 78.53395576924065
16500.0 75.1511032656711
17000.0 74.83644466737633
17500.0 72.13751992056383
18000.0 72.16502001237588
18500.0 70.1873690052327
19000.0 71.12544472787317
19500.0 69.63202347240941
