Freq "Side Wall Bounce"
22.4 27.812593432032102
23.0 29.354124167314225
23.6 30.854124167314225
24.0 32.354124167314225
25.0 33.876189002070035
25.8 35.37206765681107
26.5 36.85511966137342
27.2 38.37305904679958
28.0 39.893099543906786
29.0 41.412152127382186
30.0 42.932947246926076
30.7 44.47305904679958
31.5 46.01215212738218
32.5 47.5730590467996
33.5 49.112152127382174
34.5 50.63294724692609
35.5 52.1921995575846
36.5 53.73294724692609
37.5 55.23294724692609
38.7 56.75412416731423
40.0 58.25412416731422
41.2 59.75412416731422
42.5 61.21259343203211
43.7 62.612593432032114
45.0 64.05602585185198
46.2 65.43436393595535
47.5 66.81540875977282
48.7 68.13436393595536
50.0 69.43436393595536
51.5 70.71540875977283
53.0 71.91540875977283
54.5 73.11540875977283
56.0 74.21540875977283
58.0 75.21540875977284
60.0 76.21540875977284
61.5 77.03716519075063
63.0 77.81540875977282
65.0 78.51540875977282
67.0 79.05741589219129
69.0 79.55741589219127
71.0 79.91398587294732
73.0 80.13625505587181
75.0 80.31857535207489
77.5 80.3362550558718
80.0 80.29771113642707
82.5 80.19771113642707
85.0 80.04133788808252
87.5 79.88028035171236
90.0 79.74133788808253
92.5 79.62408167316045
95.0 79.54530176216407
97.5 79.44530176216408
100.0 79.36690932589318
103.0 79.26690932589317
106.0 79.14852512495791
109.0 79.1316904104324
112.0 79.08994355339497
115.0 79.08994355339497
118.0 79.05491169189104
122.0 78.95491169189104
125.0 78.73848512883994
128.0 78.52040206016092
132.0 78.30048744358253
136.0 78.14422442853473
140.0 78.00825373106765
145.0 77.79239808390058
150.0 77.45892351552845
155.0 77.0215174032582
160.0 76.7060706512819
165.0 76.49867624544439
170.0 76.26676018034053
175.0 75.92729223220887
180.0 75.47707298986627
185.0 75.08279682033805
190.0 75.01967264088212
195.0 75.10652321333976
200.0 75.1902910711671
206.0 75.20652321333976
212.0 75.15371320690487
218.0 75.10652321333976
224.0 75.60652321333977
230.0 76.65371320690487
236.0 77.37735404702987
240.0 77.39236678264743
250.0 76.92887314314662
258.0 76.64434452981784
265.0 76.32862033831863
272.0 75.81637510995881
280.0 75.51637510995882
290.0 75.09689672929514
300.0 74.68518110760733
307.0 74.50919692374481
315.0 73.94111515476273
325.0 73.18518110760733
335.0 72.55679425363
345.0 71.61363731373014
355.0 71.03304092349927
365.0 70.84434452981785
375.0 70.4519139322773
387.0 70.1400119204809
400.0 70.4698047469297
412.0 71.16140651574564
425.0 71.22630438628488
437.0 70.87808858393073
450.0 70.45433915553134
462.0 70.11719576731444
475.0 70.158047336844
487.0 70.6614861295814
500.0 71.20974252306537
515.0 71.1947839658621
530.0 71.02202831983585
545.0 70.29029800651749
560.0 68.94190393136564
580.0 67.28183827984567
600.0 67.89870018931889
615.0 69.3279414372379
630.0 70.13919942681913
650.0 70.15443690148972
670.0 69.88659361951598
690.0 69.78150678781776
710.0 70.18154888533117
730.0 70.51341761702882
750.0 70.06458389562282
775.0 70.46322748344156
800.0 71.25278987060787
825.0 71.93956715614236
850.0 72.5987004457222
875.0 72.51417296242873
900.0 71.51957225525155
925.0 69.5036150886723
950.0 69.14751742561896
975.0 69.63980916972103
1000.0 69.0917413906418
1030.0 67.6758532983296
1060.0 66.06963159315276
1090.0 66.94825913188431
1120.0 68.38654563935638
1150.0 69.02021488983902
1180.0 69.0364784507347
1220.0 68.06256056433595
1250.0 65.87806032639195
1280.0 64.38086971873265
1320.0 63.30515611722586
1360.0 62.75870501329776
1400.0 63.88239138701864
1450.0 64.76055904200257
1500.0 61.59940862940083
1550.0 61.737836139448106
1600.0 64.54161091225278
1650.0 65.73313778384632
1700.0 63.3949218968221
1750.0 63.193683101261854
1800.0 61.81348648397962
1850.0 58.845626720254785
1900.0 56.33439752968833
1950.0 57.45330870559623
2000.0 63.718591398965614
2060.0 66.94025955057373
2120.0 67.32393751053833
2180.0 66.03302522460478
2240.0 65.7984674787691
2300.0 65.38058959330603
2360.0 64.47911860729356
2400.0 64.51959967586153
2500.0 64.75617531993758
2580.0 65.64427734104855
2650.0 65.33945046494092
2720.0 64.97856530516859
2800.0 64.38871350369921
2900.0 65.21353053782352
3000.0 66.4453312387477
3070.0 66.78493552818675
3150.0 67.41502938765683
3250.0 66.81071267298613
3350.0 64.63223730161548
3450.0 64.43225843438331
3550.0 64.376968241906
3650.0 64.78438937873068
3750.0 65.98193213846996
3870.0 65.73288356118304
4000.0 66.82718495573138
4120.0 68.24472983061813
4250.0 67.81539189495287
4370.0 66.3788617219296
4500.0 65.73090359582613
4620.0 65.59986403125404
4750.0 66.78810030364893
4870.0 66.91678369123126
5000.0 65.52101470234017
5150.0 65.6347806196514
5300.0 66.63117517457557
5450.0 67.85221022417073
5600.0 68.42020608210544
5800.0 69.89133647284082
6000.0 70.7219699316789
6150.0 68.57575112337653
6300.0 66.62423383184296
6500.0 68.49415875721523
6700.0 70.60415041793986
6900.0 67.27847996165893
7100.0 65.40340638171882
7300.0 66.70239926533957
7500.0 69.95073082833463
7750.0 70.06900141174513
8000.0 68.56158613295786
8250.0 67.29346703529554
8500.0 69.54212654017627
8750.0 70.28956720181505
9000.0 70.99690061173423
9250.0 71.34836716076325
9500.0 69.95778411232382
9750.0 70.78549302078885
10000.0 71.4594716518788
10300.0 69.66592557983961
10600.0 71.68121912199815
10900.0 69.75212222807185
11200.0 68.05062348291891
11500.0 67.9483411249591
11800.0 69.35701473279123
12200.0 68.95591869467997
12500.0 67.08333021507865
12800.0 72.76406922114576
13200.0 73.21465797164218
13600.0 68.13248824783264
14000.0 74.527986536971
14500.0 68.78413815539771
15000.0 72.12851606370107
15500.0 63.94623730109193
16000.0 68.84928526286177
16500.0 62.40579717055412
17000.0 61.33824725176508
17500.0 63.14618002985232
18000.0 62.10352181259583
18500.0 63.65198719896223
19000.0 61.85460763025107
19500.0 61.09426433336468
