Freq,Floor Bounce,Ceiling Bounce,Front Wall Bounce,Side Wall Bounce,Rear Wall Bounce,Total Early Reflection
22.4,-3.4217045894369136,-1.1300436875249744,-1.164543666529923,-3.1434557489289574,-0.39788918421193387,-1.69044806751036
23.0,-1.8199526716165764,-0.08103709028902983,0.8300707838675265,-0.30881385782281257,1.0489328946799645,0.04695206655883055
23.6,-0.1366650971661869,1.0234396101500494,2.851215316950899,2.6602771879191636,2.6762073818117784,1.9644543174244546
24.0,2.153402040445215,3.5952284703583786,5.602426986619392,5.429904775109421,5.4260420592586485,4.636716650846253
25.0,4.375544802978126,6.412059275100532,8.570900122874022,8.137019667590565,8.375225838015623,7.435538331101796
25.8,6.460646114576619,9.248606688578448,11.824427807691094,11.026577314793983,11.687071478269033,10.451071899228893
26.5,8.554590334525486,12.459122213536503,15.947535304479558,14.669901481938595,15.977046669088466,14.249698527441339
27.2,11.065838178815184,15.014781378356773,16.75391801950711,15.312810984320222,16.920727652215746,15.442335257314213
28.0,13.380370939135943,17.119977708666582,16.99397002628926,15.467776598617647,17.1145830469152,16.23308089724081
29.0,15.415633560855142,18.993326802711223,17.5073568452038,15.856905472144618,17.610099773540796,17.26951083234208
30.0,17.716110251406306,20.990370840968595,18.440008386564088,16.64787711770508,18.3602343258777,18.68419097521165
30.7,20.514832943804336,23.164006775554455,20.00859561306028,18.253977183833953,19.612131392431692,20.63213878907071
31.5,23.451402723170176,24.980739372562894,21.845694628370282,19.88650754754319,21.096796929304745,22.62601520793571
32.5,26.56296734360673,26.352455353370985,24.001985462493607,21.6476088020858,22.97483795632651,24.715218686364338
33.5,27.89236500661393,27.145686276295336,26.780369190174397,24.88616441186862,25.84322559780371,26.63193304216564
34.5,29.15898826079858,28.30183955520043,29.56152175269544,28.39340540519386,28.848254130982113,28.878553136366364
35.5,30.612493054897712,29.665036801946528,32.279301509397285,31.891592930785563,31.832461011822133,31.359679487226273
36.5,32.527972058419934,31.557322313010488,33.13468720614979,32.62362729612563,32.516035632984895,32.50111054986438
37.5,34.36112144749141,33.3071028157607,33.44653627679757,33.34282308411419,33.0019987604595,33.51711400947288
38.7,36.01784030322055,34.88556389171511,33.603335439492255,34.57671349540102,33.894267562918614,34.68057911753344
40.0,37.47845014792115,36.09612852402459,34.349698138945016,36.56172725963795,35.836055908671895,36.18103148392346
41.2,38.80503768330941,37.16056542768631,34.605947980014335,38.6537364863329,37.80094115798401,37.640962328661104
42.5,40.82857978597478,39.70214373879365,37.34967219036578,40.85573323893526,40.26632500242998,39.97225764099646
43.7,43.54677293652706,43.44648645433257,41.971363409553746,43.221162462649886,43.76362581851869,43.233375677534895
45.0,47.34156785801906,47.60936403644007,48.683714065543924,47.54236964689156,50.333632659709295,48.45732651519488
46.2,51.70477340050657,50.61775950814307,51.84874931740109,51.03625665780798,52.51239028178286,51.593914789809716
47.5,50.44514590830522,49.31448784251218,48.03741293201328,47.89560668861411,48.25557561820973,48.902542334437385
48.7,49.5741532369011,49.222425851060905,48.17896513393332,48.109388753164794,48.3751811700143,48.73333435140026
50.0,50.7354068079993,50.47926951108876,49.49227498755421,49.45561695869995,49.7184257334215,50.00891046881988
51.5,52.1320589502205,51.88172469876106,51.078518499435106,51.03089643867568,51.21765913962379,51.49192859840355
53.0,52.83680617025226,52.98872536211725,53.08486228724708,53.07160981326443,52.681317641487766,52.935362101616064
54.5,54.49215617624694,55.17845095134378,54.671037608158656,54.405883649881645,53.17330445644258,54.43240071727966
56.0,56.01590912632078,56.4773949031288,55.79462930383988,55.37893047535633,54.164363026211845,55.6338339815164
58.0,57.01919299047309,56.64158722056425,57.36114307873724,56.54907011019732,55.571502662502894,56.66892562249704
60.0,58.15954612762239,57.69866952755618,58.765467167571856,57.79916184164142,57.025093542865605,57.92718760330426
61.5,59.461297419143776,59.39958935233712,60.12648705114482,59.04073078243101,58.519851269504244,59.34173125107934
63.0,60.59335843988109,60.458995342556875,61.345301616753474,60.16534844464687,59.74179785454521,60.49378364605782
65.0,61.69335843988108,61.33800530600695,62.44803441757655,61.22082355451212,60.75431076534069,61.52842850274479
67.0,62.860512462061465,62.49787316786127,63.2936984457064,62.34138583602193,61.46722135976579,62.53381046352473
69.0,63.89257925678628,63.56354591576596,64.09369101867206,63.31546353878831,62.39978703874495,63.49168902505106
71.0,64.72514969926176,64.46513285845585,64.85026738259982,64.13162479382078,63.42151695311098,64.3479600693425
73.0,65.29335843988109,65.19257925678629,65.37691667262555,64.91963630406559,64.37868972224285,65.04687108876713
75.0,65.89335843988108,65.76051246206146,65.88900302677636,65.58671945447706,65.40629132539931,65.7111908292141
77.5,66.35899534255687,66.19335843988108,66.36056073613074,66.11402959358215,66.325124125363,66.27154537717398
80.0,66.75899534255689,66.62514969926177,66.77397420523256,66.577307136801,66.94172809976202,66.7373197300047
82.5,67.19257925678629,67.19181767498124,67.0733109905401,66.9935361780458,67.37834965241738,67.16787776485485
85.0,67.42514969926177,67.39181767498124,67.35888570879551,67.26145077975933,67.7132057208482,67.43278421380586
87.5,67.49181767498122,67.45822784810126,67.55921460177713,67.44001963053599,67.97794654931039,67.5901661517423
90.0,67.65822784810126,67.62514969926177,67.68703500484655,67.56006448968581,68.18356396227021,67.7487416786237
92.5,67.75899534255687,67.72514969926176,67.7305527688906,67.65938440114999,68.29986777074993,67.84130137293023
95.0,67.85822784810127,67.79181767498123,67.90136724343908,67.76902124877634,68.41916854328082,67.9547337557139
97.5,67.99181767498123,67.92592306115421,67.98703500484655,67.8487923938502,68.41323846317378,68.03790662074013
100.0,67.99181767498123,67.95822784810126,68.04441235312075,67.88869902372961,68.30833279907125,68.04071822904693
103.0,67.95822784810126,67.89181767498123,68.05855679090482,67.9189631839278,68.08085999503362,67.98233761119704
106.0,67.95899534255688,67.85822784810127,68.03021416168981,67.88961368350482,67.83943286609014,67.91586921548544
109.0,67.89181767498123,67.82514969926176,67.95888570879552,67.82939090689,67.56995407669872,67.81702198727342
112.0,67.79181767498123,67.69181767498124,67.73022169807543,67.60034551821889,67.21247718797491,67.61013113205749
115.0,67.59181767498121,67.49181767498122,67.58768851665718,67.47086402857502,66.9662172096744,67.42777851097553
118.0,67.35822784810127,67.25899534255687,67.41597696161439,67.28117881742564,66.74052885027935,67.21754897381344
122.0,66.99181767498123,66.92514969926177,67.14441235312076,67.00034008260418,66.50483659216476,66.91860571762281
125.0,66.79181767498123,66.69181767498124,66.84441235312076,66.75960400058904,66.29258811908561,66.6804740906958
128.0,66.42514969926175,66.32514969926176,66.47265531149871,66.4189631839278,66.07513441564706,66.34571661869141
132.0,66.09181767498124,66.02514969926175,66.20169293508025,66.13887382588716,65.94295276218585,66.0810217921963
136.0,65.79181767498125,65.69181767498122,65.90136724343908,65.80851566487975,65.74841669253097,65.78894287095495
140.0,65.62514969926175,65.5259230611542,65.67265531149872,65.53909985218816,65.55968481943553,65.58486096076807
145.0,65.42514969926175,65.35822784810127,65.51565233945941,65.3793349481178,65.42323621190206,65.42065864372897
150.0,65.32667868615559,65.19181767498124,65.50136724343908,65.3795694317013,65.36076698301476,65.35317715772933
155.0,65.32514969926176,65.19257925678629,65.44441235312077,65.28961368350481,65.25484160576518,65.30213175705555
160.0,65.19181767498124,65.12514969926177,65.33022169807543,65.19919426552714,65.19174044332546,65.20814290628627
165.0,65.02514969926175,64.79335843988109,65.13022169807542,64.90943664195183,64.93505188431017,64.960122140346
170.0,64.76129741914377,64.39486360477314,64.91630912007373,64.48984761279162,64.28056364952808,64.57499561447725
175.0,64.42824273067602,64.12667868615559,64.65921460177712,64.2194225904431,63.96463814555031,64.28641078131751
180.0,64.26129741914377,63.99257925678627,64.50268503213913,64.05960936253305,63.927382430091626,64.15381243227243
185.0,64.19335843988108,63.893358439881084,64.40235183000189,63.98939027100714,64.11882473603804,64.12300779673775
190.0,64.06129741914377,63.66129741914378,64.38966384963105,64.0185037288103,64.61242052403956,64.16094598333089
195.0,64.02973585597064,63.49643914698869,64.33449475927891,63.69054944906807,64.44117404225359,64.01353195982945
200.0,63.83431960259348,63.229735855970645,64.27757933696184,63.38237778351427,64.16662045286863,63.797847822784675
206.0,63.76809413482455,62.97049963125744,64.26541675411357,63.06063975194682,63.65632677560136,63.570694541601384
212.0,63.67049963125744,62.777394903128794,64.1641316182103,62.79482759679658,62.81275455617681,63.28249882021315
218.0,63.60399504248595,62.61919299047308,64.06540127654345,62.55600366005572,61.86856876606443,63.0145294078839
224.0,63.27049963125744,62.3191929904731,63.72284404220123,62.257193954923466,60.937582899540885,62.6047184343155
230.0,62.67049963125744,61.719192990473076,63.1357731102882,61.62128965458953,60.22186597814273,61.98586884990313
236.0,61.70721299689676,60.6572022994105,62.213145451954134,60.50630215385574,59.337217987525676,60.99796100820227
240.0,60.510837380123434,59.32411630869812,61.016041712571564,59.041375053653425,58.017917031282494,59.712555465952505
250.0,59.9773949031288,58.767860414917465,60.36838153073383,58.34414342693414,57.12985573563989,59.069495794730116
258.0,60.9404275214243,59.82905755094423,61.28015533014768,59.3090041084624,57.69924459688171,59.989248255264656
265.0,62.30399504248595,61.3773949031288,62.70464632570406,61.0892978869186,59.16100186782697,61.49004197284118
272.0,63.69866952755616,62.84805641483598,63.8880228456603,62.533641194697765,60.65162964942863,62.86551405458478
280.0,64.46354591576598,63.740427521424294,64.70235183000189,63.51538629948395,61.94781906441382,63.775399617494045
290.0,64.96354591576596,64.24042752142431,65.13120730015373,64.07276070428571,62.75060302101615,64.30984637100465
300.0,64.76513285845584,64.01083738012343,64.98736177304414,63.926376902108615,62.72981508886038,64.1536176508656
307.0,64.19866952755616,63.38172469876106,64.48768851665717,63.417848160211534,62.04634922599659,63.58586223040746
315.0,63.494863604773116,62.71490040740176,63.815976961614396,62.68924693430502,61.272253403468156,62.882532595593176
325.0,63.46513285845586,62.677394903128786,63.77462222548205,62.68078849803621,61.38224055061298,62.87206531125953
335.0,64.22973585597063,63.540427521424306,64.41959222999232,63.18287711134839,62.447938555489685,63.62212593313349
345.0,64.901058152821,64.04805641483598,65.21469700894575,62.8875451662759,62.23702629525695,64.00416318254473
355.0,65.51083738012343,64.32905755094423,66.01314545195414,63.58124503125629,61.92338336611073,64.50184937934742
365.0,65.90721299689676,64.7404259760018,66.41314545195415,64.24129079841781,62.30838804026155,64.94461816109236
375.0,65.87415477036834,64.66786041491746,66.36962107882744,64.09620150808611,62.08115881490262,64.86132421215103
387.0,65.61083738012343,64.36786041491744,65.98345254279037,63.671273645631615,61.46972073569455,64.49361228619402
400.0,65.24042752142431,64.06786041491746,65.60175789935354,63.26833254626591,60.69719758787696,64.09004158305034
412.0,65.01083738012342,63.767860414917465,65.33453803390691,62.86660876643275,59.75492230414234,63.74633357736688
425.0,64.74805641483599,63.46786041491747,65.19546326081766,62.51458322924668,59.12163497605074,63.469498659992624
437.0,64.71919299047308,63.34042597600181,65.12929913484449,62.19575556718878,58.33532570345963,63.312105300563886
450.0,65.07739490312879,63.89575562110153,65.21538359636689,62.26785194771598,58.70265578765385,63.58771863417924
462.0,65.01083738012342,63.88581504093719,65.39141424610631,62.63860593023141,58.73763513650431,63.677700619701454
475.0,65.24042752142431,64.15720229941051,65.47215950670275,62.95340181201331,59.26669298175858,63.90610842858625
487.0,65.37415477036832,64.25720229941051,65.55702565278607,62.9999734461873,59.78188456290225,64.0323154589415
500.0,65.50399504248595,64.39575562110154,65.79451025297332,63.397003491233875,59.82919053904294,64.23170955243118
515.0,65.4404275214243,64.20721143960968,65.71434096162425,63.18806437802691,59.775356730359206,64.11459004924812
530.0,65.10399504248595,63.82017652373891,65.40653768820744,62.56573587634615,59.239080428927295,63.71665962895959
545.0,64.50399504248595,63.22700818806915,64.73608196834921,61.573298602986085,58.39437412219188,63.0218595657641
560.0,64.04042752142429,62.786920301779205,64.23956310213468,60.76612468458124,57.06868853942842,62.45095328593007
580.0,64.27415477036833,63.1013761091956,64.44485972855567,60.82548157182394,56.71308770346728,62.63837732853055
600.0,64.57739490312879,63.42905755094425,64.82095400565173,61.18446088955196,56.796874508487235,62.96573032468743
615.0,64.1773949031288,63.029057550944245,64.40908998198312,60.760922753203346,56.89933176134609,62.58468124761649
630.0,63.61083738012344,62.51919299047307,63.71925513839939,59.87943108624876,56.76299266577706,61.97808623516936
650.0,63.94042752142431,62.97739490312878,63.77406997534921,59.36548701469661,56.4828255144659,62.125132383148454
670.0,63.9572022994105,62.777394903128794,64.11618285946007,59.294266196898974,55.60678970185228,62.135961519573144
690.0,63.20721143960968,61.691538086118015,63.50459757312868,58.63727154882176,54.37081204865031,61.344542929251276
710.0,61.90116764170317,59.93886846471288,62.43549981013216,57.28979068313916,53.38367859001764,60.03550659934264
730.0,61.05856897749952,58.38936252499009,61.66570794701717,55.84386358509421,52.079408227997035,59.00814268034975
750.0,59.867850358863336,56.51728377191439,60.08610996100761,54.04577879435182,49.77189753163303,57.46206489952425
775.0,58.301376109195616,56.07478603987296,58.03897740946991,53.03597321232073,55.34308531280634,56.55402217255576
800.0,59.565132858455854,58.54042597600181,60.26998634092186,56.4819700078599,57.18063962645398,58.63409749827109
825.0,62.08581504093719,60.81681544934452,62.68535405892017,57.164215404832774,54.88845036397292,60.42022188150155
850.0,62.26320453486933,59.64361495276023,63.97386418959371,59.04158920140942,54.85942110533905,60.941268046150554
875.0,63.06805640366882,60.69292558171024,64.30275277140386,59.300928179050885,55.41023197505753,61.51791178374772
900.0,63.40081058473142,60.99292558171025,64.46082623356352,58.81507452108211,55.562211184163516,61.67864689262474
925.0,63.14361495276023,60.660861353488954,64.18968032744237,58.8130497402979,55.08559744933261,61.42020775945082
950.0,62.49599519095666,59.66784859564963,63.481790826677894,57.31336402442045,54.70642665739524,60.61950594161557
975.0,62.17280680563435,58.94141413839641,63.48228853231063,57.75153271885543,55.25589423695733,60.48738111717434
1000.0,62.07655328995098,59.25253529354791,63.34606428485442,58.29504576609206,55.76353389088396,60.54463394922887
1030.0,60.49153808611803,59.314900407401765,61.693746896170495,59.79574056767106,56.45680513128114,59.865206886323946
1060.0,60.99569556361442,60.47926951108876,61.25263846100293,59.49609553553444,56.056103789010805,60.00210057831481
1090.0,62.50721143960969,61.12491337600147,62.871629022829424,59.47153798275585,55.7215818009864,60.984955372705215
1120.0,61.307211439609674,59.885815040937175,63.27463403307992,63.62507384832091,59.48197005043018,61.84263009582804
1150.0,64.52667868615559,63.408849128204906,63.83823600615058,62.4195173480293,56.798659388287035,62.86552113971241
1180.0,68.12491337600149,66.11688508827996,67.37389540330028,61.64474779494171,53.93845487676067,65.50323742513633
1220.0,66.90116764170317,64.51688508827996,66.80299291897926,61.67957760649618,54.162445625047596,64.5487530898774
1250.0,65.67655328995097,62.70343300909508,66.09683344067676,61.18649559497628,54.84132870857465,63.521357207302955
1280.0,64.76153168639055,61.3797765056115,65.99059433323895,61.71619429468535,55.48109804953812,63.08677809315148
1320.0,65.41000222344867,62.16630635865825,66.32980422370274,62.18638225436683,56.08607098023988,63.60887222708085
1360.0,64.76765033236146,62.24166245839679,65.68913648381256,61.74498894287707,55.91309537226043,63.12343464953847
1400.0,64.63983993343547,61.99292558171024,67.21800366133148,64.85649469511952,58.49743526395578,64.32322012287642
1450.0,64.01344754118504,62.092752002036036,66.07010910040152,64.01404787797026,57.34225920548265,63.520647648005564
1500.0,64.60116764170316,62.02090975629024,66.28056026733303,62.807722607826605,55.59719591211788,63.42256372733242
1550.0,65.00884912820491,62.38002837494099,66.57618863891851,63.226830105224806,55.75624306916724,63.77417951689641
1600.0,64.36765033236146,62.06147396862829,66.34217214098646,63.639534580945906,55.349543687953556,63.54233126536742
1650.0,62.40238559744978,61.267860414917465,64.84970972754687,63.297759090315964,54.83792158616312,62.34213086657236
1700.0,62.25720229941051,60.596778679521734,65.58736571033151,62.65895516456963,54.70031802192429,62.349645223203865
1750.0,61.91490040740176,60.33407392337273,65.78589158914711,61.714836028417594,54.513582758109465,62.143432300060624
1800.0,63.26088235150465,61.197439461245864,66.5664614496201,61.51998041931513,53.7929513380583,62.84680443184115
1850.0,63.421064018116624,61.44205118977722,66.86020952808808,62.04539498609341,54.55418030518031,63.152251195300806
1900.0,62.410837380123425,60.84396700459095,66.45785346189533,61.644531849130956,55.616854471564224,62.65061543617611
1950.0,64.060547793999,63.06765033236145,68.37574802906882,63.41779362389714,58.719905390585296,64.59241085639631
2000.0,63.65946357436766,63.14446297265363,69.27926829259013,64.52838569232786,60.560045843261534,65.27128277676319
2060.0,64.11784819010236,61.602358371917035,69.16452151364992,63.851215615248265,60.437213600076944,64.99972173717315
2120.0,65.2628769702172,61.21920343964929,69.85075601041224,65.38726189723424,61.42116778610354,65.84110230265257
2180.0,64.64944975252612,58.71523851386759,68.91966119947715,66.24494004355127,61.620852481625306,65.34612832245568
2240.0,62.98212009234645,59.552123806938,67.27965555497248,65.13495296966717,59.855216501554835,63.966732752415936
2300.0,65.10214509671762,62.88813925965884,66.43205201643401,64.99226073484174,58.49409815384807,64.29532244457945
2360.0,64.98849969541975,64.26830584590418,67.33826457372392,63.66715095919089,56.52520672431764,64.47764704660459
2400.0,66.96129741914378,66.30839707880347,67.64166201170299,63.20375291070802,55.41578465141603,65.43830405721768
2500.0,68.96129741914378,67.58367908218835,67.09228473784603,62.16263935571739,55.64485483384372,66.17783336117189
2580.0,67.8595461276224,65.5407885030966,65.29517898636921,59.372310855218586,54.000323368288505,64.53064853089414
2650.0,66.3525371042053,62.52266465313214,63.93784785943515,57.10958737761898,53.00370937532951,62.69287923170354
2720.0,66.54027690481082,62.411173956380125,64.03431424687575,60.26551834580842,53.33994366329266,63.036867355596556
2800.0,63.64095562217619,56.644783660830214,64.37458123411629,60.90023820208269,52.84927365647118,61.42114765156656
2900.0,65.07952615253728,60.66759310478186,66.3644313320097,60.362676781557454,52.18778870079187,62.99682567322547
3000.0,63.52991316165348,58.750155727631764,66.37706269686558,60.28116256902514,51.823358197116264,62.33774286384421
3070.0,65.5555009677687,61.51316776058813,67.82684727203191,63.52379927278183,52.79313444199636,64.31840381346103
3150.0,65.14863006299375,61.08252521401644,67.6717238917167,61.294243409152315,50.970884651056,63.75769693908842
