Freq "Side Wall Bounce"
22.4 -2.601683597030217
23.0 0.23295829407592805
23.6 3.202049339817904
24.0 5.971676927008161
25.0 8.678791819489305
25.8 11.568349466692723
26.5 15.211673633837336
27.2 15.854583136218963
28.0 16.009548750516387
29.0 16.39867762404336
30.0 17.18964926960382
30.7 18.795749335732694
31.5 20.42827969944193
32.5 22.18938095398454
33.5 25.42793656376736
34.5 28.9351775570926
35.5 32.433365082684304
36.5 33.165399448024374
37.5 33.88459523601293
38.7 35.118485647299764
40.0 37.10349941153669
41.2 39.195508638231644
42.5 41.397505390834
43.7 43.76293461454863
45.0 48.0841417987903
46.2 51.57802880970672
47.5 48.43737884051285
48.7 48.651160905063534
50.0 49.99738911059869
51.5 51.57266859057442
53.0 53.61338196516317
54.5 54.947655801780385
56.0 55.92070262725507
58.0 57.09084226209606
60.0 58.34093399354016
61.5 59.58250293432975
63.0 60.70712059654561
65.0 61.76259570641086
67.0 62.88315798792067
69.0 63.85723569068705
71.0 64.67339694571952
73.0 65.46140845596433
75.0 66.1284916063758
77.5 66.65580174548089
80.0 67.11907928869974
82.5 67.53530832994454
85.0 67.80322293165807
87.5 67.98179178243473
90.0 68.10183664158455
92.5 68.20115655304873
95.0 68.31079340067508
97.5 68.39056454574894
100.0 68.43047117562836
103.0 68.46073533582654
106.0 68.43138583540356
109.0 68.37116305878874
112.0 68.14211767011763
115.0 68.01263618047376
118.0 67.82295096932438
122.0 67.54211223450292
125.0 67.30137615248778
128.0 66.96073533582654
132.0 66.6806459777859
136.0 66.35028781677849
140.0 66.0808720040869
145.0 65.92110710001654
150.0 65.92134158360004
155.0 65.83138583540355
160.0 65.74096641742588
165.0 65.45120879385057
170.0 65.03161976469036
175.0 64.76119474234184
180.0 64.6013815144318
185.0 64.53116242290588
190.0 64.56027588070904
195.0 64.23232160096681
200.0 63.92414993541301
206.0 63.602411903845564
212.0 63.33659974869532
218.0 63.09777581195446
224.0 62.798966106822206
230.0 62.16306180648827
236.0 61.04807430575448
240.0 59.583147205552166
250.0 58.88591557883288
258.0 59.850776260361144
265.0 61.63107003881734
272.0 63.075413346596505
280.0 64.05715845138269
290.0 64.61453285618445
300.0 64.46814905400736
307.0 63.959620312110275
315.0 63.23101908620376
325.0 63.22256064993495
335.0 63.72464926324713
345.0 63.42931731817464
355.0 64.12301718315503
365.0 64.78306295031655
375.0 64.63797365998485
387.0 64.21304579753036
400.0 63.81010469816465
412.0 63.40838091833149
425.0 63.05635538114542
437.0 62.737527719087524
450.0 62.80962409961472
462.0 63.18037808213015
475.0 63.49517396391205
487.0 63.54174559808604
500.0 63.938775643132615
515.0 63.72983652992565
530.0 63.107508028244894
545.0 62.115070754884826
560.0 61.30789683647998
580.0 61.36725372372268
600.0 61.7262330414507
615.0 61.302694905102086
630.0 60.4212032381475
650.0 59.90725916659535
670.0 59.836038348797715
690.0 59.1790437007205
710.0 57.8315628350379
730.0 56.38563573699295
750.0 54.58755094625056
775.0 53.57774536421947
800.0 57.02374215975864
825.0 57.705987556731515
850.0 59.58336135330816
875.0 59.842700330949626
900.0 59.35684667298085
925.0 59.35482189219664
950.0 57.85513617631919
975.0 58.29330487075417
1000.0 58.8368179179908
1030.0 60.3375127195698
1060.0 60.03786768743318
1090.0 60.01331013465459
1120.0 64.16684600021965
1150.0 62.96128949992804
1180.0 62.18651994684045
1220.0 62.22134975839492
1250.0 61.72826774687502
1280.0 62.25796644658409
1320.0 62.728154406265574
1360.0 62.28676109477581
1400.0 65.39826684701826
1450.0 64.555820029869
1500.0 63.349494759725346
1550.0 63.76860225712355
1600.0 64.18130673284465
1650.0 63.839531242214704
1700.0 63.200727316468374
1750.0 62.256608180316334
1800.0 62.06175257121387
1850.0 62.587167137992154
1900.0 62.1863040010297
1950.0 63.95956577579588
2000.0 65.0701578442266
2060.0 64.392987767147
2120.0 65.92903404913298
2180.0 66.78671219545001
2240.0 65.67672512156591
2300.0 65.53403288674048
2360.0 64.20892311108963
2400.0 63.74552506260676
2500.0 62.70441150761613
2580.0 59.91408300711733
2650.0 57.65135952951772
2720.0 60.80729049770716
2800.0 61.44201035398143
2900.0 60.904448933456194
3000.0 60.82293472092388
3070.0 64.06557142468057
3150.0 61.836015561051056
3250.0 61.024925732346816
3350.0 60.56538396121016
3450.0 60.542369561157216
3550.0 60.354487383245726
3650.0 60.896405310634975
3750.0 59.720380976645785
3870.0 59.09173829308588
4000.0 59.56397245232891
4120.0 59.92754077485998
4250.0 59.47868702402954
4370.0 59.20389913359497
4500.0 58.41795163666441
4620.0 57.99319699198651
4750.0 57.95227334973072
4870.0 58.05036052487762
5000.0 58.038656778506066
5150.0 58.31915701067798
5300.0 59.22689766928596
5450.0 59.43270314644175
5600.0 59.16256384384724
5800.0 59.09493950687761
6000.0 60.692818255395224
6150.0 61.48691028874816
6300.0 63.67731772460701
6500.0 64.36900784339784
6700.0 62.39840125779804
6900.0 61.27379579736724
7100.0 59.17442187100744
7300.0 57.28220496508662
7500.0 57.93472067215838
7750.0 57.57804839740402
8000.0 57.49280963426499
8250.0 56.097140505629795
8500.0 58.45229418480616
8750.0 58.07927392436969
9000.0 57.8925631307784
9250.0 57.405726593611575
9500.0 56.620900236608165
9750.0 54.72332443452328
10000.0 56.8238961505929
10300.0 58.04633189029387
10600.0 57.68085306260829
10900.0 58.357789122477556
11200.0 56.637038647724154
11500.0 53.67099334368716
11800.0 56.771620577198235
12200.0 59.746891320274585
12500.0 57.46227936872684
12800.0 50.46459194094061
13200.0 56.002510619724575
13600.0 60.64080228230989
14000.0 58.255842873019986
14500.0 54.693843726603575
15000.0 58.72851357246003
15500.0 59.183582603505585
16000.0 60.40079378646283
16500.0 59.34761772151482
17000.0 57.07565844029435
17500.0 57.95580489221619
18000.0 57.53741758699489
18500.0 54.50911056745218
19000.0 51.49732403331245
19500.0 50.136579409028215
