Freq,Floor Bounce,Ceiling Bounce,Front Wall Bounce,Side Wall Bounce,Rear Wall Bounce,Total Early Reflection
22.4,10.124257011572539,21.85565928550234,14.24955267443444,16.794854499371368,20.95966916961642,18.60623446654138
23.0,10.807564840190437,22.409933029429496,14.368315055423963,17.24006838513857,21.49002801513295,19.11115669792541
23.6,11.784159919869737,23.128370140799873,14.826896217008354,17.976032588850742,22.26842521466135,19.843672457524164
24.0,13.91164718158872,25.054696464548286,16.475538088681972,19.83193541863311,24.14706998562157,21.733674041016727
25.0,15.68020872615223,26.56980943630505,17.699316664277873,21.302183236242243,25.65129252805825,23.23102346864097
25.8,17.0524137305908,27.67526527696792,18.514125596160554,22.27109431454629,26.666523119582862,24.281650371255708
26.5,18.122608514760472,28.462812248072325,18.998618201597893,22.950086103643557,27.36781794877875,25.021401020965712
27.2,19.06729425629588,29.120278543050077,19.361885971583987,23.441567844996527,27.8444477960697,25.594952616408293
28.0,20.00764739344517,29.72027854305007,19.56014246023547,23.74452845286028,28.191858192975204,26.073394286457884
29.0,20.898713263675504,30.2202785430501,19.636053937715886,24.03626771226682,28.37316429456412,26.449986657172886
30.0,21.91097270227199,30.851534274917853,19.92763460223152,24.36813703915469,28.70550537522051,26.965131025908434
30.7,23.616000809173684,32.21065823642262,20.802477681261095,25.3763025994149,29.582368874996078,28.151868470380535
31.5,25.33585076821184,33.465922970043366,21.566461060572053,26.12781381674121,30.309614284408937,29.232647767694672
32.5,27.03955805190445,34.61152106019749,22.054116447470776,26.67698017900689,30.69648260784068,30.167953386023882
33.5,28.65469646454828,35.6590195649914,22.34305168213355,26.869708905253063,30.824257149159692,30.99056395772432
34.5,30.03251945762564,36.535996839483616,22.41868991931686,26.7726973556574,30.629034482544526,31.653953879012093
35.5,31.384115008301123,37.31491066994492,22.577752752710765,26.714093060557033,30.396427325841685,32.30959781621668
36.5,33.653374954494566,39.11177231333515,24.321361426610494,28.077859847743625,31.67740377801458,34.1006318217964
37.5,35.05337495449457,40.06729263635246,26.085526545196856,29.293166580198417,32.83712279034778,35.1943888326369
38.7,35.22028098483649,39.91306615640981,27.6251825772152,30.199142373061775,33.684528299280075,35.33777873492646
40.0,34.82107437212407,39.1707788932671,29.021490029098644,30.887681698872697,34.27400397188079,35.05069288141358
41.2,34.50042176965168,38.59425232062823,30.90000912019805,31.846785412639164,35.153187813570256,35.07571776124736
42.5,35.33585076821184,39.22996284861644,33.439411725743625,33.5637193801076,36.81266759847121,36.2472642310468
43.7,36.23332699090129,39.916386300195356,35.76740635764587,35.168131442846814,38.19497618186644,37.430389370367934
45.0,37.083508073822074,40.57013958619565,37.720974988473884,36.48841601122821,39.26871925040983,38.49225475721376
46.2,38.158938645946236,41.58885646234354,39.55438009517074,37.91797052318036,40.45315166296966,39.75691340360241
47.5,39.41175312125064,42.68653955094989,41.40593800636675,39.536598353391824,41.647272715358284,41.12066764130567
48.7,41.07477995197836,44.133326990901296,43.415411265306616,41.405632512306866,43.068806174869295,42.77647099334793
50.0,42.61164718158874,45.528126500813,45.10913727112829,43.13984269066604,44.280783788115016,44.27445020294225
51.5,44.18242086841626,46.90756484019043,46.64789635401978,44.792989785941316,45.47547258590323,45.726572722546976
53.0,45.718600897080236,48.29679133002462,48.010281105057956,46.34912917561526,46.64132109615959,47.116481315002076
54.5,47.31860089708023,49.82821594314616,49.42506106698231,47.939188722584916,47.877543640878926,48.587966408863295
56.0,49.01860089708022,51.36013885751849,50.84912966764584,49.598891507074555,49.23472464811131,50.11288844280325
58.0,50.68852878724708,52.95531426271954,52.212274510488285,51.210230756130485,50.58066969548209,51.62883325139502
60.0,52.286106571829734,54.452096308308754,53.49980041603435,52.772903012606534,51.91920976009969,53.08273887957269
61.5,53.81619540064732,55.952096308308725,54.73893605158612,54.324118076902536,53.33833079818696,54.529028591149924
63.0,55.21539341408386,57.286106571829734,55.879015909163186,55.67254459464736,54.62696228312508,55.83014219089732
65.0,56.545974433684066,58.58082262422842,56.96346981279471,57.03668158509592,55.95721196107348,57.10847024468825
67.0,58.211647181588745,60.180822624228426,58.36515378743803,58.70456746742521,57.63432841528574,58.707995693389094
69.0,59.77783712179341,61.67704643887812,59.752245550778525,60.3543218775154,59.276067436494586,60.25097590502148
71.0,61.1763439964988,63.00861372788424,60.99962841176172,61.789064801467376,60.77805341221364,61.62868741938789
73.0,62.6763439964988,64.40861372788424,62.35981453156093,63.26879985748336,62.340743647770395,63.08366851275527
75.0,63.943796829437176,65.60861372788423,63.600949389697575,64.56288706513826,63.72014906194943,64.35320835939558
77.5,65.1763439964988,66.74068052260907,64.82335688508529,65.77012131231005,65.03362452640735,65.56630856118944
80.0,66.34454041281147,67.74068052260907,65.99946623047062,66.89145439581897,66.2230346266797,66.6863240860621
82.5,67.60939868496656,68.84068052260908,67.41671911311302,68.08346880708642,67.51678445959301,67.92641521969371
85.0,68.91164718158875,69.87477995197837,68.76531018469832,69.18368459797473,68.7486754045795,69.11771402678832
87.5,70.08082262422842,70.8429648705959,69.98722562275985,70.22433486407236,69.8569030555555,70.21244288233378
90.0,71.11539341408388,71.64454041281147,71.0996563678198,71.05511066362733,70.7848074613731,71.14903099469483
92.5,71.81539341408389,72.11323412427863,71.90882802713567,71.57708116556678,71.39444358660532,71.76907811396298
95.0,72.41539341408388,72.54915941864377,72.50579379776407,72.03756999233771,71.91663008571619,72.29250121611842
97.5,73.08082262422842,73.04915941864378,73.17504766697628,72.5794197753316,72.47638294180277,72.88149818979473
100.0,73.74677079337894,73.61860089708023,73.84374119866693,73.16918662641721,73.06442458288235,73.49977794849073
103.0,74.31164718158874,74.08561643999836,74.38691964781002,73.65017676799071,73.5336701656078,74.00718906229226
106.0,74.77783712179341,74.54915941864378,74.84109953993666,74.12305083374898,73.95573641784709,74.46357037128175
109.0,75.47477995197836,75.18561643999836,75.48398837218251,74.77950362650574,74.57773476197752,75.11563726710908
112.0,76.04145970570387,75.71640711172695,76.02541415242105,75.34750793196295,75.08322701663555,75.65901747182379
115.0,76.40709660837966,76.11640711172696,76.36804101839077,75.74913679301417,75.42582757113806,76.02935310654836
118.0,76.77402432697698,76.48020872615221,76.68229537671893,76.1072695425958,75.74531576402856,76.37440847026774
122.0,77.07402432697698,76.78020872615221,77.01066591047544,76.43424657745068,76.03873653331236,76.68445951557516
125.0,77.30709660837967,77.08020872615222,77.25377004103356,76.70316376871702,76.24860725900909,76.93625375412424
128.0,77.37402432697698,77.11175312125066,77.31066591047545,76.77119214489754,76.3057009918529,76.99225800887122
132.0,77.47402432697699,77.27634399649881,77.46877428931987,76.89156231868448,76.42049716457535,77.12451724395854
136.0,77.6086490598218,77.37634399649879,77.58235703977994,77.01969438638535,76.52522435184311,77.24112026752147
140.0,77.6086490598218,77.40864905982178,77.65385485139446,77.06812146345669,76.56266356888553,77.27887519011425
145.0,77.70864905982178,77.50864905982179,77.78202625114218,77.17670714418632,76.65142492225426,77.38476741116183
150.0,77.80864905982179,77.57402432697698,77.86780123076441,77.24665871461492,76.70256322081839,77.46057420735619
155.0,77.8763439964988,77.67402432697698,77.96780123076441,77.3477485167688,76.77153597303176,77.54859798895963
160.0,77.97634399649881,77.77402432697698,78.11173749045186,77.43724359569087,76.87165264183865,77.656333845217
165.0,78.10939868496655,77.87402432697698,78.21001608845344,77.53724359569087,76.9343910917235,77.75690129819658
170.0,78.20939868496657,77.97402432697699,78.31001608845345,77.61638670533601,77.00707024950995,77.84842969428915
175.0,78.34454041281147,78.07402432697698,78.41001608845345,77.68775554879572,77.04965370238843,77.94128321808736
180.0,78.40939868496656,78.07402432697698,78.46780123076442,77.69888081901628,77.03823274891468,77.96874084053536
185.0,78.40939868496656,78.07402432697698,78.49588260094748,77.68941348490041,77.02170690237959,77.97062092457408
190.0,78.40939868496656,78.07402432697698,78.51001608845344,77.6701642967581,76.97523152906952,77.96277780696806
195.0,78.40939868496656,78.07402432697698,78.51001608845344,77.6521417618288,76.91639825817062,77.95008639350769
200.0,78.40939868496656,78.07402432697698,78.43985611173238,77.59584679703433,76.83711542499708,77.91124933995827
206.0,78.34454041281147,78.00709660837965,78.42410372972249,77.50597544076035,76.6842147461905,77.83885970367359
212.0,78.30939868496655,77.90709660837966,78.36844246446707,77.40597544076034,76.5579710369267,77.75968029631797
218.0,78.31323412427862,77.90709660837966,78.36844246446707,77.36858532889441,76.468125168176,77.74015825383395
224.0,78.31323412427862,77.84145970570387,78.36844246446707,77.32202175586593,76.36404001584769,77.70260679931653
230.0,78.27783712179341,77.74145970570386,78.31237227016265,77.20314731651916,76.19006680757339,77.61363974067247
236.0,78.31323412427862,77.80939868496655,78.36844246446707,77.2373649588382,76.1270887256273,77.64640049632028
240.0,78.3778371217934,77.77783712179343,78.42677970511672,77.23996244795464,76.08518688777944,77.66347997794422
250.0,78.3778371217934,77.71323412427863,78.42677970511672,77.1634920382258,75.94959260847185,77.61775699218869
258.0,78.3778371217934,77.71323412427863,78.44113950234056,77.13711379550661,75.86576423237754,77.60515830666904
265.0,78.34677079337895,77.58242086841625,78.44113950234056,77.06369495021406,75.73034158795537,77.53991323377548
272.0,78.27783712179341,77.51860089708023,78.42804511842493,76.97946665550332,75.57651340614969,77.4720240427483
280.0,78.17783712179342,77.38852878724708,78.38599847171587,76.86344210685262,75.38713314676032,77.36621184902172
290.0,78.11323412427862,77.28852878724709,78.35704178607672,76.75087338806706,75.20922169393373,77.2808464098396
300.0,78.01323412427863,77.12549616895156,78.34337950481441,76.60066242367756,75.00069865668209,77.16849476477866
307.0,77.91323412427863,76.93391630675997,78.27163364055357,76.42119868939152,74.72221121410362,77.02269003806005
315.0,77.74915941864379,76.80530356523329,78.21684435267315,76.24734558967306,74.44198607813917,76.87985325958516
325.0,77.64915941864378,76.6722175745209,78.19075563107658,76.10696369407474,74.17607005342327,76.7681193827879
335.0,77.54915941864378,76.5722175745209,78.14527108259773,75.95064387351213,73.90630248514489,76.65538192092664
345.0,77.51640711172696,76.5722175745209,78.13188398158779,75.87478900066458,73.6875316422692,76.60789448593027
355.0,77.41640711172697,76.47221757452091,78.07750821720389,75.77137804574734,73.4440418501454,76.50593707452929
365.0,77.31640711172696,76.43391630675997,78.00399073026877,75.66398413261255,73.23350782946925,76.41385796356326
375.0,77.31640711172696,76.5010484051161,77.98950736915059,75.685485401977,73.11591642461447,76.41575180910849
387.0,77.31640711172696,76.5010484051161,77.88950736915059,75.64108304888457,72.9702251130862,76.36619257770087
400.0,77.24915941864377,76.46300167322455,77.81861717549504,75.55420243654406,72.78745449534948,76.29020004092433
412.0,77.24915941864377,76.49615768065877,77.76038719025651,75.59082029398557,72.69573195505963,76.27876880907034
425.0,77.28242086841625,76.55893864594621,77.76038719025651,75.60924528768662,72.59091746135788,76.29446211945593
437.0,77.31619540064733,76.59615768065876,77.76038719025651,75.67987944745448,72.50518872227622,76.31579540857955
450.0,77.35048686327255,76.59615768065876,77.73173997346525,75.67690332906581,72.33878072019408,76.30238721797076
462.0,77.42063549254686,76.59289557703651,77.73173997346525,75.72558695392415,72.23541637215092,76.31993485553352
475.0,77.42063549254686,76.59289557703651,77.68730557057785,75.70798543673267,72.06189433632224,76.29125587169405
487.0,77.52063549254686,76.59289557703651,77.7730978600446,75.75108868827989,71.90392187859116,76.33701203089466
500.0,77.52063549254686,76.5222560361911,77.74675822380023,75.7331451397447,71.73916960233616,76.29989983786722
515.0,77.51619540064732,76.5222560361911,77.79065384588074,75.69011038354789,71.5678800609521,76.29175900113856
530.0,77.58242086841625,76.58852878724709,77.90575466581396,75.68235335140791,71.49743842904427,76.35002848628119
545.0,77.58020872615221,76.65531426271954,77.96688824702066,75.62641633030564,71.44021031737893,76.36799000531947
560.0,77.64769061815991,76.72260851476045,78.0959880593202,75.59484150121143,71.42254244619544,76.43143050739985
580.0,77.64769061815991,76.86013885751852,78.18491449526633,75.50474724971393,71.44265135449893,76.4740301204578
600.0,77.58415991986973,76.89256423847642,78.21872895518636,75.40676199145356,71.39436526008714,76.4561310929488
615.0,77.49256423847642,76.83035398418427,78.1801865790343,75.23149183411662,71.28024762751888,76.37265045257912
630.0,77.39615768065876,76.80104840511609,78.07907225705371,75.00253176484019,71.07394213596896,76.26302884492806
650.0,77.3109741371094,76.6053035652333,77.9826234603622,74.77694167516889,70.82279052046766,76.11878342000645
670.0,77.25649834462625,76.37715881676702,77.90156074262894,74.50379558351676,70.4448073487994,75.96727199178581
690.0,77.32994014386115,76.12225450272386,77.88098123754322,74.22635568179695,70.05880643572307,75.86612477778871
710.0,77.39126252923903,75.86154880700782,77.90621985931129,73.90262331638857,69.59758499371253,75.77101111012313
730.0,77.48350807382205,75.72812650081299,78.0071825944042,73.68797372803486,69.2300785432244,75.76039418852424
750.0,77.4053035652333,75.50898361732743,77.9105215186322,73.33487554994937,68.76335550785222,75.59808860578319
775.0,77.1053035652333,75.2182503814576,77.71373677195731,72.8758601677462,68.21555088096561,75.30694630374592
800.0,76.97221757452091,75.09206827041375,77.60637082599482,72.65741282244738,67.86953561582408,75.16640953386704
825.0,76.88295709646307,75.0344514506724,77.58592393570497,72.54619585545323,67.63337905525485,75.09982286471588
850.0,76.90139369428233,75.08390861853117,77.62574126074574,72.57601332278406,67.4490636846241,75.12615019975625
875.0,76.92386714632339,75.01130580069211,77.62271228040083,72.56484183340551,67.2177914288315,75.10862894334969
900.0,76.77436018048638,74.72090807145713,77.42311544125991,72.46100335523583,66.82291086145645,74.9113354049176
925.0,76.57436018048638,74.2981272706981,77.20321985472074,72.31447271960441,66.40649363883789,74.6619709541447
950.0,76.34926890752594,73.86498635410273,76.95904922903624,72.17759349458727,66.19621836703128,74.40337576121706
975.0,76.18852724182459,73.75548115391234,76.95722757139443,72.1882528946969,66.32039713744221,74.33882118872883
1000.0,75.8053035652333,73.64723664995036,76.81895008089681,72.05431483538511,66.32635435445165,74.13759184800507
1030.0,75.64947737501839,73.74723664995037,76.84062030006187,72.10592280077744,66.3574271543283,74.12621985998285
1060.0,75.6691652839394,73.94723664995036,76.9800980313452,72.30223387719651,66.41538763723943,74.24775845382142
1090.0,75.87436018048639,74.13235363749095,77.16666980143282,72.69569498958141,66.48784471974126,74.4625115118249
1120.0,76.07739655666322,74.14243619369752,77.32890361867646,73.1544987040518,66.55595324803046,74.64622615356491
1150.0,76.08794119925825,73.89852958543976,77.35052279620348,73.50015533231225,66.51042666172883,74.66455385781154
1180.0,75.95928448180182,73.56539175049913,77.47199188346981,73.84835088544996,66.49244921813613,74.67621962779633
1220.0,75.85695039402769,73.49142397194781,77.75073824185749,74.1408295567001,66.52122469785107,74.7964910218326
1250.0,75.84328923986773,73.69142397194778,78.04241520426132,74.25402613757491,66.46212931007766,74.957407577983
1280.0,76.12654867796726,74.069011022113,78.33675690982115,74.24095475461051,66.3208753491476,75.1990723862722
1320.0,76.56594945592515,74.33623868777546,78.59291728859891,74.256711807395,66.00475237256654,75.45188567356973
1360.0,76.88731401943083,74.17526527696789,78.64302029495386,74.05384662600747,65.4162642786191,75.4916448423706
1400.0,76.86859652795717,73.62011908147996,78.4548019934936,73.61439176450058,64.41391250516232,75.24913750176016
1450.0,76.67359470252015,73.11956485795538,78.18655425851675,72.98120978367147,63.222999344819115,74.90889433853438
1500.0,76.50375110058704,72.9701511671707,77.94838244966373,72.28490034474243,62.102827180432044,74.63652743805677
1550.0,76.27417544561804,72.90117575847864,77.68719661457767,71.59054040163491,61.266693695950636,74.357851469185
1600.0,75.72028563480679,72.49077673755413,77.1272406000593,71.03396550413797,60.949172572981425,73.82426818765016
1650.0,75.08343377401252,72.12537361177746,76.63547829595652,71.28596468774826,61.64648193000285,73.40603315488224
1700.0,74.87668105179758,72.22352385827762,76.4301894590389,72.45885390747891,63.20932306135043,73.46698907271873
1750.0,75.31860089708023,72.89015245559999,76.33999677890046,74.07911381263405,65.06056619470824,73.99064566081628
1800.0,76.95209630830873,74.88350807382209,77.30588260053145,76.6007724297684,68.23438118745229,75.7172543994633
1850.0,77.57704643887813,75.83391630675996,77.48076775541853,77.09952457490138,69.98251352451618,76.28968292591232
1900.0,75.28696973053566,72.85024636254042,75.82378007338937,72.97922078515408,67.12605527414695,73.66623874527173
1950.0,73.60413895774262,69.769011022113,75.22326887847142,69.56040651000986,64.09178417729684,71.89245595507869
2000.0,73.10356505823945,67.99940404856737,75.52791509506301,68.27965112242715,62.31622418264337,71.51595468347351
2060.0,72.41460622049368,66.7489747682459,75.5106716477765,67.53306166074287,60.68413021991853,71.11078126305334
2120.0,72.4723031325332,66.59469247498596,75.78099055660113,67.51774920968315,59.993850037476236,71.25370411691084
2180.0,72.7622495476618,66.7451106859585,75.97839243306565,67.71484268333816,59.89808122528591,71.46837360487787
2240.0,72.90180266452525,66.65406492636914,75.98078401065577,67.82929035843802,59.91574958775554,71.51166285186319
2300.0,72.80022553910592,66.77771392278308,76.12305393793599,68.15351918733451,60.13329988604572,71.60408644060969
2360.0,73.08798299172764,67.55985076419394,76.45564288200394,68.88903505884855,61.017289887363916,72.00213960471125
2400.0,74.13271375298677,68.20823477195114,76.68731097432916,69.78631302576794,61.985314479992226,72.5649767164613
2500.0,74.62536145757204,68.01879552653885,76.93167868978102,70.10017988271335,61.95094407395406,72.85481055441831
2580.0,74.71554052112808,68.0001377539523,77.04159170864925,70.10960480465576,61.35073801286049,72.92916178185375
2650.0,75.24386104969308,68.86297732492419,77.02417780006716,70.49345223570873,60.882161194477305,73.1794987635068
2720.0,75.91594986147238,70.25907905606765,77.50322172374476,71.17233225663578,61.21744095381297,73.81514481319202
2800.0,75.6833012335067,71.3161576694916,78.07105530707682,71.85313583399933,61.73934740372914,74.19962006390662
2900.0,75.32465455577376,71.37196180353392,77.98635807500095,72.30383391421792,61.87068161908668,74.12379949773347
3000.0,74.9920651525661,71.05548115391235,77.50355756410798,72.29979096781774,62.04621626045626,73.77232832029881
3070.0,74.41121003313772,70.79171621858302,77.24072829089955,72.35215632444708,61.949180693402596,73.47690978562328
3150.0,74.51130580069211,70.7159498614724,77.22682710856826,72.74367678089457,62.146879504033805,73.55274959316594
3250.0,74.46769749015168,70.39521774931056,76.73719282677787,72.79055795946155,62.076042037772496,73.29314904792689
