Freq,On Axis,Listening Window,Sound Power,Early Reflections,Early Reflections DI,Sound Power DI,DI offset
22.4,32.19620253164558,33.24060935134807,32.95289361549575,33.06285946576503,50.17774988558304,50.287715735852316,50
23.0,34.796202531645605,35.87468415048804,35.63071554735032,35.716890640739365,50.15779350974867,50.243968603137716,50
23.6,37.19620253164558,38.27255137528863,38.06255728722462,38.124019710216174,50.148531665072454,50.20999408806401,50
24.0,38.89620253164557,39.971724201345495,39.71349044036296,39.80033917515385,50.17138502619164,50.258233760982534,50
25.0,40.89620253164557,41.49930511238412,40.76713266367619,41.07927420930946,50.42003090307466,50.73217244870793,50
25.8,42.69620253164558,43.00857696911939,41.85333614816824,42.37534955571874,50.63322741340065,51.15524082095115,50
26.5,44.496202531645565,44.554037478385226,43.079185683619386,43.776066677329396,50.77797080105583,51.47485179476584,50
27.2,46.39620253164557,46.31332723359577,44.57061046943829,45.40378069983021,50.909546533765564,51.74271676415748,50
28.0,48.19620253164558,47.96392537560848,45.99704794431372,46.952781062701035,51.01114431290745,51.96687743129476,50
29.0,49.69620253164558,49.38988276913764,47.254489181873396,48.305670548200794,51.08421222093685,52.13539358726425,50
30.0,51.69620253164558,51.498467727799806,49.68168132487011,50.59509213825132,50.90337558954849,51.816786402929694,50
30.7,54.09620253164556,54.04751910391295,52.47893636128825,53.285861454247026,50.76165764966592,51.5685827426247,50
31.5,57.19620253164558,57.21197966764524,55.74571947967905,56.497185710657334,50.714793956987904,51.466260187966185,50
32.5,59.79620253164558,59.83232520471236,58.453454463467324,59.182851180418965,50.6494740242934,51.37887074124504,50
33.5,61.496202531645565,61.60996800984145,60.27446786018302,60.980671175114225,50.62929683472723,51.33550014965843,50
34.5,63.59620253164556,63.71101196339163,62.273626522242154,62.86860660162279,50.84240536176884,51.43738544114947,50
35.5,65.59620253164556,65.62249523771095,63.98089896037172,64.40028936699775,51.222205870713196,51.64159627733923,50
36.5,67.59620253164556,67.64505312469353,65.86432705576294,66.18934749801136,51.455705626682175,51.78072606893059,50
37.5,69.89620253164557,69.94686686487006,68.12243044507562,68.37950063882872,51.567366226041344,51.82443641979444,50
38.7,72.49620253164557,72.50212108521305,70.59013425549941,70.81998692701035,51.6821341582027,51.91198682971364,50
40.0,74.79620253164555,74.69180113770159,71.97790447240968,72.5228601351557,52.16894100254589,52.71389666529191,50
41.2,76.99620253164557,76.77141745075932,73.29491009055468,74.19052141157968,52.580896039179635,53.476507360204636,50
42.5,78.99620253164557,78.74899644212903,74.75462786253982,75.8896772069124,52.85931923521663,53.99436857958921,50
43.7,80.99620253164557,80.6832384559596,76.3074830224702,77.64298962787012,53.040248828089474,54.3757554334894,50
45.0,82.79620253164556,82.4500551535409,77.80007835357006,79.47791480787697,52.97214034566393,54.649976799970844,50
46.2,84.39620253164557,84.02704362979703,79.19048636230363,81.15856445095473,52.86847917884231,54.836557267493404,50
47.5,85.79620253164558,85.44856626198124,80.51606052879055,82.64541463061778,52.80315163136346,54.932505733190695,50
48.7,87.39620253164557,87.03794780220096,82.08655043999448,84.31575018366672,52.72219761853424,54.95139736220648,50
50.0,88.99620253164557,88.69082174590118,84.01413852365434,86.21097353741726,52.479848208483915,54.67668322224684,50
51.5,90.69620253164557,90.40131186820173,85.88243631011461,88.05717615507514,52.34413571312659,54.51887555808712,50
53.0,92.49620253164557,92.21177671328543,87.77828575280134,89.93777445048613,52.2740022627993,54.43349096048409,50
54.5,94.39620253164557,94.11177671328544,89.82416060773329,91.91445548696937,52.19732122631606,54.28761610555215,50
56.0,96.59620253164557,96.26825530899917,92.09105091514297,94.12386414116088,52.14439116783829,54.1772043938562,50
58.0,97.99620253164557,97.7234885212958,93.65029887425716,95.63344452906546,52.09004399223035,54.073189647038646,50
60.0,98.79620253164556,98.51177671328543,94.47844802581618,96.44346740721423,52.0683093060712,54.03332868746925,50
61.5,99.19620253164557,98.91177671328543,94.93144016305028,96.88003204615445,52.03174466713098,53.98033655023515,50
63.0,99.29620253164556,99.00056246264737,95.02081217481758,96.97365953469695,52.02690292795042,53.97975028782979,50
65.0,98.99620253164557,98.70056246264735,94.75370483595447,96.72593857152185,51.9746238911255,53.94685762669289,50
67.0,98.59620253164559,98.33311562563988,94.40021608480141,96.39825969944553,51.934855926194345,53.93289954083846,50
69.0,98.29620253164558,98.01127261069234,94.08558738995414,96.11593627795533,51.89533633273702,53.9256852207382,50
71.0,98.09620253164557,97.7885501961136,93.86941342313617,95.91094844031934,51.87760175579426,53.91913677297744,50
73.0,97.99620253164557,97.68855019611361,93.78031108526974,95.85032505027162,51.83822514584199,53.908239110843866,50
75.0,97.89620253164557,97.59928997199893,93.68591986547801,95.76263617200104,51.83665379999789,53.913370106520915,50
77.5,97.89620253164557,97.59978396147972,93.71291031293462,95.78247767858808,51.817306282891636,53.88687364854509,50
80.0,97.89620253164557,97.62219350949347,93.70105680441738,95.77868082279011,51.84351268670336,53.921136705076094,50
82.5,97.89620253164557,97.61175376500479,93.62944997531027,95.73736962071462,51.874384144290175,53.98230378969453,50
85.0,97.89620253164557,97.55763872468867,93.45260017663433,95.60900270201614,51.94863602267253,54.10503854805434,50
87.5,97.59620253164556,97.3127391180601,93.11320872228846,95.29985397878636,52.012885139273735,54.19953039577163,50
90.0,97.59620253164556,97.23639770147273,92.96614075656083,95.19047902069269,52.045918680780034,54.27025694491189,50
92.5,97.59620253164556,97.29250036516176,92.94308463309495,95.19580033560285,52.0967000295589,54.3494157320668,50
95.0,97.79620253164556,97.42622922490287,93.0081360575659,95.28545988179334,52.140769343109525,54.41809316733696,50
97.5,97.79620253164556,97.50251503120947,93.05197547044908,95.34480447976978,52.15771055143969,54.45053956076039,50
100.0,97.79620253164556,97.45816097825278,92.99165045576613,95.2952415155885,52.16291946266428,54.466510522486644,50
103.0,97.69620253164557,97.39127680875104,92.94027966544992,95.22445885008364,52.16681795866741,54.45099714330112,50
106.0,97.79620253164556,97.5346209767768,93.1630653731632,95.42499638031413,52.109624596462666,54.37155560361359,50
109.0,98.19620253164557,97.90152735545601,93.5300210935235,95.79738433179021,52.1041430236658,54.37150626193251,50
112.0,98.59620253164559,98.3117537650048,93.96790777792329,96.23422984487472,52.077523920130076,54.34384598708151,50
115.0,99.09620253164557,98.81175376500478,94.50861184926704,96.76051097025923,52.05124279474555,54.30314191573774,50
118.0,99.49620253164557,99.19127680875104,94.85731070883521,97.12943176561748,52.06184504313356,54.33396609991583,50
122.0,99.59620253164557,99.2591358593955,94.86169197499677,97.18123123066505,52.07790462873045,54.397443884398726,50
125.0,99.49620253164557,99.17168688786433,94.71147804692183,97.06725635088952,52.1044305369748,54.4602088409425,50
128.0,99.79620253164555,99.3837821071827,94.84819528929754,97.2472416648439,52.1365404423388,54.53558681788516,50
132.0,99.99620253164557,99.59899307108748,94.97027130036841,97.40308146717342,52.195911603914055,54.62872177071907,50
136.0,100.09620253164556,99.63390816078737,94.85932474100476,97.3628166889034,52.27109147188398,54.774583419782616,50
140.0,100.09620253164556,99.61568053462247,94.67956402581036,97.26012384781706,52.355556686805414,54.936116508812106,50
145.0,99.79620253164555,99.35123170910714,94.21737845629303,96.88621893062195,52.46501277848519,55.133853252814106,50
150.0,99.59620253164557,99.03356433182613,93.74706952404149,96.49474030234865,52.53882402947748,55.286494807784635,50
155.0,99.39620253164557,98.88788199958488,93.47561922173155,96.28072347647529,52.60715852310959,55.41226277785333,50
160.0,99.39620253164557,98.83617450324584,93.25287916855115,96.14872405707757,52.68745044616827,55.5832953346947,50
165.0,99.39620253164557,98.79267357293,93.06628658198525,96.0498665630068,52.7428070099232,55.72638699094475,50
170.0,99.39620253164557,98.81644141885866,92.97669454052843,96.05452214353575,52.76191927532291,55.83974687833023,50
175.0,99.39620253164557,98.83905457616603,92.94087707703855,96.06845950863683,52.7705950675292,55.898177499127485,50
180.0,99.49620253164557,98.89551643269934,92.94806037374536,96.13023076916467,52.76528566353467,55.947456058953975,50
185.0,99.49620253164557,98.87580626609085,92.93398949575476,96.16050801654266,52.715298249548184,55.94181677033609,50
190.0,99.49620253164557,98.83544733447775,92.83536428810851,96.09723425188935,52.7382130825884,56.00008304636924,50
195.0,99.39620253164557,98.7582385705791,92.75942314134132,96.04401369239775,52.71422487818134,55.99881542923778,50
200.0,99.09620253164557,98.44764376202615,92.46528489461714,95.75857426375515,52.689069498270996,55.982358867409005,50
206.0,98.79620253164556,98.16335165984013,92.18174178485415,95.47657858863245,52.68677307120768,55.98160987498598,50
212.0,98.79620253164556,98.1319423951538,92.18811914402625,95.47436138326424,52.65758101188956,55.943823251127554,50
218.0,98.59620253164559,97.84502032603247,91.95630018985686,95.22141334602718,52.62360698000529,55.88872013617561,50
224.0,98.09620253164557,97.31769978629738,91.39205259477241,94.66244861925475,52.655251167042636,55.92564719152497,50
230.0,97.49620253164557,96.73419006090216,90.70042323029864,94.01974374895781,52.71444631194436,56.033766830603525,50
236.0,97.39620253164557,96.52083535661436,90.31850409513338,93.70487693483176,52.8159584217826,56.20233126148098,50
240.0,97.89620253164557,96.97439905615609,90.56468249798381,94.05375630461324,52.92064275154284,56.40971655817228,50
250.0,98.79620253164556,97.78763525444148,91.138241732022,94.73515781834334,53.052477436098144,56.64939352241949,50
258.0,99.59620253164557,98.48242827910103,91.57358891400244,95.30761649435286,53.17481178474817,56.908839365098586,50
265.0,99.79620253164555,98.60866032676668,91.38980387649099,95.29606932050561,53.31259100626107,57.218856450275695,50
272.0,99.89620253164557,98.56020464427519,90.97096835859854,95.0364645471309,53.523740097144284,57.58923628567665,50
280.0,99.89620253164557,98.39332072280348,90.50639998371724,94.71938566998534,53.67393505281814,57.886920739086236,50
290.0,98.99620253164557,97.28487625737716,89.08833107195187,93.43574606193945,53.84913019543771,58.19654518542529,50
300.0,98.19620253164557,96.20339992159819,87.60333362614404,92.10427060507843,54.099129316519765,58.600066295454155,50
307.0,98.39620253164557,96.20543213763293,87.35113181137152,91.96935537198286,54.23607676565007,58.85430032626141,50
315.0,98.59620253164559,96.02733929443635,86.85514532942966,91.59096807183273,54.43637122260361,59.172193965006684,50
325.0,98.19620253164557,95.51801402802175,86.81163901812431,91.35616363304109,54.16185039498066,58.70637500989744,50
335.0,97.59620253164556,95.01041173698046,86.87085773753485,91.19780717791726,53.8126045590632,58.13955399944561,50
345.0,96.79620253164556,94.17474616312101,85.28653249357035,89.95418424157567,54.22056192154534,58.888213669550666,50
355.0,96.29620253164556,93.69869098484135,84.33685079051001,89.22078075984541,54.47791022499594,59.361840194331336,50
365.0,96.39620253164557,93.69504141036428,84.30915630037927,89.19188779871823,54.503153611646056,59.38588510998501,50
375.0,96.49620253164557,93.6555720631532,84.47248789671698,89.22389217178504,54.43167989136816,59.18308416643622,50
387.0,97.19620253164558,94.46425121142832,85.97664969541333,90.39098518896235,54.07326602246597,58.48760151601499,50
400.0,97.49620253164557,95.21524910919581,86.86847335588837,91.22907521508613,53.98617389410968,58.34677575330744,50
412.0,97.39620253164557,95.17570327875615,85.17464572381357,90.22361912937222,54.95208414938392,60.00105755494258,50
425.0,97.99620253164557,95.69818688880426,84.7459784141245,90.18807117743094,55.51011571137332,60.952208474679765,50
437.0,98.59620253164559,96.22558121270752,85.05445494974938,90.55724855883794,55.668332653869584,61.17112626295814,50
450.0,98.69620253164555,96.26789628697915,84.90617336321614,90.436426145557,55.83147014142216,61.36172292376301,50
462.0,98.69620253164555,96.33687222340384,85.13680189269931,90.42785122699448,55.90902099640937,61.200070330704534,50
475.0,99.09620253164557,96.74241690627517,86.01811634519886,90.99506022649513,55.74735667978004,60.724300561076305,50
487.0,99.69620253164558,97.40804367354944,87.16217247418555,91.91346323819951,55.49458043534993,60.24587119936389,50
500.0,99.59620253164557,97.42724533866254,87.29541335638676,92.00867640561475,55.418568933047794,60.131831982275784,50
515.0,99.19620253164557,97.00400426490897,86.71312600115427,91.53242785333356,55.47157641157541,60.290878263754706,50
530.0,98.69620253164555,96.45890599082132,86.06031945210165,90.92580902769645,55.533096963124876,60.39858653871967,50
545.0,98.59620253164559,96.367069260081,85.99556339686052,90.86997970528779,55.497089554793206,60.37150586322048,50
560.0,98.89620253164557,96.85605047017447,86.75059105609745,91.43437937200585,55.421671098168616,60.10545941407702,50
580.0,99.19620253164557,97.2637736205419,87.19138639644949,91.72637191173311,55.53740170880879,60.07238722409241,50
600.0,98.99620253164557,97.0423820971744,86.76261979223273,91.33135964591715,55.71102245125725,60.27976230494167,50
615.0,98.19620253164557,96.26307666017081,85.8902394387358,90.49474131423722,55.76833534593359,60.372837221435006,50
630.0,97.49620253164557,95.56349381512769,84.97088526316952,89.70346036281401,55.86003345231367,60.592608551958165,50
650.0,96.99620253164557,94.93459951441689,84.16365771246751,89.02043082490323,55.91416868951366,60.77094180194938,50
670.0,97.39620253164557,95.1510916686023,83.90471429404496,89.03457247246999,56.116519196132316,61.24637737455734,50
690.0,98.39620253164557,95.96254989816896,84.36503414716108,89.72521004014969,56.23733985801927,61.597515751007876,50
710.0,99.19620253164557,96.72972847968778,85.20775952240177,90.57417792577706,56.155550553910714,61.521968957286006,50
730.0,99.59620253164557,97.14663799689133,85.71414250419102,91.02589082900053,56.1207471678908,61.43249549270031,50
750.0,99.69620253164558,97.24593157962961,85.83977772203983,91.14552530830574,56.10040627132388,61.406153857589786,50
775.0,99.59620253164557,97.15305134602947,85.83072746243352,91.08012987968631,56.07292146634316,61.322323883595956,50
800.0,99.49620253164557,97.05519164842329,85.90786910098633,91.06680431555456,55.988387332868726,61.14732254743696,50
825.0,99.59620253164557,97.11734445415756,86.13420324357757,91.25972769252796,55.8576167616296,60.98314121057999,50
850.0,99.89620253164557,97.39244569548957,86.52042365382508,91.67036049941213,55.722085196077444,60.87202204166449,50
875.0,99.79620253164555,97.38555918735581,86.73332112529091,91.82258935425139,55.56296983310442,60.652238062064896,50
900.0,99.29620253164556,96.89489535042422,86.39248474333891,91.44815514449701,55.44674020592721,60.50241060708531,50
925.0,98.09620253164557,95.69633024407744,85.32086312325886,90.3571510455879,55.339179198489546,60.375467120818584,50
950.0,96.49620253164557,94.18983598552339,83.93708188536137,88.95420238809916,55.235633597424226,60.25275410016202,50
975.0,95.79620253164558,93.55091545523027,83.38437085738713,88.3973489270638,55.153566528166465,60.16654459784314,50
1000.0,96.29620253164556,94.03878165091346,83.78229885649557,88.84347068150106,55.195310969412404,60.25648279441789,50
1030.0,97.69620253164557,95.3765546720496,84.80407128971254,89.95256881586229,55.4239858561873,60.572483382337055,50
1060.0,98.79620253164556,96.4157109498672,85.52348545971294,90.79406085261736,55.62165009724984,60.89222549015426,50
1090.0,99.19620253164557,96.74618277610003,85.52015729024404,90.88762642729137,55.85855634880866,61.226025485855985,50
1120.0,99.19620253164557,96.74806499768917,85.30950218218541,90.75713576665311,55.99092923103606,61.43856281550376,50
1150.0,98.99620253164557,96.59693250311487,85.06657041705671,90.527069341166,56.069863161948874,61.53036208605816,50
1180.0,98.39620253164557,96.05529049741928,84.42261553556511,89.92400068026265,56.13128981715663,61.632674961854164,50
1220.0,97.99620253164557,95.66209813531924,84.02480680266909,89.55340699367464,56.1086911416446,61.63729133265015,50
1250.0,97.89620253164557,95.64448481960012,84.09010295989137,89.6180478245986,56.02643699500152,61.554381859708755,50
1280.0,97.79620253164556,95.61843263097981,84.18433726165911,89.69223741564446,55.926195215335355,61.4340953693207,50
1320.0,97.79620253164556,95.56559686611136,84.20618139862876,89.72065546481242,55.84494140129894,61.359415467482606,50
1360.0,97.39620253164557,95.06809633597716,83.78087231346456,89.3140234092927,55.75407292668446,61.2872240225126,50
1400.0,97.19620253164558,94.90638058605005,83.67217629575143,89.18947909881307,55.71690148723698,61.23420429029862,50
1450.0,98.19620253164557,95.67786188543492,84.36756202066594,89.97225580051547,55.70560608491945,61.31029986476898,50
1500.0,98.79620253164556,96.1701684035314,84.86076169612087,90.47795208123293,55.69221632229848,61.30940670741053,50
1550.0,99.19620253164557,96.33203216314715,85.03097451036419,90.6384903878426,55.69354177530455,61.30105765278296,50
1600.0,99.49620253164557,96.52896327447078,85.17074337428961,90.75455981916758,55.7744034553032,61.35821990018117,50
1650.0,99.59620253164557,96.58543516109948,85.09534870424687,90.66522340182634,55.920211759273144,61.49008645685261,50
1700.0,99.69620253164558,96.65791798918099,85.02012459710149,90.57799434474153,56.07992364443946,61.6377933920795,50
1750.0,99.49620253164557,96.46053092089498,84.7690461149537,90.31658067510128,56.143950245793704,61.691484805941286,50
1800.0,99.49620253164557,96.55412824033311,84.86544244738785,90.34791233236842,56.20621590796469,61.688685792945265,50
1850.0,98.99620253164557,96.27719216809932,84.65596886351382,90.02179285614487,56.25539931195445,61.6212233045855,50
1900.0,98.49620253164557,96.091319833431,84.57511226447227,89.88130690781139,56.21001292561961,61.516207568958734,50
1950.0,98.19620253164557,96.17345857093306,84.66762216050806,89.9549429457108,56.21851562522227,61.505836410425005,50
2000.0,97.79620253164556,95.92900089827022,84.32842832552942,89.6719965910788,56.25700430719142,61.6005725727408,50
2060.0,98.09620253164557,96.31108836560009,84.67427192856955,90.06934019471093,56.24174817088915,61.63681643703053,50
2120.0,98.69620253164555,97.04319781180472,85.38316585024096,90.74470910143579,56.29848871036893,61.66003196156376,50
2180.0,99.09620253164557,97.57582230402764,85.87209033491987,91.20131640240534,56.3745059016223,61.703731969107764,50
2240.0,99.19620253164557,97.47297791556639,85.67847730734722,91.0682714888505,56.40470642671589,61.79450060821917,50
2300.0,99.19620253164557,97.38954631984402,85.59790299876724,91.02318902586445,56.36635729397956,61.791643321076776,50
2360.0,99.49620253164557,97.64176461850107,85.84103654212261,91.30034930317682,56.341415315324255,61.80072807637846,50
2400.0,99.69620253164558,97.72942318023547,85.95621438796394,91.43092293034101,56.29850024989446,61.77320879227153,50
2500.0,99.79620253164555,97.74371187346745,86.00841154464727,91.50803866887438,56.23567320459307,61.73530032882017,50
2580.0,99.89620253164557,97.58151053820094,85.80979591604822,91.41886205554611,56.16264848265483,61.77171462215273,50
2650.0,99.39620253164557,96.82859477781457,85.04735855067932,90.70262087517887,56.12597390263571,61.78123622713525,50
2720.0,98.69620253164555,96.07309030698906,84.30762047674537,89.95487899372992,56.11821131325914,61.76546983024369,50
2800.0,98.29620253164558,95.73306809216123,83.96048246955019,89.56404565316403,56.1690224389972,61.77258562261105,50
