Freq "Listening Window"
22.4 33.04440681970249
23.0 35.67848161884248
23.6 38.076348843643046
24.0 39.77552166969994
25.0 41.303102580738596
25.8 42.81237443747381
26.5 44.35783494673967
27.2 46.11712470195019
28.0 47.76772284396293
29.0 49.19368023749209
30.0 51.30226519615425
30.7 53.851316572267365
31.5 57.015777135999656
32.5 59.63612267306681
33.5 61.4137654781959
34.5 63.51480943174607
35.5 65.4262927060654
36.5 67.44885059304795
37.5 69.75066433322448
38.7 72.3059185535675
40.0 74.49559860605603
41.2 76.57521491911376
42.5 78.55279391048346
43.7 80.48703592431403
45.0 82.25385262189533
46.2 83.83084109815147
47.5 85.25236373033567
48.7 86.84174527055538
50.0 88.49461921425561
51.5 90.20510933655618
53.0 92.01557418163986
54.5 93.91557418163987
56.0 96.0720527773536
58.0 97.52728598965025
60.0 98.31557418163986
61.5 98.71557418163987
63.0 98.80435993100178
65.0 98.5043599310018
67.0 98.1369130939943
69.0 97.81507007904676
71.0 97.59234766446805
73.0 97.49234766446804
75.0 97.40308744035336
77.5 97.40358142983416
80.0 97.42599097784789
82.5 97.41555123335922
85.0 97.36143619304312
87.5 97.11653658641453
90.0 97.04019516982716
92.5 97.0962978335162
95.0 97.23002669325729
97.5 97.30631249956389
100.0 97.2619584466072
103.0 97.19507427710549
106.0 97.33841844513121
109.0 97.70532482381043
112.0 98.11555123335921
115.0 98.61555123335923
118.0 98.99507427710549
122.0 99.06293332774992
125.0 98.97548435621877
128.0 99.18757957553713
132.0 99.40279053944191
136.0 99.4377056291418
140.0 99.41947800297689
145.0 99.15502917746159
150.0 98.83736180018056
155.0 98.69167946793931
160.0 98.63997197160027
165.0 98.59647104128442
170.0 98.62023888721309
175.0 98.64285204452045
180.0 98.69931390105377
185.0 98.67960373444528
190.0 98.63924480283217
195.0 98.56203603893354
200.0 98.25144123038058
206.0 97.96714912819456
212.0 97.93573986350825
218.0 97.6488177943869
224.0 97.12149725465181
230.0 96.53798752925658
236.0 96.3246328249688
240.0 96.77819652451052
250.0 97.59143272279591
258.0 98.28622574745546
265.0 98.41245779512111
272.0 98.3640021126296
280.0 98.19711819115791
290.0 97.08867372573161
300.0 96.00719738995264
307.0 96.00922960598736
315.0 95.83113676279078
325.0 95.32181149637618
335.0 94.81420920533489
345.0 93.97854363147545
355.0 93.5024884531958
365.0 93.49883887871873
375.0 93.45936953150763
387.0 94.26804867978275
400.0 95.01904657755024
412.0 94.97950074711056
425.0 95.50198435715869
437.0 96.02937868106194
450.0 96.07169375533357
462.0 96.14066969175829
475.0 96.5462143746296
487.0 97.21184114190388
500.0 97.23104280701699
515.0 96.80780173326339
530.0 96.26270345917575
545.0 96.17086672843541
560.0 96.65984793852891
580.0 97.06757108889632
600.0 96.84617956552881
615.0 96.06687412852523
630.0 95.3672912834821
650.0 94.73839698277132
670.0 94.95488913695675
690.0 95.76634736652338
710.0 96.53352594804221
730.0 96.95043546524576
750.0 97.04972904798406
775.0 96.9568488143839
800.0 96.85898911677772
825.0 96.921141922512
850.0 97.196243163844
875.0 97.18935665571024
900.0 96.69869281877864
925.0 95.50012771243188
950.0 93.9936334538778
975.0 93.35471292358469
1000.0 93.8425791192679
1030.0 95.18035214040401
1060.0 96.21950841822165
1090.0 96.54998024445445
1120.0 96.55186246604359
1150.0 96.40072997146929
1180.0 95.85908796577371
1220.0 95.46589560367369
1250.0 95.44828228795457
1280.0 95.42223009933423
1320.0 95.3693943344658
1360.0 94.8718938043316
1400.0 94.71017805440448
1450.0 95.48165935378937
1500.0 95.97396587188584
1550.0 96.1358296315016
1600.0 96.3327607428252
1650.0 96.38923262945391
1700.0 96.46171545753542
1750.0 96.26432838924941
1800.0 96.35792570868756
1850.0 96.08098963645375
1900.0 95.89511730178542
1950.0 95.97725603928748
2000.0 95.73279836662464
2060.0 96.11488583395452
2120.0 96.84699528015915
2180.0 97.37961977238206
2240.0 97.27677538392084
2300.0 97.19334378819846
2360.0 97.44556208685549
2400.0 97.53322064858989
2500.0 97.5475093418219
2580.0 97.38530800655536
2650.0 96.632392246169
2720.0 95.8768877753435
2800.0 95.53686556051565
2900.0 95.53152213860483
3000.0 95.96901389368381
3070.0 96.14689540261564
3150.0 96.06173846693243
3250.0 96.27419612412073
3350.0 96.03092786048953
3450.0 95.87782427041057
3550.0 96.04730084859777
3650.0 96.09920451245938
3750.0 96.63784879044127
3870.0 97.09783995216651
4000.0 97.19718162920297
4120.0 97.01648751566309
4250.0 96.80554361825318
4370.0 96.72308418193776
4500.0 96.58145016912788
4620.0 96.6124104566833
4750.0 96.4572878817431
4870.0 96.22435830021351
5000.0 96.3551845361826
5150.0 96.76536380435739
5300.0 97.10959262102368
5450.0 97.11336414335818
5600.0 97.58635351575552
5800.0 97.8850882702314
6000.0 97.73683348014242
6150.0 97.6329031746343
6300.0 97.14211655793822
6500.0 96.84912093469319
6700.0 97.3046424555051
6900.0 97.57878873431933
7100.0 97.50994492089566
7300.0 97.27698200544542
7500.0 97.02604828420354
7750.0 96.72048051649425
8000.0 96.10111348185549
8250.0 95.18548595920126
8500.0 94.72560859464825
8750.0 95.04911989171016
9000.0 95.46913819655704
9250.0 95.7625113828628
9500.0 95.57534848498614
9750.0 95.52734458646052
10000.0 95.34369721499192
10300.0 95.19864699146393
10600.0 95.4062589009184
10900.0 95.41569610731631
11200.0 95.45923802627038
11500.0 95.08274024788935
11800.0 94.57743087488791
12200.0 94.35582725018568
12500.0 94.29272167449099
12800.0 94.94360285176757
13200.0 95.65095416535907
13600.0 96.30436223880679
14000.0 96.73352729154867
14500.0 96.24414793877918
15000.0 94.61122252154348
15500.0 92.46185292338589
16000.0 90.42742125069412
16500.0 90.14909448329152
17000.0 90.29229725658979
17500.0 90.68516742673191
18000.0 90.7405767674087
18500.0 89.2703839128547
19000.0 87.73322778354688
19500.0 84.78419936216397
