Freq "Listening Window"
22.4 33.24060935134807
23.0 35.87468415048804
23.6 38.27255137528863
24.0 39.971724201345495
25.0 41.49930511238412
25.8 43.00857696911939
26.5 44.554037478385226
27.2 46.31332723359577
28.0 47.96392537560848
29.0 49.38988276913764
30.0 51.498467727799806
30.7 54.04751910391295
31.5 57.21197966764524
32.5 59.83232520471236
33.5 61.60996800984145
34.5 63.71101196339163
35.5 65.62249523771095
36.5 67.64505312469353
37.5 69.94686686487006
38.7 72.50212108521305
40.0 74.69180113770159
41.2 76.77141745075932
42.5 78.74899644212903
43.7 80.6832384559596
45.0 82.4500551535409
46.2 84.02704362979703
47.5 85.44856626198124
48.7 87.03794780220096
50.0 88.69082174590118
51.5 90.40131186820173
53.0 92.21177671328543
54.5 94.11177671328544
56.0 96.26825530899917
58.0 97.7234885212958
60.0 98.51177671328543
61.5 98.91177671328543
63.0 99.00056246264737
65.0 98.70056246264735
67.0 98.33311562563988
69.0 98.01127261069234
71.0 97.7885501961136
73.0 97.68855019611361
75.0 97.59928997199893
77.5 97.59978396147972
80.0 97.62219350949347
82.5 97.61175376500479
85.0 97.55763872468867
87.5 97.3127391180601
90.0 97.23639770147273
92.5 97.29250036516176
95.0 97.42622922490287
97.5 97.50251503120947
100.0 97.45816097825278
103.0 97.39127680875104
106.0 97.5346209767768
109.0 97.90152735545601
112.0 98.3117537650048
115.0 98.81175376500478
118.0 99.19127680875104
122.0 99.2591358593955
125.0 99.17168688786433
128.0 99.3837821071827
132.0 99.59899307108748
136.0 99.63390816078737
140.0 99.61568053462247
145.0 99.35123170910714
150.0 99.03356433182613
155.0 98.88788199958488
160.0 98.83617450324584
165.0 98.79267357293
170.0 98.81644141885866
175.0 98.83905457616603
180.0 98.89551643269934
185.0 98.87580626609085
190.0 98.83544733447775
195.0 98.7582385705791
200.0 98.44764376202615
206.0 98.16335165984013
212.0 98.1319423951538
218.0 97.84502032603247
224.0 97.31769978629738
230.0 96.73419006090216
236.0 96.52083535661436
240.0 96.97439905615609
250.0 97.78763525444148
258.0 98.48242827910103
265.0 98.60866032676668
272.0 98.56020464427519
280.0 98.39332072280348
290.0 97.28487625737716
300.0 96.20339992159819
307.0 96.20543213763293
315.0 96.02733929443635
325.0 95.51801402802175
335.0 95.01041173698046
345.0 94.17474616312101
355.0 93.69869098484135
365.0 93.69504141036428
375.0 93.6555720631532
387.0 94.46425121142832
400.0 95.21524910919581
412.0 95.17570327875615
425.0 95.69818688880426
437.0 96.22558121270752
450.0 96.26789628697915
462.0 96.33687222340384
475.0 96.74241690627517
487.0 97.40804367354944
500.0 97.42724533866254
515.0 97.00400426490897
530.0 96.45890599082132
545.0 96.367069260081
560.0 96.85605047017447
580.0 97.2637736205419
600.0 97.0423820971744
615.0 96.26307666017081
630.0 95.56349381512769
650.0 94.93459951441689
670.0 95.1510916686023
690.0 95.96254989816896
710.0 96.72972847968778
730.0 97.14663799689133
750.0 97.24593157962961
775.0 97.15305134602947
800.0 97.05519164842329
825.0 97.11734445415756
850.0 97.39244569548957
875.0 97.38555918735581
900.0 96.89489535042422
925.0 95.69633024407744
950.0 94.18983598552339
975.0 93.55091545523027
1000.0 94.03878165091346
1030.0 95.3765546720496
1060.0 96.4157109498672
1090.0 96.74618277610003
1120.0 96.74806499768917
1150.0 96.59693250311487
1180.0 96.05529049741928
1220.0 95.66209813531924
1250.0 95.64448481960012
1280.0 95.61843263097981
1320.0 95.56559686611136
1360.0 95.06809633597716
1400.0 94.90638058605005
1450.0 95.67786188543492
1500.0 96.1701684035314
1550.0 96.33203216314715
1600.0 96.52896327447078
1650.0 96.58543516109948
1700.0 96.65791798918099
1750.0 96.46053092089498
1800.0 96.55412824033311
1850.0 96.27719216809932
1900.0 96.091319833431
1950.0 96.17345857093306
2000.0 95.92900089827022
2060.0 96.31108836560009
2120.0 97.04319781180472
2180.0 97.57582230402764
2240.0 97.47297791556639
2300.0 97.38954631984402
2360.0 97.64176461850107
2400.0 97.72942318023547
2500.0 97.74371187346745
2580.0 97.58151053820094
2650.0 96.82859477781457
2720.0 96.07309030698906
2800.0 95.73306809216123
2900.0 95.72772467025041
3000.0 96.16521642532936
3070.0 96.34309793426122
3150.0 96.25794099857798
3250.0 96.47039865576629
3350.0 96.22713039213508
3450.0 96.07402680205612
3550.0 96.24350338024333
3650.0 96.29540704410493
3750.0 96.83405132208682
3870.0 97.29404248381209
4000.0 97.39338416084853
4120.0 97.21269004730867
4250.0 97.00174614989874
4370.0 96.91928671358335
4500.0 96.77765270077343
4620.0 96.80861298832889
4750.0 96.65349041338868
4870.0 96.42056083185909
5000.0 96.55138706782817
5150.0 96.96156633600295
5300.0 97.30579515266923
5450.0 97.30956667500375
5600.0 97.78255604740107
5800.0 98.08129080187697
6000.0 97.93303601178798
6150.0 97.82910570627986
6300.0 97.33831908958378
6500.0 97.04532346633877
6700.0 97.50084498715066
6900.0 97.77499126596491
7100.0 97.70614745254122
7300.0 97.47318453709099
7500.0 97.2222508158491
7750.0 96.91668304813983
8000.0 96.29731601350105
8250.0 95.38168849084683
8500.0 94.92181112629382
8750.0 95.24532242335572
9000.0 95.66534072820261
9250.0 95.95871391450838
9500.0 95.7715510166317
9750.0 95.72354711810607
10000.0 95.53989974663749
10300.0 95.39484952310951
10600.0 95.60246143256397
10900.0 95.61189863896188
11200.0 95.65544055791594
11500.0 95.2789427795349
11800.0 94.77363340653346
12200.0 94.55202978183124
12500.0 94.48892420613657
12800.0 95.13980538341313
13200.0 95.84715669700462
13600.0 96.50056477045236
14000.0 96.92972982319424
14500.0 96.44035047042475
15000.0 94.80742505318905
15500.0 92.65805545503144
16000.0 90.62362378233969
16500.0 90.34529701493707
17000.0 90.48849978823536
17500.0 90.88136995837748
18000.0 90.93677929905425
18500.0 89.46658644450028
19000.0 87.92943031519243
19500.0 84.98040189380954
