Freq "Sound Power"
22.4 32.95289361549575
23.0 35.63071554735032
23.6 38.06255728722462
24.0 39.71349044036296
25.0 40.76713266367619
25.8 41.85333614816824
26.5 43.079185683619386
27.2 44.57061046943829
28.0 45.99704794431372
29.0 47.254489181873396
30.0 49.68168132487011
30.7 52.47893636128825
31.5 55.74571947967905
32.5 58.453454463467324
33.5 60.27446786018302
34.5 62.273626522242154
35.5 63.98089896037172
36.5 65.86432705576294
37.5 68.12243044507562
38.7 70.59013425549941
40.0 71.97790447240968
41.2 73.29491009055468
42.5 74.75462786253982
43.7 76.3074830224702
45.0 77.80007835357006
46.2 79.19048636230363
47.5 80.51606052879055
48.7 82.08655043999448
50.0 84.01413852365434
51.5 85.88243631011461
53.0 87.77828575280134
54.5 89.82416060773329
56.0 92.09105091514297
58.0 93.65029887425716
60.0 94.47844802581618
61.5 94.93144016305028
63.0 95.02081217481758
65.0 94.75370483595447
67.0 94.40021608480141
69.0 94.08558738995414
71.0 93.86941342313617
73.0 93.78031108526974
75.0 93.68591986547801
77.5 93.71291031293462
80.0 93.70105680441738
82.5 93.62944997531027
85.0 93.45260017663433
87.5 93.11320872228846
90.0 92.96614075656083
92.5 92.94308463309495
95.0 93.0081360575659
97.5 93.05197547044908
100.0 92.99165045576613
103.0 92.94027966544992
106.0 93.1630653731632
109.0 93.5300210935235
112.0 93.96790777792329
115.0 94.50861184926704
118.0 94.85731070883521
122.0 94.86169197499677
125.0 94.71147804692183
128.0 94.84819528929754
132.0 94.97027130036841
136.0 94.85932474100476
140.0 94.67956402581036
145.0 94.21737845629303
150.0 93.74706952404149
155.0 93.47561922173155
160.0 93.25287916855115
165.0 93.06628658198525
170.0 92.97669454052843
175.0 92.94087707703855
180.0 92.94806037374536
185.0 92.93398949575476
190.0 92.83536428810851
195.0 92.75942314134132
200.0 92.46528489461714
206.0 92.18174178485415
212.0 92.18811914402625
218.0 91.95630018985686
224.0 91.39205259477241
230.0 90.70042323029864
236.0 90.31850409513338
240.0 90.56468249798381
250.0 91.138241732022
258.0 91.57358891400244
265.0 91.38980387649099
272.0 90.97096835859854
280.0 90.50639998371724
290.0 89.08833107195187
300.0 87.60333362614404
307.0 87.35113181137152
315.0 86.85514532942966
325.0 86.81163901812431
335.0 86.87085773753485
345.0 85.28653249357035
355.0 84.33685079051001
365.0 84.30915630037927
375.0 84.47248789671698
387.0 85.97664969541333
400.0 86.86847335588837
412.0 85.17464572381357
425.0 84.7459784141245
437.0 85.05445494974938
450.0 84.90617336321614
462.0 85.13680189269931
475.0 86.01811634519886
487.0 87.16217247418555
500.0 87.29541335638676
515.0 86.71312600115427
530.0 86.06031945210165
545.0 85.99556339686052
560.0 86.75059105609745
580.0 87.19138639644949
600.0 86.76261979223273
615.0 85.8902394387358
630.0 84.97088526316952
650.0 84.16365771246751
670.0 83.90471429404496
690.0 84.36503414716108
710.0 85.20775952240177
730.0 85.71414250419102
750.0 85.83977772203983
775.0 85.83072746243352
800.0 85.90786910098633
825.0 86.13420324357757
850.0 86.52042365382508
875.0 86.73332112529091
900.0 86.39248474333891
925.0 85.32086312325886
950.0 83.93708188536137
975.0 83.38437085738713
1000.0 83.78229885649557
1030.0 84.80407128971254
1060.0 85.52348545971294
1090.0 85.52015729024404
1120.0 85.30950218218541
1150.0 85.06657041705671
1180.0 84.42261553556511
1220.0 84.02480680266909
1250.0 84.09010295989137
1280.0 84.18433726165911
1320.0 84.20618139862876
1360.0 83.78087231346456
1400.0 83.67217629575143
1450.0 84.36756202066594
1500.0 84.86076169612087
1550.0 85.03097451036419
1600.0 85.17074337428961
1650.0 85.09534870424687
1700.0 85.02012459710149
1750.0 84.7690461149537
1800.0 84.86544244738785
1850.0 84.65596886351382
1900.0 84.57511226447227
1950.0 84.66762216050806
2000.0 84.32842832552942
2060.0 84.67427192856955
2120.0 85.38316585024096
2180.0 85.87209033491987
2240.0 85.67847730734722
2300.0 85.59790299876724
2360.0 85.84103654212261
2400.0 85.95621438796394
2500.0 86.00841154464727
2580.0 85.80979591604822
2650.0 85.04735855067932
2720.0 84.30762047674537
2800.0 83.96048246955019
2900.0 83.84472073906406
3000.0 84.15448509552623
3070.0 84.21645043621315
3150.0 84.06537251120716
3250.0 84.29455604189303
3350.0 83.9508977129518
3450.0 83.77616816046404
3550.0 83.9202671405883
3650.0 83.93453570634013
3750.0 84.42199382937218
3870.0 84.8320803601253
4000.0 84.94132342255075
4120.0 84.75517678806133
4250.0 84.56428990402247
4370.0 84.43386753280875
4500.0 84.23360341486551
4620.0 84.2862496248554
4750.0 84.17449684244346
4870.0 83.92053957774903
5000.0 84.04976088716386
5150.0 84.49180976263098
5300.0 84.8925615542068
5450.0 85.02778773015731
5600.0 85.55104964799136
5800.0 85.8767592121529
6000.0 85.76677963647055
6150.0 85.70148474661727
6300.0 85.19702731686426
6500.0 84.91835089062621
6700.0 85.31655017013844
6900.0 85.56956562236165
7100.0 85.49884180972049
7300.0 85.22250218756055
7500.0 84.93235210267207
7750.0 84.58613754105602
8000.0 83.90600727659246
8250.0 82.90710147392507
8500.0 82.43876154321333
8750.0 82.71477377182208
9000.0 83.08179266124787
9250.0 83.37532640323997
9500.0 83.16506045456661
9750.0 83.17682368757568
10000.0 83.04038373585523
10300.0 82.91296499451542
10600.0 83.06152641285023
10900.0 83.05538274315519
11200.0 83.10124927557439
11500.0 82.69385042246398
11800.0 82.19284253522122
12200.0 81.89763216775025
12500.0 81.79624488960056
12800.0 82.40801688293536
13200.0 83.09037554701948
13600.0 83.75328623566843
14000.0 84.29904537461287
14500.0 83.99779247594826
15000.0 82.38454376048708
15500.0 80.2936780000679
16000.0 78.40903941535198
16500.0 78.23791693700214
17000.0 78.46359081075707
17500.0 78.87117510149582
18000.0 78.73029125295805
18500.0 77.10846794835233
19000.0 75.61872218605777
19500.0 72.66697434526944
