Freq "On Axis"
22.4 8.33544303797467
23.0 9.135443037974682
23.6 9.935443037974693
24.0 10.83544303797467
25.0 11.83544303797467
25.8 12.735443037974647
26.5 13.83544303797467
27.2 15.035443037974687
28.0 16.235443037974676
29.0 17.63544303797468
30.0 18.935443037974693
30.7 20.235443037974676
31.5 21.63544303797468
32.5 23.235443037974676
33.5 24.735443037974676
34.5 26.235443037974676
35.5 27.83544303797467
36.5 29.435443037974693
37.5 30.935443037974693
38.7 32.53544303797469
40.0 34.43544303797469
41.2 36.03544303797469
42.5 37.63544303797468
43.7 39.13544303797468
45.0 40.735443037974676
46.2 42.43544303797469
47.5 44.235443037974676
48.7 45.93544303797469
50.0 47.53544303797469
51.5 49.03544303797469
53.0 50.63544303797468
54.5 52.13544303797468
56.0 53.53544303797469
58.0 54.835443037974684
60.0 56.3354430379747
61.5 57.63544303797468
63.0 58.8354430379747
65.0 59.93544303797469
67.0 61.03544303797469
69.0 61.93544303797469
71.0 62.63544303797468
73.0 63.335443037974684
75.0 63.935443037974665
77.5 64.43544303797468
80.0 64.83544303797468
82.5 65.13544303797468
85.0 65.33544303797467
87.5 65.53544303797469
90.0 65.63544303797468
92.5 65.83544303797468
95.0 66.03544303797469
97.5 66.13544303797468
100.0 66.3354430379747
103.0 66.53544303797469
106.0 66.83544303797468
109.0 67.23544303797469
112.0 67.63544303797468
115.0 68.03544303797469
118.0 68.33544303797468
122.0 68.53544303797469
125.0 68.8354430379747
128.0 68.93544303797466
132.0 68.93544303797466
136.0 68.8354430379747
140.0 68.8354430379747
145.0 68.63544303797468
150.0 68.63544303797468
155.0 68.63544303797468
160.0 68.73544303797469
165.0 68.93544303797466
170.0 69.23544303797468
175.0 69.53544303797469
180.0 69.73544303797469
185.0 69.9354430379747
190.0 70.03544303797469
195.0 70.03544303797469
200.0 70.13544303797468
206.0 70.13544303797468
212.0 70.2354430379747
218.0 70.33544303797467
224.0 70.33544303797467
230.0 70.2354430379747
236.0 70.13544303797468
240.0 70.13544303797468
250.0 70.2354430379747
258.0 70.33544303797467
265.0 70.33544303797467
272.0 70.13544303797468
280.0 70.03544303797469
290.0 69.9354430379747
300.0 70.13544303797468
307.0 70.33544303797467
315.0 70.33544303797467
325.0 70.13544303797468
335.0 70.03544303797469
345.0 70.13544303797468
355.0 70.43544303797468
365.0 70.63544303797468
375.0 70.63544303797468
387.0 70.43544303797468
400.0 70.53544303797469
412.0 70.43544303797468
425.0 70.33544303797467
437.0 70.2354430379747
450.0 70.03544303797469
462.0 70.03544303797469
475.0 70.33544303797467
487.0 70.33544303797467
500.0 70.03544303797469
515.0 70.03544303797469
530.0 70.2354430379747
545.0 70.43544303797468
560.0 70.33544303797467
580.0 70.2354430379747
600.0 70.63544303797468
615.0 70.73544303797469
630.0 70.43544303797468
650.0 70.53544303797469
670.0 70.43544303797468
690.0 70.2354430379747
710.0 70.03544303797469
730.0 69.83544303797468
750.0 69.43544303797468
775.0 68.93544303797466
800.0 68.23544303797469
825.0 67.63544303797468
850.0 68.53544303797469
875.0 69.9354430379747
900.0 70.63544303797468
925.0 70.83544303797468
950.0 70.43544303797468
975.0 70.2354430379747
1000.0 70.13544303797468
1030.0 69.23544303797468
1060.0 68.53544303797469
1090.0 68.33544303797468
1120.0 68.93544303797466
1150.0 69.23544303797468
1180.0 69.43544303797468
1220.0 69.43544303797468
1250.0 69.33544303797468
1280.0 69.23544303797468
1320.0 69.03544303797469
1360.0 69.03544303797469
1400.0 69.63544303797468
1450.0 70.2354430379747
1500.0 70.13544303797468
1550.0 69.9354430379747
1600.0 69.83544303797468
1650.0 69.9354430379747
1700.0 69.53544303797469
1750.0 68.8354430379747
1800.0 68.33544303797468
1850.0 68.03544303797469
1900.0 67.93544303797468
1950.0 68.33544303797468
2000.0 68.8354430379747
2060.0 69.53544303797469
2120.0 70.03544303797469
2180.0 70.53544303797469
2240.0 70.93544303797468
2300.0 71.03544303797469
2360.0 71.23544303797469
2400.0 71.43544303797466
2500.0 71.73544303797468
2580.0 71.73544303797468
2650.0 70.93544303797468
2720.0 69.83544303797468
2800.0 68.8354430379747
2900.0 68.13544303797468
3000.0 67.83544303797467
3070.0 67.83544303797467
3150.0 68.73544303797469
3250.0 69.43544303797468
3350.0 69.63544303797468
3450.0 70.2354430379747
3550.0 70.83544303797468
3650.0 70.83544303797468
3750.0 69.63544303797468
3870.0 68.23544303797469
4000.0 67.53544303797469
4120.0 67.4354430379747
4250.0 69.13544303797468
4370.0 69.53544303797469
4500.0 69.43544303797468
4620.0 68.23544303797469
4750.0 66.63544303797468
4870.0 65.83544303797468
5000.0 67.23544303797469
5150.0 67.83544303797467
5300.0 67.4354430379747
5450.0 66.73544303797468
5600.0 66.3354430379747
5800.0 68.8354430379747
6000.0 71.03544303797469
6150.0 71.93544303797468
6300.0 72.23544303797469
6500.0 72.33544303797468
6700.0 72.33544303797468
6900.0 72.03544303797469
7100.0 71.53544303797469
7300.0 71.53544303797469
7500.0 71.73544303797468
7750.0 71.23544303797469
8000.0 70.43544303797468
8250.0 70.03544303797469
8500.0 69.03544303797469
8750.0 67.83544303797467
9000.0 66.3354430379747
9250.0 64.63544303797468
9500.0 59.735443037974676
9750.0 63.43544303797469
10000.0 66.13544303797468
10300.0 64.63544303797468
10600.0 63.935443037974665
10900.0 67.83544303797467
11200.0 70.03544303797469
11500.0 69.73544303797469
11800.0 68.8354430379747
12200.0 68.33544303797468
12500.0 69.03544303797469
12800.0 68.43544303797468
13200.0 67.33544303797468
13600.0 65.83544303797468
14000.0 63.935443037974665
14500.0 59.53544303797469
15000.0 58.43544303797469
15500.0 64.9354430379747
16000.0 71.53544303797469
16500.0 73.8354430379747
17000.0 71.83544303797468
17500.0 65.83544303797468
18000.0 67.53544303797469
18500.0 68.8354430379747
19000.0 66.53544303797469
19500.0 60.835443037974684
