Freq,Floor Bounce,Ceiling Bounce,Front Wall Bounce,Side Wall Bounce,Rear Wall Bounce,Total Early Reflection
20.0,67.37869182389937,67.37869182389937,67.37869182389937,67.37869182389937,67.37869182389937,67.37869182389937
20.2909,67.76269182389939,67.76269182389939,67.76269182389939,67.76269182389939,67.76269182389939,67.76269182389939
20.586,68.06269182389937,68.06269182389937,68.06269182389937,68.06269182389937,68.06269182389937,68.06269182389937
20.8855,68.34469182389938,68.34469182389938,68.34469182389938,68.34469182389938,68.34469182389938,68.34469182389938
21.1893,68.66169182389939,68.66169182389939,68.66169182389939,68.66169182389939,68.66169182389939,68.66169182389939
21.4975,69.01269182389939,69.01269182389939,69.01269182389939,69.01269182389939,69.01269182389939,69.01269182389939
21.8102,69.36669182389937,69.36669182389937,69.36669182389937,69.36669182389937,69.36669182389937,69.36669182389937
22.1274,69.68469182389939,69.68469182389939,69.68469182389939,69.68469182389939,69.68469182389939,69.68469182389939
22.4492,69.98069182389938,69.98069182389938,69.98069182389938,69.98069182389938,69.98069182389938,69.98069182389938
22.7758,70.25569182389935,70.25569182389935,70.25569182389935,70.25569182389935,70.25569182389935,70.25569182389935
23.1071,70.52669182389937,70.52669182389937,70.52669182389937,70.52669182389937,70.52669182389937,70.52669182389937
23.4432,70.81169182389937,70.81169182389937,70.81169182389937,70.81169182389937,70.81169182389937,70.81169182389937
23.7841,71.12369182389936,71.12369182389936,71.12369182389936,71.12369182389936,71.12369182389936,71.12369182389936
24.1301,71.44469182389938,71.44469182389938,71.44469182389938,71.44469182389938,71.44469182389938,71.44469182389938
24.4811,71.72369182389937,71.72369182389937,71.72369182389937,71.72369182389937,71.72369182389937,71.72369182389937
24.8372,71.95269182389937,71.95269182389937,71.95269182389937,71.95269182389937,71.95269182389937,71.95269182389937
25.1984,72.16069182389936,72.16069182389936,72.16069182389936,72.16069182389936,72.16069182389936,72.16069182389936
25.5649,72.40169182389937,72.40169182389937,72.40169182389937,72.40169182389937,72.40169182389937,72.40169182389937
25.9368,72.68169182389937,72.68169182389937,72.68169182389937,72.68169182389937,72.68169182389937,72.68169182389937
26.3141,72.96969182389935,72.96969182389935,72.96969182389935,72.96969182389935,72.96969182389935,72.96969182389935
26.6968,73.25869182389937,73.25869182389937,73.25869182389937,73.25869182389937,73.25869182389937,73.25869182389937
27.0851,73.56569182389937,73.56569182389937,73.56569182389937,73.56569182389937,73.56569182389937,73.56569182389937
27.4791,73.88769182389937,73.88769182389937,73.88769182389937,73.88769182389937,73.88769182389937,73.88769182389937
27.8788,74.19969182389937,74.19969182389937,74.19969182389937,74.19969182389937,74.19969182389937,74.19969182389937
28.2843,74.51469182389937,74.51469182389937,74.51469182389937,74.51469182389937,74.51469182389937,74.51469182389937
28.6957,74.83469182389939,74.83469182389939,74.83469182389939,74.83469182389939,74.83469182389939,74.83469182389939
29.1131,75.14669182389937,75.14669182389937,75.14669182389937,75.14669182389937,75.14669182389937,75.14669182389937
29.5365,75.42869182389937,75.42869182389937,75.42869182389937,75.42869182389937,75.42869182389937,75.42869182389937
29.9661,75.70069182389938,75.70069182389938,75.70069182389938,75.70069182389938,75.70069182389938,75.70069182389938
30.402,75.96569182389938,75.96569182389938,75.96569182389938,75.96569182389938,75.96569182389938,75.96569182389938
30.8442,76.20269182389937,76.20269182389937,76.20269182389937,76.20269182389937,76.20269182389937,76.20269182389937
31.2929,76.44069182389937,76.44069182389937,76.44069182389937,76.44069182389937,76.44069182389937,76.44069182389937
31.748,76.68669182389937,76.68669182389937,76.68669182389937,76.68669182389937,76.68669182389937,76.68669182389937
32.2098,76.92069182389938,76.92069182389938,76.92069182389938,76.92069182389938,76.92069182389938,76.92069182389938
32.6783,77.13269182389936,77.13269182389936,77.13269182389936,77.13269182389936,77.13269182389936,77.13269182389936
33.1536,77.32569182389938,77.32569182389938,77.32569182389938,77.32569182389938,77.32569182389938,77.32569182389938
33.6359,77.50669182389937,77.50669182389937,77.50669182389937,77.50669182389937,77.50669182389937,77.50669182389937
34.1251,77.68269182389938,77.68269182389938,77.68269182389938,77.68269182389938,77.68269182389938,77.68269182389938
34.6215,77.85269182389939,77.85269182389939,77.85269182389939,77.85269182389939,77.85269182389939,77.85269182389939
35.125,78.00469182389936,78.00469182389936,78.00469182389936,78.00469182389936,78.00469182389936,78.00469182389936
35.6359,78.16169182389937,78.16169182389937,78.16169182389937,78.16169182389937,78.16169182389937,78.16169182389937
36.1543,78.31769182389937,78.31769182389937,78.31769182389937,78.31769182389937,78.31769182389937,78.31769182389937
36.6802,78.42869182389937,78.42869182389937,78.42869182389937,78.42869182389937,78.42869182389937,78.42869182389937
37.2137,78.50169182389936,78.50169182389936,78.50169182389936,78.50169182389936,78.50169182389936,78.50169182389936
37.755,78.56769182389937,78.56769182389937,78.56769182389937,78.56769182389937,78.56769182389937,78.56769182389937
38.3041,78.63469182389937,78.63469182389937,78.63469182389937,78.63469182389937,78.63469182389937,78.63469182389937
38.8613,78.70969182389938,78.70969182389938,78.70969182389938,78.70969182389938,78.70969182389938,78.70969182389938
39.4265,78.78569182389938,78.78569182389938,78.78569182389938,78.78569182389938,78.78569182389938,78.78569182389938
40.0,78.85669182389937,78.85669182389937,78.85669182389937,78.85669182389937,78.85669182389937,78.85669182389937
40.5818,78.91969182389937,78.91869182389937,78.9195489808532,78.91889184232089,78.91916553681259,78.91919801809081
41.1721,78.97335851614966,78.97069182389937,78.9732632806654,78.97179192636823,78.97221861679928,78.9722649454429
41.771,79.02569190065222,79.01902518281763,79.02469195546809,79.0216923305105,79.02258889850758,79.02273868548208
42.3785,79.0886921309107,79.07669190065222,79.08697785769365,79.08189338522567,79.0835412161974,79.08356132343195
42.9949,79.14669251467488,79.12869213091072,79.14454986890117,79.13649575722229,79.13913055149467,79.13911682532364
43.6203,79.17669305194467,79.15102564335231,79.17340784336442,79.1618998111018,79.16583360639298,79.1657814297939
44.2548,79.18369374272007,79.14869251467488,79.17926670091055,79.1636065526962,79.16896967926562,79.1688633923822
44.8985,79.20569558478755,79.16002671793314,79.19969724996592,79.17921725988285,79.18633203215781,79.18622359722247
45.5515,79.26636404214003,79.20902748549078,79.25870053798502,79.23273131054319,79.2421885978342,79.24184946411218
46.2141,79.30236695863353,79.23202840655986,79.29284817526049,79.26095331530477,79.27249169840253,79.2722085023387
46.8863,79.22937048912436,79.14436342870682,79.21771135251083,79.17918139436249,79.19298383941657,79.1928253863475
47.5683,79.16804245086314,79.06769949917962,79.15428987585851,79.10851659825293,79.12509408070125,79.12487261651636
48.2602,79.12704736265648,79.0097011109876,79.1108714778064,79.05716345658634,79.07693069704625,79.07653997585845
48.9621,79.00472106332298,78.86903915235867,78.98574069651944,78.92372186717765,78.9467669653481,78.94626117500917
49.6743,78.8763957354989,78.72137578684612,78.85475478822154,78.78379075573686,78.81018869636749,78.80964485666945
50.3968,78.78573794692973,78.61004867005508,78.76106059160924,78.68048085962326,78.71078218190694,78.71006348382882
51.1299,78.72941875768603,78.53238921958626,78.70165286002177,78.61108217788953,78.64544934071739,78.64455374878816
51.8736,78.71309670247592,78.49306402115634,78.68182180591629,78.5804054193217,78.61920167133724,78.61821040116455
52.6281,78.71811143605899,78.47407123616458,78.68327922328281,78.57095472498574,78.61425061435314,78.61298459091378
53.3936,78.76079710397642,78.49141447308153,78.7215982052445,78.59742166686081,78.64593587748158,78.644469598454
54.1702,78.83215118591372,78.53709656540128,78.78949297909871,78.65291961468503,78.70630191575218,78.70483692606032
54.9581,78.88717411321765,78.56444210600134,78.84039718747445,78.6909443660789,78.74974517103055,78.74802907353816
55.7575,78.91386545408099,78.56312742091714,78.86301825240491,78.69999876679458,78.76484089495449,78.76272941044692
56.5685,78.91622513715926,78.53581462756954,78.86050113497348,78.68408891217746,78.75481705515301,78.752355936461
57.3914,78.91792023541105,78.50717040354259,78.85770811470616,78.66660799319442,78.74362234649627,78.74101642818215
58.2261,78.92528848378804,78.48252807452295,78.86020597324932,78.65387682841381,78.73785789626199,78.73475243901655
59.073,78.91532561527445,78.44022090785569,78.84514274009905,78.62378325089526,78.71436182392446,78.71099004410075
59.9323,78.78136520156045,78.27225314449774,78.70551063493423,78.46843214284999,78.56607140924191,78.56242424438696
60.804,78.61174085373668,78.06862570916907,78.53131965836889,78.27774171050336,78.3829479752155,78.37868639924112
61.6884,78.54445790305941,77.96466316619484,78.45799312877057,78.18769470897261,78.30057432993743,78.29587052098623
62.5857,78.54850515492328,77.9323748751195,78.45653099601952,78.16909962348458,78.29005961517996,78.28472652529614
63.496,78.55222807865924,77.89875642427648,78.4543655514214,78.14926979478739,78.27842510568391,78.27269557190004
64.4196,78.53761424166437,77.84581360672018,78.43349279116286,78.11069365886095,78.24829533986613,78.24199816145115
65.3566,78.51366915694715,77.78220789464031,78.40362802005956,78.06218526229091,78.2086192548729,78.20168023656399
66.3073,78.50140073331113,77.7295994505916,78.38463902979275,78.02473772984388,78.18028155983798,78.17260548228475
67.2717,78.50513542296679,77.69168188045985,78.38166010683155,78.002556232616,78.16740948376757,78.15909483383382
68.2502,78.51254819293192,77.6567547926336,78.38268754115764,77.98405456986373,78.15834056690755,78.14928236421476
69.2429,78.4876141404285,77.58950605657671,78.35086466975628,77.9324295800061,78.11658357260731,78.10685329462886
70.2501,78.39469201278155,77.4526036764848,78.25091797710783,77.81229153473471,78.00643361392918,77.99598137495107
71.2719,78.28478133674443,77.2977068208561,78.13441737472155,77.67503709681495,77.87957419101144,77.8681218306384
72.3086,78.20420837597487,77.17147285308357,78.04619844005794,77.56607274611531,77.78107924225377,77.76891817247464
73.3603,78.11196244423145,77.03292968219064,77.9465730635191,77.44568982381405,77.67142955416988,77.65819784702265
74.4274,77.92206287100868,76.79572624501861,77.74952934979086,77.2271244327452,77.46380789039691,77.4495952635741
75.5099,77.61882349384588,76.44452929271958,77.43849948692156,76.89461385461927,77.14239592076598,77.12725844135312
76.6083,77.28292120732374,76.06000556614629,77.09535453551017,76.52932545183101,76.7884421229093,76.77232907090092
77.7226,76.9973663701001,75.72484512271505,76.80191244211483,76.21372525045447,76.48461895052174,76.46733867384246
78.8531,76.88813668958866,75.56501431263258,76.68463551243849,76.074253546798,76.35676532156901,76.3384302781542
80.0,77.0392550929786,75.66587054307196,76.8276595255252,76.19508773708722,76.48928205871718,76.46998134047763
81.1636,77.20536606337949,75.78005529432005,76.98568666284966,76.33043840620361,76.63684917603551,76.61624291444787
82.3442,77.29449172938513,75.81727564033945,77.06687718132955,76.38886280045546,76.70723915353963,76.68559955606129
83.5419,77.36760932282995,75.83715773230291,77.13180318550204,76.43065506694963,76.76124111069275,76.73855500270284
84.757,77.4207422491728,75.83639708396491,77.1764549766987,76.4525497730364,76.79562993641251,76.77152218192626
85.9899,77.41121319402527,75.77297945711655,77.15868479958206,76.41147239357277,76.76705374986102,76.74183880314712
87.2406,77.30368799690876,75.61027147246392,77.04265590332548,76.27231733095844,76.6404307941178,76.61394714342256
88.5096,77.14281920170058,75.39422526644525,76.87331990235113,76.07967131804652,76.46045122700818,76.43277034264291
89.797,76.91661922754466,75.11185693099182,76.63831434324034,75.82167005677921,76.21490764950144,76.18606042924031
91.1031,76.70677048296139,74.84551797804383,76.41975018164001,75.5797160388803,75.98575878317045,75.95570606922078
92.4282,76.5289114159127,74.61085824319342,76.23361036943584,75.37028030136472,75.78922245662365,75.75769494598987
93.7726,76.33372109761875,74.35823063993197,76.02962245161399,75.14286578600442,75.57445887392475,75.54192394586242
95.1366,76.19586832714792,74.16195046524246,75.88282019598117,74.9729417244632,75.41717238520239,75.38344680852055
96.5204,76.45168422337497,74.35901728469312,76.1295599596618,75.1966470353386,75.65324128664376,75.61857730892561
97.9243,77.2935032187625,75.1417866591768,76.96262931268289,76.00643222164038,76.4758856674276,76.43995556662122
99.3486,78.48900997126549,76.27823816208756,78.14956111601693,77.1705092050075,77.65235855615758,77.6152848058312
100.794,79.44383551358807,77.17339527029334,79.0950411532726,78.09323821735747,78.58738111910648,78.54947994929418
102.26,79.96299874474592,77.63256922494452,79.60529946191471,78.58087547049738,79.08729408232017,79.04836796417489
103.747,80.10014476163737,77.70976002115124,79.73353088833369,78.68701314661227,79.2051442254213,79.16541279855454
105.256,79.99531390189742,77.54366038649832,79.61936961366189,78.5505760343448,79.08051837563671,79.0400788708319
106.787,79.81679978358093,77.30457921855907,79.43231106297256,78.34141814575582,78.88293764549371,78.84174889699693
108.34,79.63664014589199,77.0631834183233,79.24285594031967,78.13035135103458,78.68318860754314,78.64144328405222
109.916,79.42644420414202,76.79150137090821,79.02370540281363,77.88994454228065,78.45363614903468,78.41140451450482
111.515,79.20462484284786,76.50817253551418,78.79282750048287,77.6377245447409,78.21227665701815,78.16973306946687
113.137,79.10112089877359,76.34322785389256,78.68024570284776,77.50480543294373,78.08939646536308,78.0466771920899
114.783,79.1049314008268,76.28530510096472,78.67526643146364,77.47927315738902,78.07405983935817,78.03110930807631
116.452,79.1654320743037,76.28407124310783,78.72655830239098,77.51064802884382,78.11469737270059,78.07211492662387
118.146,79.21858152779762,76.27555915085514,78.77111783566295,77.53523291238702,78.14868635766678,78.1062498475776
119.865,79.21273293327702,76.2074037925827,78.75639364972085,77.50144774286052,78.12335860939088,78.08136765977014
121.608,79.1535512273298,76.08664094854765,78.68812009406885,77.41441557229075,78.0445281111697,78.00326225555787
123.377,78.99901700524993,75.87090377861553,78.52497615996273,77.23298395479134,77.8704141219838,77.83022953831772
125.171,78.75883878247878,75.56919226863903,78.27583074372924,76.96630472209083,77.61068671530063,77.57158448522273
126.992,78.38266243050096,75.13150640425206,77.89096555189343,76.56414589974892,77.214623518303,77.177113849315
128.839,78.03546800786005,74.72355184527729,77.53496530769061,76.19163604805505,76.84770574337836,76.81192030820881
130.713,77.77793985772371,74.4049987608628,77.26909130549781,75.90947907174655,76.5706587419172,76.53670828551441
132.615,77.68003170493921,74.24676760739084,77.16264335641148,75.78768117425342,76.45278037187411,76.42127108622063
134.543,77.69919679226045,74.20531445399868,77.17300988064585,75.78287289540853,76.4514698379403,76.42277031405715
136.5,77.62198143085168,74.06885035325165,77.08754089982477,75.68306822703724,76.35411807853902,76.32856499612971
138.486,77.33110238133595,73.71912683873678,76.7886555809324,75.3705817906992,76.04331974502267,76.02108798318814
140.5,76.80853280556144,73.13810234506154,76.25783976883564,74.82715385802493,75.50038951701809,75.48201974079194
142.544,76.22432015006476,72.49615544224693,75.66577137442276,74.22297299363767,74.89588945000932,74.881722304463
144.617,75.76075199601983,71.97552816387358,75.19425215438774,73.74015801636186,74.41175188758949,74.40225854929689
146.721,75.46182795725154,71.61964788887556,74.88744837398801,73.42253277207894,74.09153913733385,74.08748281218672
148.855,74.81356875832921,70.9154688340705,74.23173619211884,72.75642408324545,73.4221336266682,73.42383074483908
151.02,73.70964553137456,69.75704124590226,73.12073898712045,71.63649436335908,72.29701622711332,72.30513267988245
153.217,72.72503029198066,68.71826351180522,72.1282304330801,70.63599836542048,71.29071249166803,71.30556481758359
155.445,72.81541524874025,68.75562677555999,72.21147038407307,70.71169760891854,71.35944535049235,71.3815732111424
157.706,74.03515726340504,69.92369594661795,73.42410832892224,71.91731393103319,72.55703252942729,72.58714695585316
160.0,75.5258499386328,71.36335623912994,74.90744161754829,73.39557938578055,74.02501874088796,74.06391365292554
162.327,76.70887849858256,72.49710865509986,76.0840028974568,74.5667960280126,75.18553272119021,75.23361633661172
164.688,77.39021438565128,73.13001369621708,76.75855415852443,75.23765615733473,75.84354953374573,75.90175861287851
167.084,77.67521438565127,73.36856593178832,77.03782103530831,75.51357466578685,76.10542786214293,76.17435648339142
169.514,77.723550324085,73.37148856161798,77.08001694250413,75.55366384574272,76.12982328506934,76.21032731783492
171.98,77.65819349459638,73.26211699371088,77.00832799022048,75.48057882729137,76.03938806003617,76.13261431519562
174.481,77.56183671795085,73.1237834804673,76.90688063468775,75.37909999465154,75.91889281904085,76.02509110147334
177.019,77.4201233231751,72.94188629548438,76.75984576691073,75.23265199098915,75.75200275688579,75.87224377380424
179.594,77.25376670503795,72.7359620389698,76.58793091638529,75.06221098549621,75.55900655574808,75.69462649925387
182.206,77.12705362724753,72.57274358368046,76.45710517478061,74.9338989423433,75.40659217649193,75.55796951429036
184.856,76.90364819232852,72.31429695785793,76.22879779030984,74.70905664692711,75.15564080888612,75.32428397531143
187.545,77.07024311860354,72.44822247612493,76.39105254412368,74.87576575089889,75.2942440048711,75.4811967224808
190.273,78.20743405461477,73.55478784186319,77.52454796757438,76.01491280487178,76.40331849405656,76.60940293887552
193.041,79.7603379429082,75.07905472865697,79.07426206849817,77.57102327017508,77.92724647558467,78.15373702972381
195.849,81.34022316682976,76.63295240085071,80.65082806066674,79.15514122954207,79.47725330952532,79.72532926224494
198.697,82.54246484633458,77.81096141105438,81.85007118259935,80.36272862604156,80.64834036532875,80.91952457478736
201.587,83.1439687777519,78.39193057986013,82.44984582468928,80.97212663261976,81.21876083526733,81.514162441888
204.52,83.36913811389203,78.59834513402626,82.67232196087849,81.20515720931425,81.41093287093909,81.73208086947172
207.494,83.3746457889533,78.58805385836055,82.67699963760074,81.2207610899517,81.3833751374455,81.73151758711883
210.512,83.21215535488389,78.41212930001343,82.51309325386332,81.06933018905386,81.18622171743039,81.56296599061437
213.574,82.86897627958885,78.05849427700652,82.16960570094035,80.73853825468088,80.80731899768094,81.21438591245155
216.681,82.2604460222043,77.44314550285915,81.56164996540448,80.14515381501855,80.16234273643215,80.60144803564319
219.833,81.55789245794199,76.73590632348099,80.85893498935485,79.45786112030807,79.42151734593064,79.89426382158368
223.03,81.02870533137671,76.2056195330348,80.33106427635916,78.94611473821992,78.85287262025581,79.36141317419819
226.274,80.66949559369141,75.84794517335149,79.97355616969207,78.60562797660583,78.45339705277782,78.99905661007867
229.565,80.25260094608382,75.43729909983195,79.55964074738543,78.20932968025474,77.99484396684578,78.57997136572328
232.905,79.89102265624282,75.08401279264883,79.20084963905484,77.86956764489035,77.58956660817493,78.21631289955704
236.292,80.06943537875807,75.27467061423248,79.38348511961374,78.07150489822976,77.7224686946463,78.39349552417043
