Freq "Rear Wall Bounce"
20.0 67.37869182389937
20.2909 67.76269182389939
20.586 68.06269182389937
20.8855 68.34469182389938
21.1893 68.66169182389939
21.4975 69.01269182389939
21.8102 69.36669182389937
22.1274 69.68469182389939
22.4492 69.98069182389938
22.7758 70.25569182389935
23.1071 70.52669182389937
23.4432 70.81169182389937
23.7841 71.12369182389936
24.1301 71.44469182389938
24.4811 71.72369182389937
24.8372 71.95269182389937
25.1984 72.16069182389936
25.5649 72.40169182389937
25.9368 72.68169182389937
26.3141 72.96969182389935
26.6968 73.25869182389937
27.0851 73.56569182389937
27.4791 73.88769182389937
27.8788 74.19969182389937
28.2843 74.51469182389937
28.6957 74.83469182389939
29.1131 75.14669182389937
29.5365 75.42869182389937
29.9661 75.70069182389938
30.402 75.96569182389938
30.8442 76.20269182389937
31.2929 76.44069182389937
31.748 76.68669182389937
32.2098 76.92069182389938
32.6783 77.13269182389936
33.1536 77.32569182389938
33.6359 77.50669182389937
34.1251 77.68269182389938
34.6215 77.85269182389939
35.125 78.00469182389936
35.6359 78.16169182389937
36.1543 78.31769182389937
36.6802 78.42869182389937
37.2137 78.50169182389936
37.755 78.56769182389937
38.3041 78.63469182389937
38.8613 78.70969182389938
39.4265 78.78569182389938
40.0 78.85669182389937
40.5818 78.91916553681259
41.1721 78.97221861679928
41.771 79.02258889850758
42.3785 79.0835412161974
42.9949 79.13913055149467
43.6203 79.16583360639298
44.2548 79.16896967926562
44.8985 79.18633203215781
45.5515 79.2421885978342
46.2141 79.27249169840253
46.8863 79.19298383941657
47.5683 79.12509408070125
48.2602 79.07693069704625
48.9621 78.9467669653481
49.6743 78.81018869636749
50.3968 78.71078218190694
51.1299 78.64544934071739
51.8736 78.61920167133724
52.6281 78.61425061435314
53.3936 78.64593587748158
54.1702 78.70630191575218
54.9581 78.74974517103055
55.7575 78.76484089495449
56.5685 78.75481705515301
57.3914 78.74362234649627
58.2261 78.73785789626199
59.073 78.71436182392446
59.9323 78.56607140924191
60.804 78.3829479752155
61.6884 78.30057432993743
62.5857 78.29005961517996
63.496 78.27842510568391
64.4196 78.24829533986613
65.3566 78.2086192548729
66.3073 78.18028155983798
67.2717 78.16740948376757
68.2502 78.15834056690755
69.2429 78.11658357260731
70.2501 78.00643361392918
71.2719 77.87957419101144
72.3086 77.78107924225377
73.3603 77.67142955416988
74.4274 77.46380789039691
75.5099 77.14239592076598
76.6083 76.7884421229093
77.7226 76.48461895052174
78.8531 76.35676532156901
80.0 76.48928205871718
81.1636 76.63684917603551
82.3442 76.70723915353963
83.5419 76.76124111069275
84.757 76.79562993641251
85.9899 76.76705374986102
87.2406 76.6404307941178
88.5096 76.46045122700818
89.797 76.21490764950144
91.1031 75.98575878317045
92.4282 75.78922245662365
93.7726 75.57445887392475
95.1366 75.41717238520239
96.5204 75.65324128664376
97.9243 76.4758856674276
99.3486 77.65235855615758
100.794 78.58738111910648
102.26 79.08729408232017
103.747 79.2051442254213
105.256 79.08051837563671
106.787 78.88293764549371
108.34 78.68318860754314
109.916 78.45363614903468
111.515 78.21227665701815
113.137 78.08939646536308
114.783 78.07405983935817
116.452 78.11469737270059
118.146 78.14868635766678
119.865 78.12335860939088
121.608 78.0445281111697
123.377 77.8704141219838
125.171 77.61068671530063
126.992 77.214623518303
128.839 76.84770574337836
130.713 76.5706587419172
132.615 76.45278037187411
134.543 76.4514698379403
136.5 76.35411807853902
138.486 76.04331974502267
140.5 75.50038951701809
142.544 74.89588945000932
144.617 74.41175188758949
146.721 74.09153913733385
148.855 73.4221336266682
151.02 72.29701622711332
153.217 71.29071249166803
155.445 71.35944535049235
157.706 72.55703252942729
160.0 74.02501874088796
162.327 75.18553272119021
164.688 75.84354953374573
167.084 76.10542786214293
169.514 76.12982328506934
171.98 76.03938806003617
174.481 75.91889281904085
177.019 75.75200275688579
179.594 75.55900655574808
182.206 75.40659217649193
184.856 75.15564080888612
187.545 75.2942440048711
190.273 76.40331849405656
193.041 77.92724647558467
195.849 79.47725330952532
198.697 80.64834036532875
201.587 81.21876083526733
204.52 81.41093287093909
207.494 81.3833751374455
210.512 81.18622171743039
213.574 80.80731899768094
216.681 80.16234273643215
219.833 79.42151734593064
223.03 78.85287262025581
226.274 78.45339705277782
229.565 77.99484396684578
232.905 77.58956660817493
236.292 77.7224686946463
239.729 78.19211715625974
243.216 78.80453181162045
246.754 79.3152802843608
250.343 79.47577484924321
253.984 79.42180277643556
257.678 79.35812461745788
261.426 79.11677590116487
265.229 78.6606770252926
269.087 78.26027156830041
273.001 77.7314792430228
276.972 76.89846453383369
281.0 75.85902629163262
285.088 75.044436805741
289.234 75.27859303615297
293.441 75.89517306874797
297.709 76.5543506671114
302.04 77.00730043552016
306.433 77.11660315605045
310.89 76.96151024075718
315.412 76.75431996788727
320.0 76.60493359125145
324.655 76.39842506275154
329.377 75.96479307481646
334.168 75.42738379256866
339.028 74.89022132182524
343.959 74.31111735679238
348.962 73.81346147510286
354.038 73.54485936179304
359.188 73.44463446358621
364.412 73.27108888751286
369.713 72.88969766074062
375.09 72.37499661468746
380.546 71.88249456381041
386.081 71.41621609035658
391.697 70.96503104672011
397.394 70.5836034672944
403.175 70.26188527991556
409.039 69.97880529167963
414.989 69.7442471607132
421.025 69.56857294648738
427.149 69.45288529703666
433.362 69.41105773579561
439.665 69.44646153180547
446.06 69.55442747256063
452.548 69.73849376525881
459.131 69.99629304925745
465.809 70.31423216450756
472.584 70.68968710056197
479.458 71.1107779543718
486.432 71.56803198154778
493.507 72.05496915687876
500.686 72.56205444325269
507.968 73.08104413951288
515.357 73.60647939027498
522.853 74.13138786381106
530.458 74.65182000131568
538.174 75.16354919004935
546.002 75.66111963597554
553.943 76.14277341952724
562.001 76.60561473539711
570.175 77.05151147976443
578.469 77.46934924893888
586.883 77.86279226023376
595.419 78.23108084958909
604.08 78.57416577854441
612.866 78.88736895998815
621.78 79.17142080617862
630.824 79.42077187132016
640.0 79.64092708657836
649.309 79.82437332084385
658.753 79.97442304700495
668.335 80.08932435879552
678.056 80.16860155569422
687.919 80.21088943035832
697.925 80.21586644018035
708.077 80.18330672269505
718.376 80.11197646059478
728.825 80.00194036261271
739.426 79.85340866403378
750.181 79.66585417231585
761.093 79.43858609570499
772.163 79.17271711918649
783.394 78.87467706059425
794.789 78.54816877240654
806.349 78.1936288372147
818.078 77.8162797642918
829.977 77.42494304221572
842.05 77.02568022396406
854.298 76.6246174388448
866.724 76.23051058902978
879.33 75.85098768391373
892.12 75.48939033951555
905.097 75.14885912925351
918.262 74.82825809902582
931.618 74.52471675204113
945.169 74.23424411381664
958.917 73.95248596737335
972.864 73.67705602089374
987.015 73.40916689372767
1001.37 73.15431275241338
1015.94 72.92769808180896
1030.71 72.75003576538953
1045.71 72.65117685164076
1060.92 72.65463340103798
1076.35 72.78926375582348
1092.0 73.06131098558029
1107.89 73.45978567037538
1124.0 73.96865809914634
1140.35 74.55201839512442
1156.94 75.18183217286621
1173.77 75.84330641778627
1190.84 76.48792557771671
1208.16 77.15192239670164
1225.73 77.77556419415052
1243.56 78.38918659073033
1261.65 78.96192507168426
1280.0 79.50728124330278
1298.62 79.97794762088564
1317.51 80.46751793974569
1336.67 80.8713973770721
1356.11 81.22311631185306
1375.84 81.51048443984156
1395.85 81.72574878428318
1416.15 81.84077957168854
1436.75 81.89888219910894
1457.65 81.83347681123755
1478.85 81.66925663797673
1500.36 81.38605225837398
1522.19 80.95047802605669
1544.33 80.37464548720602
1566.79 79.66145162105481
1589.58 78.82581151956872
1612.7 77.91651555617851
1636.16 77.03299030546101
1659.95 76.33938117013491
1684.1 76.00815221953326
1708.6 76.11264537630325
1733.45 76.56229007888533
1758.66 77.16576431540513
1784.24 77.75001717983089
1810.19 78.20899732848788
1836.52 78.49073836027809
1863.24 78.57193624816612
1890.34 78.44294503606564
1917.83 78.0990988857572
1945.73 77.53581922747567
1974.03 76.7465734767215
2002.74 75.695089785842
2031.87 74.40561262068553
2061.43 72.86143929125093
2091.41 71.106055024642
2121.83 69.3065167033152
2152.69 67.93428726003877
2184.01 67.10941084815374
2215.77 67.1284452096
2248.0 67.41452406385346
2280.7 67.7144159275991
2313.87 67.95933932705803
2347.53 68.30592336833843
2381.68 68.96240819234609
2416.32 69.903244818168
2451.46 70.92922404093552
2487.12 71.87056389779046
2523.3 72.46519401030386
2560.0 72.73059101798094
2597.24 72.64847354621605
2635.01 72.32112070646932
2673.34 71.85808934313651
2712.23 71.53485558042267
2751.68 71.44674288649061
2791.7 71.52959661827173
2832.31 71.55681689184209
2873.5 71.39247713858255
2915.3 71.00803959758693
2957.7 70.40460269045784
3000.72 69.68091693357954
3044.37 68.95825121694102
3088.65 68.3633446166246
3133.58 67.91855571662296
3179.16 67.56864121549806
3225.4 67.26266811173804
3272.31 66.93557597220921
3319.91 66.48082900344178
3368.2 65.85497931323025
3417.19 65.15360135687001
3466.89 64.57436333671228
3517.32 64.29497038203276
3568.48 64.23798343203042
3620.39 64.10693594434963
3673.05 63.648721764416194
3726.47 62.80973892137408
3780.67 61.80847454587686
3835.67 61.10682483751073
3891.46 61.18605349372042
3948.06 61.790533346472515
4005.49 62.254649355835
4063.75 62.36352941002481
4122.86 62.15439395386878
4182.82 61.85319902639202
4243.66 61.62558617366341
4305.39 61.590115690105605
4368.01 61.72315257399988
4431.55 62.01175444425289
4496.01 62.463165638651105
4561.4 62.78962946356661
4627.75 62.833793420243694
4695.06 62.39953132314942
4763.35 61.931812675375085
4832.64 62.039852946292086
4902.93 62.80959477540361
4974.24 63.569525034039785
5046.6 63.632115902316
5120.0 63.35892130071842
5194.47 63.418457972440336
5270.03 64.16752416711591
5346.68 64.97429802389026
5424.45 65.33654134615564
5503.35 65.04863557047909
5583.4 64.43799828826404
5664.61 64.04113734943488
5747.01 63.670405902458356
5830.6 63.252774702210246
5915.41 62.91555965422192
6001.45 63.33139214824129
6088.74 63.764521062301796
6177.3 63.46038926671605
6267.15 62.52277501964643
6358.31 61.52185909783867
6450.8 60.71544155352251
6544.62 60.08470644949546
6639.82 59.67310415156362
6736.4 59.79574548951736
6834.38 60.053265253911306
6933.79 59.833262598197095
7034.64 59.48463345849487
7136.96 59.048175969172405
7240.77 58.1604614336475
7346.09 57.23367427432669
7452.94 56.86251584807053
7561.35 56.58061493262676
7671.33 56.027769473611016
7782.91 55.556702703978885
7896.12 55.32196052615268
8010.97 55.089023014581386
8127.49 54.657072570131334
8245.71 54.22089959920834
8365.65 53.82559536672417
8487.33 53.50559145574928
8610.78 53.27696975270453
8736.03 53.06601533033637
8863.09 52.40891229686511
8992.01 51.56362380325538
9122.8 50.94623344734845
9255.5 50.18879630901006
9390.12 49.733033757356736
9526.7 49.35719304760019
9665.27 49.15722833154658
9805.86 49.17423067164941
9948.49 48.70388640140027
10093.2 47.786615676595744
10240.0 47.11926663555252
10388.9 46.56851380194075
10540.1 45.79033075923772
10693.4 44.796399824587354
10848.9 43.88486557136193
11006.7 43.03870700013752
11166.8 42.49139748984294
11329.2 42.85994154572637
11494.0 43.51376759691419
11661.2 42.815910770638084
11830.8 41.92464922197169
12002.9 41.180033115787296
12177.5 40.46886768076905
12354.6 40.35073197553214
12534.3 40.59186734505289
12716.6 41.397198512074226
12901.6 41.794558447263
13089.2 41.83363681033856
13279.6 41.827795764421836
13472.8 41.75201693743517
13668.8 41.68352772523184
13867.6 41.64942811598283
14069.3 41.99033658154616
14273.9 42.85527126207015
14481.5 43.92610024666587
14692.2 44.912526550996716
14905.9 45.47286623961929
15122.7 45.301076352690785
15342.7 44.32058887543647
15565.8 42.79568294464909
15792.2 41.1209614569284
16021.9 39.8566420766405
16255.0 39.30823970986174
16491.4 39.30891938001457
16731.3 39.340434967878195
16974.7 39.01593129115105
17221.6 38.27083921273831
17472.1 37.80493583921378
17726.2 38.1786148612386
17984.0 38.72884744584786
18245.6 39.0735062036527
18511.0 38.66461737554309
18780.2 37.29675215687888
19053.4 35.46598221195359
19330.5 33.84392393634579
19611.7 32.87948545606423
19897.0 32.75951968370484
