Freq "Total Early Reflection"
20.0 68.95
20.2909 69.334
20.586 69.63399999999999
20.8855 69.916
21.1893 70.233
21.4975 70.584
21.8102 70.93800000000002
22.1274 71.256
22.4492 71.55199999999999
22.7758 71.827
23.1071 72.09800000000001
23.4432 72.383
23.7841 72.695
24.1301 73.01599999999999
24.4811 73.295
24.8372 73.524
25.1984 73.732
25.5649 73.97300000000001
25.9368 74.25299999999999
26.3141 74.541
26.6968 74.83
27.0851 75.137
27.4791 75.459
27.8788 75.77100000000002
28.2843 76.086
28.6957 76.406
29.1131 76.718
29.5365 77.0
29.9661 77.272
30.402 77.537
30.8442 77.774
31.2929 78.012
31.748 78.25800000000001
32.2098 78.492
32.6783 78.704
33.1536 78.897
33.6359 79.078
34.1251 79.254
34.6215 79.424
35.125 79.576
35.6359 79.733
36.1543 79.88900000000001
36.6802 80.0
37.2137 80.07300000000001
37.755 80.13899999999998
38.3041 80.20600000000002
38.8613 80.281
39.4265 80.357
40.0 80.428
40.5818 80.49050619419144
41.1721 80.54357312154355
41.771 80.5940468615827
42.3785 80.65486949953257
42.9949 80.71042500142428
43.6203 80.73708960589452
44.2548 80.74017156848285
44.8985 80.75753177332311
45.5515 80.8131576402128
46.2141 80.84351667843934
46.8863 80.76413356244811
47.5683 80.69618079261699
48.2602 80.64784815195908
48.9621 80.51756935110978
49.6743 80.38095303277007
50.3968 80.28137165992945
51.1299 80.21586192488878
51.8736 80.18951857726516
52.6281 80.18429276701443
53.3936 80.21577777455462
54.1702 80.27614510216097
54.9581 80.3193372496388
55.7575 80.33403758654754
56.5685 80.32366411256164
57.3914 80.31232460428276
58.2261 80.30606061511719
59.073 80.2822982202014
59.9323 80.1337324204876
60.804 79.94999457534175
61.6884 79.86717869708686
62.5857 79.85603470139675
63.496 79.84400374800069
64.4196 79.81330633755178
65.3566 79.77298841266462
66.3073 79.74391365838537
67.2717 79.73040300993446
68.2502 79.72059054031537
69.2429 79.67816147072949
70.2501 79.56728955105169
71.2719 79.43943000673902
72.3086 79.34022634857529
73.3603 79.22950602312328
74.4274 79.02090343967473
75.5099 78.69856661745376
76.6083 78.34363724700157
77.7226 78.03864684994309
78.8531 77.90973845425485
80.0 78.04128951657825
81.1636 78.18755109054851
82.3442 78.2569077321619
83.5419 78.30986317880348
84.757 78.34283035802689
85.9899 78.31314697924776
87.2406 78.18525531952321
88.5096 78.00407851874355
89.797 77.75736860534093
91.1031 77.5270142453214
92.4282 77.3290031220905
93.7726 77.11323212196307
95.1366 76.95475498462118
96.5204 77.18988548502624
97.9243 78.01126374272184
99.3486 79.18659298193182
100.794 80.12078812539481
102.26 80.61967614027553
103.747 80.73672097465519
105.256 80.61138704693252
106.787 80.41305707309756
108.34 80.21275146015286
109.916 79.98271269060547
111.515 79.74104124556749
113.137 79.61798536819055
114.783 79.60241748417695
116.452 79.64342310272451
118.146 79.67755802367823
119.865 79.65267583587078
121.608 79.5745704316585
123.377 79.40153771441837
125.171 79.14289266132334
126.992 78.74842202541562
128.839 78.38322848430944
130.713 78.10801646161504
132.615 77.99257926232126
134.543 77.99407849015779
136.5 77.89987317223033
138.486 77.59239615928878
140.5 77.05332791689258
142.544 76.45303048056364
144.617 75.9735667253975
146.721 75.65879098828735
148.855 74.99513892093972
151.02 73.87644085598308
153.217 72.87687299368423
155.445 72.95288138724304
157.706 74.15845513195379
160.0 75.63522182902616
162.327 76.80492451271235
164.688 77.47306678897914
167.084 77.74566465949204
169.514 77.78163549393555
171.98 77.70392249129625
174.481 77.59639927757397
177.019 77.44355194990487
179.594 77.26593467535452
182.206 77.129277690391
184.856 76.89559215141205
187.545 77.05250489858145
190.273 78.18071111497616
193.041 79.72504520582444
195.849 81.29663743834558
198.697 82.49083275088798
201.587 83.08547061798865
204.52 83.30338904557235
207.494 83.30282576321946
210.512 83.13427416671499
213.574 82.78569408855216
216.681 82.17275621174382
219.833 81.46557199768432
223.03 80.9327213502988
226.274 80.57036478617931
229.565 80.15127954182393
232.905 79.78762107565767
236.292 79.96480370027106
239.729 80.48091796291354
243.216 81.1419466161863
246.754 81.70445655234049
250.343 81.91918329885924
253.984 81.92263536211082
257.678 81.91937665263012
261.426 81.74207762304809
265.229 81.35339726747696
269.087 81.02402814627743
273.001 80.57108630220345
276.972 79.81761256550874
281.0 78.86255017802526
285.088 78.13711419735571
289.234 78.46655796661695
293.441 79.1843733430722
297.709 79.95019496495644
302.04 80.51578287116735
306.433 80.74421986211428
310.89 80.71593591553808
315.412 80.64389638741375
320.0 80.63757406792885
324.655 80.58379815335115
329.377 80.31226478139874
334.168 79.94762813794341
339.028 79.5941305353183
343.959 79.21083328007768
348.962 78.92208314468762
354.038 78.87444627117405
359.188 79.00851770076142
364.412 79.08177320305526
369.713 78.95889892257448
375.09 78.71368286618444
380.546 78.50065336544655
386.081 78.31711794263114
391.697 78.15170523315234
397.394 78.04996242787107
403.175 77.99819413773116
409.039 77.96724111755354
414.989 77.95873998310564
421.025 77.97429589163274
427.149 78.01109167463794
433.362 78.07216143501736
439.665 78.15630597820677
446.06 78.26092009720031
452.548 78.38673742761407
459.131 78.53349916139788
465.809 78.69708334477048
472.584 78.87827600264495
479.458 79.07437455357193
486.432 79.28321216470798
493.507 79.50461958486936
500.686 79.73640422709333
507.968 79.97633176652785
515.357 80.2230370612018
522.853 80.47419327666377
530.458 80.72808635984715
538.174 80.98281234334537
546.002 81.23631485050798
553.943 81.48665665236184
562.001 81.73185801893584
570.175 81.97176215520018
578.469 82.20094566311042
586.883 82.41925327790253
595.419 82.62535945975415
604.08 82.81888077209716
612.866 82.99595091366707
621.78 83.15582665226033
630.824 83.29495391044058
640.0 83.41530401044896
649.309 83.51154131738762
658.753 83.58483892775172
668.335 83.63467948593315
678.056 83.65963428920043
687.919 83.6597929216103
697.925 83.63400435210127
708.077 83.58336447037162
718.376 83.50808038998997
728.825 83.40889499157797
739.426 83.28843433354388
750.181 83.14774216849533
761.093 82.99043301859585
772.163 82.82011765831618
783.394 82.64309963361119
794.789 82.4646009932967
806.349 82.28942784803668
818.078 82.12237536898954
829.977 81.9689264388318
842.05 81.8322172378725
854.298 81.7129655700925
866.724 81.61008805730847
879.33 81.52247157762386
892.12 81.43873897168136
905.097 81.36162108721459
918.262 81.27511452343842
931.618 81.17520171966846
945.169 81.05502146010078
958.917 80.90800298116287
972.864 80.73040994401931
987.015 80.52313097833165
1001.37 80.28760848303028
1015.94 80.0373282399242
1030.71 79.78755170443402
1045.71 79.56044368299646
1060.92 79.38990989540306
1076.35 79.30410238729903
1092.0 79.32913142103598
1107.89 79.46857707783516
1124.0 79.72188556288106
1140.35 80.07369804734994
1156.94 80.46848228500455
1173.77 80.92235801846486
1190.84 81.32473577051205
1208.16 81.7611890911463
1225.73 82.1165110648391
1243.56 82.4463003442708
1261.65 82.70649237106494
1280.0 82.92432787298978
1298.62 83.06320802572459
1317.51 83.2226414001632
1336.67 83.32892029768256
1356.11 83.42919041367051
1375.84 83.53357099135516
1395.85 83.65262067386229
1416.15 83.78260675684578
1436.75 83.9449214560245
1457.65 84.10606230319924
1478.85 84.27043355639123
1500.36 84.41884930304155
1522.19 84.52412366053883
1544.33 84.58594475201454
1566.79 84.6025922397241
1589.58 84.57535150196523
1612.7 84.5117923559005
1636.16 84.42225079220255
1659.95 84.31943608425823
1684.1 84.2180283357614
1708.6 84.13031191094862
1733.45 84.06126503326499
1758.66 84.00695076213759
1784.24 83.95635466135789
1810.19 83.89623043997159
1836.52 83.81660431232231
1863.24 83.71475581166385
1890.34 83.59315137631295
1917.83 83.45784826893208
1945.73 83.31432135354135
1974.03 83.16021567065596
2002.74 82.97984526848492
2031.87 82.75976385957027
2061.43 82.47250221617918
2091.41 82.09634048343145
2121.83 81.62131791159842
2152.69 81.02916382362079
2184.01 80.41163607362884
2215.77 79.7523335529049
2248.0 79.17268567159464
2280.7 78.74712168945923
2313.87 78.55933304293178
2347.53 78.63241079009914
2381.68 78.92899541460343
2416.32 79.3812141089625
2451.46 79.85570058705909
2487.12 80.30523368670319
2523.3 80.60199393723357
2560.0 80.75200775813718
2597.24 80.7289603598172
2635.01 80.56049884541144
2673.34 80.25149677539603
2712.23 79.93277899015283
2751.68 79.64552469402786
2791.7 79.49603010084337
2832.31 79.50132504760522
2873.5 79.62316538974031
2915.3 79.82118262882311
2957.7 79.98205068281725
3000.72 80.01397296112364
3044.37 79.86320190502246
3088.65 79.59948532519022
3133.58 79.35190333636871
3179.16 79.20851391571351
3225.4 79.20125528137063
3272.31 79.27101050460873
3319.91 79.27826190177043
3368.2 79.13677288539157
3417.19 78.84069463664564
3466.89 78.48619370284369
3517.32 78.26613163905085
3568.48 78.33868507314838
3620.39 78.66916619180245
3673.05 79.04382670627096
3726.47 79.2747744135929
3780.67 79.26873692315785
3835.67 79.1552792244216
3891.46 79.04018586732919
3948.06 79.07232851763952
4005.49 79.38812708068625
4063.75 79.80593889600821
4122.86 80.1255722746953
4182.82 80.27165769845344
4243.66 80.37122424498511
4305.39 80.68199440610296
4368.01 81.2839750966484
4431.55 81.97511284202928
4496.01 82.49313687524031
4561.4 82.68766692551334
4627.75 82.67457393229284
4695.06 82.64122693431685
4763.35 82.75887787887827
4832.64 83.00041463997796
4902.93 83.14889371277305
4974.24 83.13114654819218
5046.6 83.00323600392252
5120.0 82.98157855194037
5194.47 83.13759062714729
5270.03 83.25559332343641
5346.68 83.15556879731264
5424.45 82.96971979229107
5503.35 82.97325652626407
5583.4 83.10397345379863
5664.61 82.8767450880151
5747.01 82.30739399330407
5830.6 81.65772713463872
5915.41 81.21712256931319
6001.45 80.91885143372997
6088.74 80.4513115791283
6177.3 80.12662840036062
6267.15 80.02669798595409
6358.31 79.76178523458927
6450.8 79.27664775726608
6544.62 78.90086616444657
6639.82 78.857957587059
6736.4 78.77279701775126
6834.38 78.27740225745003
6933.79 77.61311562908121
7034.64 77.13393372583086
7136.96 76.63173852053107
7240.77 75.97839370047777
7346.09 75.60388194949209
7452.94 75.47395041320019
7561.35 75.21655638743756
7671.33 75.02774203949247
7782.91 75.08084713704137
7896.12 75.32346532962345
8010.97 75.59861684270795
8127.49 76.11418584808402
8245.71 76.66910665252207
8365.65 76.84542714775264
8487.33 76.8278904120136
8610.78 76.77299881185317
8736.03 76.45081812893426
8863.09 75.97692984259321
8992.01 75.88310611585038
9122.8 75.8269522268879
9255.5 75.48445834936615
9390.12 75.27198974770323
9526.7 74.93345227317252
9665.27 74.3862267049092
9805.86 73.80173475253287
9948.49 73.14560571333625
10093.2 72.62808447162291
10240.0 72.33238237820956
10388.9 72.21217843032649
10540.1 72.18784261894935
10693.4 72.17181899795217
10848.9 72.27111056788854
11006.7 72.57416502559289
11166.8 73.04186569944126
11329.2 73.47314259436087
11494.0 73.95879698651919
11661.2 74.46299334579909
11830.8 74.87630756519042
12002.9 75.10156833817524
12177.5 75.0226837609911
12354.6 74.48214591414133
12534.3 73.61664615368872
12716.6 72.52679000109651
12901.6 71.54624290641361
13089.2 70.67563467521491
13279.6 70.15607897403146
13472.8 69.94936718646382
13668.8 69.8585289953772
13867.6 69.78667636129197
14069.3 69.74820092413702
14273.9 69.79408132173972
14481.5 70.1408775722722
14692.2 70.68258897672568
14905.9 71.11148095928536
15122.7 71.26225324357358
15342.7 71.00741748301519
15565.8 70.34488039407208
15792.2 69.47863400165966
16021.9 68.63270707643285
16255.0 67.77381363137339
16491.4 67.03526556728436
16731.3 66.66205019422857
16974.7 66.63254796681088
17221.6 66.79395044061475
17472.1 67.00671057732247
17726.2 67.1136258965476
17984.0 67.50976684715064
18245.6 67.98432421951901
18511.0 67.93945109446726
18780.2 67.62281219829278
19053.4 67.07269356774458
19330.5 66.14459909606306
19611.7 65.04780033244155
19897.0 64.32717261297933
