Freq "Ceiling Bounce"
22.4 9.56527621492836
23.0 11.365276214928315
23.6 13.228636599696301
24.0 15.023521858975869
25.0 16.85336213109352
25.8 18.617461223432116
26.5 20.34803661616374
27.2 22.07910294457821
28.0 23.81066450775134
29.0 25.51066450775133
30.0 27.31066450775134
30.7 29.242725528488677
31.5 31.40836243116445
32.5 33.20836243116446
33.5 34.40836243116445
34.5 35.90836243116442
35.5 37.44118476358878
36.5 38.974516787869305
37.5 40.50836243116444
38.7 42.00836243116444
40.0 43.474516787869305
41.2 44.94194634539383
42.5 46.54194634539385
43.7 48.04194634539385
45.0 49.809879550669024
46.2 51.04194634539385
47.5 52.10987955066902
48.7 53.30987955066901
50.0 54.54423069338071
51.5 55.74423069338067
53.0 56.97831226166292
54.5 58.24423069338067
56.0 59.71291300437353
58.0 60.912913004373536
60.0 61.91066450775135
61.5 62.910664507751335
63.0 63.9791029445782
65.0 65.0791029445782
67.0 66.1791029445782
69.0 67.31066450775134
71.0 68.31066450775135
73.0 69.01066450775136
75.0 69.74580623559626
77.5 70.41066450775133
80.0 70.94580623559627
82.5 71.37910294457821
85.0 71.64580623559625
87.5 71.67910294457822
90.0 71.67910294457822
92.5 71.5791029445782
95.0 71.5791029445782
97.5 71.5791029445782
100.0 71.67910294457822
103.0 71.71449994706342
106.0 71.71449994706342
109.0 71.61449994706341
112.0 71.41449994706343
115.0 71.05042524142857
118.0 70.61449994706341
122.0 70.25042524142857
125.0 70.05042524142857
128.0 69.98368669120103
132.0 69.98368669120103
136.0 70.05042524142857
140.0 70.05042524142857
145.0 69.98368669120103
150.0 69.88368669120104
155.0 69.68368669120105
160.0 69.519866719865
165.0 69.21986671986501
170.0 68.92676199173636
175.0 68.59742350344354
180.0 68.26426749600932
185.0 67.86856007908067
190.0 67.53518212954474
195.0 67.23518212954474
200.0 67.03518212954475
206.0 66.89742350344355
212.0 66.83518212954476
218.0 66.77842463955182
224.0 66.88979306460939
230.0 67.20265951706712
236.0 67.60265951706712
240.0 67.96281462979262
250.0 68.12939232359778
258.0 68.12939232359778
265.0 68.00265951706712
272.0 68.00265951706712
280.0 68.10265951706711
290.0 68.18979306460938
300.0 68.21722750352504
307.0 68.14512270970911
315.0 67.94512270970911
325.0 67.91722750352503
335.0 68.05657852821724
345.0 68.31722750352503
355.0 68.35657852821724
365.0 68.16954361234649
375.0 67.84305756805564
387.0 67.68401123403035
400.0 67.65821621681246
412.0 67.74229267031781
425.0 67.81742349227639
437.0 67.81742349227639
450.0 67.49298204136781
462.0 66.91742349227637
475.0 66.53635103799198
487.0 66.33635103799197
500.0 66.3247896810624
515.0 66.37860105682364
530.0 66.20190238215548
545.0 65.92154436583488
560.0 65.98037168159568
580.0 66.5803716815957
600.0 67.1920425603389
615.0 67.23456313965113
630.0 67.08585239374983
650.0 67.85744644357581
670.0 68.52415492988489
690.0 68.16986413328605
710.0 67.73304617079593
730.0 66.85503392757616
750.0 65.25694383840602
775.0 63.34685246204454
800.0 61.60321209604325
825.0 60.989901436277265
850.0 60.36986235074194
875.0 61.28403111496088
900.0 61.555866116917144
925.0 62.29167333043432
950.0 63.616941555672696
975.0 65.02387433754524
1000.0 65.360204468731
1030.0 65.58477389660686
1060.0 65.89411557837676
1090.0 66.76519375798424
1120.0 67.76954222854968
1150.0 67.06721527870994
1180.0 66.32107453688832
1220.0 66.07324261324463
1250.0 64.20494762933708
1280.0 62.71326001144996
1320.0 63.59627600730124
1360.0 62.89842464030612
1400.0 62.794471564957576
1450.0 61.95024265564089
1500.0 62.70306848731005
1550.0 62.48960945728439
1600.0 62.92683279109556
1650.0 62.35815159719034
1700.0 60.88696824845445
1750.0 60.84549561263215
1800.0 61.542700444008574
1850.0 61.64028109208675
1900.0 61.7728560501065
1950.0 61.53057581303244
2000.0 59.68310607061218
2060.0 56.99045470721549
2120.0 53.013244859521905
2180.0 52.563568237552516
2240.0 55.603547784794785
2300.0 57.635920492683155
2360.0 57.931983919497625
2400.0 58.18810553940955
2500.0 58.197820557839094
2580.0 59.117629298661
2650.0 59.80905974608271
2720.0 58.09725751547495
2800.0 56.400932921352805
2900.0 57.5384953565306
3000.0 58.002441581263426
3070.0 55.65702475422593
3150.0 55.67992730535934
3250.0 57.168869742188036
3350.0 58.17996398457214
3450.0 58.21942223679636
3550.0 56.549582630263046
3650.0 55.77803618208378
3750.0 54.82461146906711
3870.0 54.21702049484455
4000.0 53.607503532897766
4120.0 53.98139736607422
4250.0 54.724244619544834
4370.0 55.91274112741591
4500.0 56.540080954973405
4620.0 57.12162869523928
4750.0 55.77747843707684
4870.0 55.342297330951936
5000.0 53.637345917182984
5150.0 53.24848325757793
5300.0 53.400596311826604
5450.0 54.72441987323842
5600.0 56.82674603679715
5800.0 56.8490896704337
6000.0 54.3357548330935
6150.0 54.22155145759157
6300.0 53.20808839509459
6500.0 56.34152326485449
6700.0 58.02249043676166
6900.0 57.726659103765826
7100.0 56.08696358533422
7300.0 53.99587222034066
7500.0 51.947681459181425
7750.0 54.6699897070732
8000.0 55.22528798944518
8250.0 55.12387108720873
8500.0 55.485791316083066
8750.0 56.66519659814361
9000.0 55.68372893665152
9250.0 56.22882476023449
9500.0 57.19307428796269
9750.0 56.14333982635519
10000.0 53.71875575430143
10300.0 55.846145768129304
10600.0 56.85994726236302
10900.0 55.31610509164959
11200.0 52.16134310141368
11500.0 50.259857567483834
11800.0 57.666823867831155
12200.0 60.33010646117046
12500.0 56.671163059903094
12800.0 55.04073680775747
13200.0 53.22546295052352
13600.0 53.891964732351
14000.0 54.70190363482443
14500.0 52.81052524766122
15000.0 52.20532307448559
15500.0 54.64751992255108
16000.0 59.84461951815905
16500.0 56.12375121826878
17000.0 52.09300641442344
17500.0 51.0480864748519
18000.0 49.71449994706343
18500.0 58.264034562584214
19000.0 54.217235162444894
19500.0 48.05565424068618
