Freq "Front Wall Bounce"
22.4 10.416752616394518
23.0 12.160097244867046
23.6 13.944798120987684
24.0 15.716752616394501
25.0 17.444798120987684
25.8 19.144798120987673
26.5 20.800994414280723
27.2 22.444798120987684
28.0 24.100994414280734
29.0 25.729794997559054
30.0 27.429794997559043
30.7 29.28618450501949
31.5 31.400994414280717
32.5 33.086184505019474
33.5 34.28618450501949
34.5 35.77166275391892
35.5 37.27166275391892
36.5 38.77166275391892
37.5 40.27166275391892
38.7 41.77166275391892
40.0 43.27166275391892
41.2 44.72880715674529
42.5 46.2716627539189
43.7 47.828807156745285
45.0 49.599999999999994
46.2 50.843139395337815
47.5 51.94313939533782
48.7 53.14313939533781
50.0 54.400000000000006
51.5 55.599999999999994
53.0 56.84313939533783
54.5 58.14313939533781
56.0 59.54313939533782
58.0 60.743139395337806
60.0 61.743139395337835
61.5 62.74313939533782
63.0 63.843139395337815
65.0 64.94313939533782
67.0 66.04313939533782
69.0 67.18618450501948
71.0 68.17166275391892
73.0 68.94313939533782
75.0 69.64313939533781
77.5 70.31508314243884
80.0 70.8861845050195
82.5 71.3437907541973
85.0 71.61508314243885
87.5 71.67166275391891
90.0 71.67166275391891
92.5 71.61508314243885
95.0 71.5716627539189
97.5 71.61508314243885
100.0 71.71508314243884
103.0 71.81508314243884
106.0 71.81508314243884
109.0 71.71508314243884
112.0 71.54379075419729
115.0 71.22979499755905
118.0 70.88748929892043
122.0 70.55840584504062
125.0 70.35840584504062
128.0 70.28748929892042
132.0 70.21508314243884
136.0 70.21508314243884
140.0 70.18748929892041
145.0 70.08748929892042
150.0 69.95840584504062
155.0 69.83175513861906
160.0 69.73175513861906
165.0 69.64675150375353
170.0 69.61998423401444
175.0 69.46528715999551
180.0 69.21998423401445
185.0 68.81998423401444
190.0 68.37848478147018
195.0 67.8652871599955
200.0 67.43537086618986
206.0 67.16528715999553
212.0 67.13924275721992
218.0 67.29366590096782
224.0 67.67848478147016
230.0 68.16035311823195
236.0 68.60489499373622
240.0 69.0048949937362
250.0 69.21998423401445
258.0 69.3936659009678
265.0 69.40914589305828
272.0 69.3936659009678
280.0 69.19366590096783
290.0 68.93924275721992
300.0 68.63924275721993
307.0 68.63924275721993
315.0 68.79366590096782
325.0 69.07848478147017
335.0 69.29366590096782
345.0 69.43924275721992
355.0 69.43924275721992
365.0 69.3392427572199
375.0 69.19366590096783
387.0 69.15000634017072
400.0 69.21998423401445
412.0 69.3936659009678
425.0 69.46005936857911
437.0 69.26758191272572
450.0 68.81637105372866
462.0 68.29343859806335
475.0 67.89343859806336
487.0 67.72285588808361
500.0 67.8512148231135
515.0 68.0351604799582
530.0 68.18664191481759
545.0 68.23443179205894
560.0 68.44700149822299
580.0 68.69485407749124
600.0 68.7630122093827
615.0 68.22758020744902
630.0 67.25378373474547
650.0 66.72758020744902
670.0 67.33443179205895
690.0 68.08242230727826
710.0 68.32683455312959
730.0 67.97640057047572
750.0 67.15378373474547
775.0 66.26554496792102
800.0 66.24700149822299
825.0 66.3866419148176
850.0 66.2596855474149
875.0 66.90343598990847
900.0 67.3319538584431
925.0 66.70343598990846
950.0 66.67091054784845
975.0 67.27455785944566
1000.0 67.19867242696347
1030.0 67.54700149822298
1060.0 67.2623463245417
1090.0 67.2934742081181
1120.0 67.39278401751864
1150.0 66.43329676031894
1180.0 66.97100746127049
1220.0 67.22833223333885
1250.0 67.28700543078884
1280.0 67.18140637079007
1320.0 67.67964692458759
1360.0 67.5005778614911
1400.0 68.02146308291564
1450.0 67.90098676922553
1500.0 67.96930138192059
1550.0 67.96163889708328
1600.0 67.497332101496
1650.0 66.9273194279119
1700.0 66.3812731592754
1750.0 66.06218600819972
1800.0 65.48140637079007
1850.0 64.28644025637433
1900.0 64.68491746397143
1950.0 66.0172384295557
2000.0 67.13408662684874
2060.0 67.64476260510932
2120.0 67.46240972193986
2180.0 66.7988830917333
2240.0 66.49149463697103
2300.0 65.6434925688714
2360.0 65.16016241434386
2400.0 65.13708823753058
2500.0 65.61584285444803
2580.0 66.35260611637841
2650.0 67.02480513610608
2720.0 67.0756651074302
2800.0 67.17743623621925
2900.0 67.1693746970461
3000.0 67.57451276137473
3070.0 66.58593651986823
3150.0 65.64710765654819
3250.0 64.90855020235325
3350.0 64.98248151703172
3450.0 65.30812614975468
3550.0 65.39590639644675
3650.0 65.58090582876194
3750.0 65.8243312168948
3870.0 65.65249391690186
4000.0 65.54516556771115
4120.0 66.14797963130277
4250.0 66.43573073549267
4370.0 66.36261503541162
4500.0 65.51093530402306
4620.0 65.57257079921243
4750.0 65.69647055822442
4870.0 65.91668161364878
5000.0 66.13588753316263
5150.0 66.52518439794022
5300.0 67.06076551730173
5450.0 67.32829802938514
5600.0 67.03192403285362
5800.0 66.63832557846978
6000.0 66.73560765221778
6150.0 68.11706752513514
6300.0 68.54733060529374
6500.0 67.8235711594803
6700.0 67.63992178204379
6900.0 67.56527947750783
7100.0 66.99644528636118
7300.0 67.04256283803295
7500.0 66.96786155603124
7750.0 66.83288615678967
8000.0 66.13570182381604
8250.0 66.1906432319066
8500.0 67.4000675641838
8750.0 68.30081241790036
9000.0 67.45813436074857
9250.0 67.28458670480995
9500.0 67.3514196520118
9750.0 68.31098035724804
10000.0 68.91313170591258
10300.0 67.44889261390352
10600.0 64.63748900170765
10900.0 65.04721453643239
11200.0 66.42122750065312
11500.0 63.44571981728561
11800.0 65.97975709805718
12200.0 70.20722025123948
12500.0 68.80229546581776
12800.0 67.3161587245615
13200.0 65.1501620056428
13600.0 64.54490308642609
14000.0 65.34589245998414
14500.0 64.75599153876114
15000.0 64.05967514810138
15500.0 64.46939924077894
16000.0 68.44912563527691
16500.0 67.83056926152173
17000.0 64.29461763821857
17500.0 62.563086052746854
18000.0 64.2289287057979
18500.0 68.16834994604046
19000.0 66.79612003109749
19500.0 63.06305449412116
