Freq,Floor Bounce,Ceiling Bounce,Front Wall Bounce,Side Wall Bounce,Rear Wall Bounce,Total Early Reflection
20.5078,49.85224415488277,50.39518230181393,49.46510745559071,50.173392259821284,57.76170637655365,52.99261586357311
23.4375,54.112448098857,54.14246860153368,53.762166513772215,54.08985099197808,60.479629833705516,56.29073677889683
26.3672,58.24171115790038,58.536693233179776,58.079753656922534,58.5909005765282,63.73211749043912,60.09299795286897
29.2969,61.95493047308538,62.0249940337291,61.769096444498444,62.2117345885501,66.43440158764032,63.31603452009628
32.2266,65.7262298290895,65.82935461631233,65.58477809293063,66.06136630467721,69.43796373203212,66.81375918127256
35.1563,69.4566081327574,69.2711255133648,69.23731931983313,69.62345845596434,72.24928516732272,70.13873952039833
38.0859,72.61281230928485,72.31588499195614,72.36253401723617,72.72300685450496,74.82945966471767,73.08133182876028
41.0156,75.30955104115618,74.87897569346369,75.02384941020577,75.32988561076814,76.97363505873555,75.57371048573869
43.9453,77.20913198667004,76.66654732186659,76.89412321897623,77.15321857081567,78.45331350481813,77.32190333646214
46.875,78.47784653807786,77.85233122630609,78.13414170376647,78.37286804429093,79.43560444509284,78.4888017525383
49.8047,79.29278204172279,78.59729239816751,78.92839896835619,79.14057756566808,79.98560377540451,79.21395121838795
52.7344,79.80631821090012,79.06190906083071,79.42470097264393,79.62431023141038,80.31989074481065,79.66762474151915
55.6641,80.20961268312921,79.4114425121516,79.80979121657515,79.99387785790188,80.55508688495543,80.0128279974886
58.5938,80.4918551878526,79.66673318629867,80.0821245161698,80.25667295267385,80.71538881747328,80.25722709751155
61.5234,80.75570044750302,79.89220753516807,80.33344166353855,80.49463671173005,80.85370351904633,80.47913799373343
64.4531,80.92496800708189,80.01494625167764,80.49106093967184,80.62843130203625,80.87599503817147,80.59919417676618
67.3828,81.16641254135392,80.21236307088348,80.72111778973482,80.83901202902081,80.99668452174258,80.7989844072964
70.3125,81.37646751853079,80.38993082977208,80.91282134420622,81.03290572711434,81.18245419505642,80.99142572774953
73.2422,81.57454059257289,80.57991011857342,81.10429150978347,81.23398006582555,81.37255559915023,81.18573490442061
76.1719,81.83033746986699,80.77678222377459,81.34041532067013,81.45317411517702,81.52147162668032,81.39786426512906
79.1016,81.92431684344804,80.89389229620737,81.437295843027,81.56798390540598,81.67484201563295,81.51292028801771
82.0313,82.29128374697052,81.2529726024121,81.81533310670216,81.89421975592839,81.85776725439035,81.83484657416085
84.9609,82.55281480280456,81.4256207106062,82.08490421543547,82.05361705865458,81.68927457070471,81.97821383252266
87.8906,82.51861775643384,81.45871137077332,82.04615069889167,82.09281077144414,81.9225086164358,82.02101718477626
90.8203,82.23904497793568,81.20619205585402,81.71348564100025,81.91220127827006,82.14531174188734,81.85848822664882
93.75,82.81849047258235,81.67064674703087,82.30428151871651,82.36328270305745,82.27114350132724,82.30082025632635
96.6797,83.07082716282179,81.88005664137245,82.57426907848726,82.5390381303451,82.11975614051015,82.45625257520815
102.539,83.2903369370417,82.05572871326554,82.74605789868572,82.75474906575941,82.48492710380476,82.6850029701948
105.469,83.30306153984364,82.05109504158769,82.75296024888361,82.76354540780422,82.52212918771075,82.69744031050737
108.398,83.3132976947831,82.03965092979016,82.75669083776046,82.76313807709651,82.52181203667406,82.69843923874075
111.328,83.48380115983605,82.16765782409954,82.91872526933436,82.89936043005223,82.59974024184653,82.83530959773312
117.188,83.90953687854487,82.52150425513688,83.32891850463125,83.26188359942259,82.87394334218796,83.20433720161498
120.117,84.16506373536252,82.77244614418295,83.59060890969859,83.48769616081609,83.04909734089865,83.4395412842571
125.977,84.13190028289068,82.80005410889704,83.60539269732094,83.45839632369828,82.88493830530496,83.40405074227802
128.906,84.06028376011331,82.79584955988591,83.57227291574942,83.41631840019558,82.74477453950139,83.34626920144837
134.766,84.11919457968598,82.81889586771514,83.57462544238219,83.47526196314692,83.06662763868712,83.43415943523868
137.695,84.16220433349014,82.81573523210871,83.59500164039078,83.49009056852701,83.12271722062313,83.4612406941683
143.555,84.00751272355254,82.55577803673297,83.39934645075661,83.26151075948381,82.90280262262927,83.25315920454574
149.414,84.21996539640706,82.53221352504282,83.58265237483155,83.30629894503312,82.70229867494368,83.31215859897121
155.273,84.39341091754223,82.66915688476264,83.76940947901917,83.44845100406945,82.60564664129151,83.4302759643271
158.203,84.33090652101009,82.66086016232138,83.7220034264348,83.42153524507707,82.62996447902744,83.40174753222213
164.063,84.21812176572048,82.50119032383243,83.56449862368055,83.30720478521648,82.70236042712897,83.30286376299264
169.922,84.11299739941194,82.35137141185038,83.481097664329,83.12937402319942,82.45940011200237,83.15671324621412
175.781,83.95365632819052,82.15070924041166,83.29430888286844,82.90940008557381,82.16061259996687,82.94903287043948
181.641,83.9483407390663,82.0073388940721,83.23655364577814,82.82193437712979,82.05375656729002,82.87642994182457
190.43,83.87240972768214,81.83187573015186,83.1546444071129,82.72269221735738,81.92645791550144,82.76994040865357
196.289,83.77972825706888,81.74351086351929,83.06605263154474,82.58051939015569,81.86872549088893,82.67489195092347
202.148,83.80827011780828,81.65234159207291,83.08293124577479,82.48542815540236,81.60264997940378,82.6096506771874
210.938,83.68555793867743,81.51641309342283,83.00499977226723,82.33405225282642,81.22750031589824,82.4502554936138
216.797,83.545570351184,81.33663689064515,82.81037479738235,82.13938779476514,81.13460722675914,82.28805021136723
225.586,83.59739241361663,81.14599684207089,82.84078297208846,82.02999431001852,80.84378917178444,82.21425829962209
234.375,83.71240072216932,81.14709019485406,82.93414753695892,82.08754745892574,80.63981998289823,82.25017483580343
240.234,83.55108836825389,80.95819649500525,82.7541651581384,81.87438829819881,80.49671991356966,82.07279625963734
249.023,83.61245307861134,80.68299226508361,82.78103082640713,81.77909554329459,79.89885372219486,81.95798964699523
257.813,83.55321350213879,80.81291253350625,82.76347680600203,81.85205468332224,80.1522526503936,82.00257155901366
266.602,83.3001398710566,80.16982093436883,82.3906380369052,81.33842368562806,79.49674552449692,81.56155315771268
278.32,82.89776917682207,79.80454441470614,82.19201665006862,81.1164751509791,79.49040273014529,81.29934943958868
287.109,82.98247245085058,80.03869973349283,82.32315603131916,81.10923991211605,79.22191639013691,81.35480232768276
295.898,83.17699272276467,80.0263804177984,82.46624523922218,81.13671387175282,78.81036264495317,81.40409825909607
307.617,83.03390826745603,79.82954815279913,82.28302563681507,81.08235628816747,78.88992636314723,81.2849672057368
319.336,82.98289258728775,79.70138811041436,82.29663474995735,80.90553279430362,78.35386299821332,81.1622616763326
331.055,82.65086122029841,79.74611608117907,82.14555375281736,80.78476100601573,78.10425915190906,80.98131682737699
342.773,82.20691210094647,78.92108186682034,81.59628478221097,80.09353765911777,77.86240493796568,80.4293055380418
354.492,82.74053876574013,79.19846959451442,82.17219438861679,80.55411593271148,77.06684491262534,80.79547640373808
366.211,83.52483735629487,79.69392670747256,82.96902582221962,81.5104622439742,77.53076929207693,81.55146357610332
377.93,84.12706616377153,80.6986165820032,83.66621183526784,82.31167731220924,78.80960525323688,82.33002361934705
392.578,83.68795821311804,80.8718443388184,83.5084123463799,82.16071438149511,78.74902160480514,82.14710671580538
407.227,83.35813090769967,80.32002492001848,83.03028431969844,81.44300421166558,78.40089515681358,81.66640936642328
421.875,83.53129537814954,80.0370012144336,83.18422531815199,81.70052409686123,77.31830548306938,81.68130566251328
436.523,83.40217820441238,79.9509933852988,83.12313136313288,81.41531131012066,78.32267665143934,81.64064930563664
451.172,83.68674834404392,80.74222768303213,83.85447705264811,81.9862894374496,77.95510031910213,82.12557381143985
465.82,83.50926696792587,81.06707596456219,83.64020504192135,81.79542792156603,78.07158828456583,82.03446856749021
483.398,83.19554770949962,80.96254485278742,83.38817390363066,81.59752410009234,76.7128835640623,81.72066914678324
500.977,83.41876824428094,80.9068120540678,83.4620764692075,81.80700223691524,77.1809397821298,81.86798552456702
518.555,82.58597582231904,80.63480172945833,83.3437031700676,81.75505403454247,77.0085536392865,81.5417821876555
536.133,82.3028720461463,80.62374029161245,83.21314867110172,81.4123855641827,76.73198011634405,81.33855835129104
553.711,82.68272303363578,80.47727212772679,83.56902491157032,81.75173219057702,76.06311855748628,81.5510581114158
574.219,82.6264451796227,80.13327325426822,83.57094212552518,81.95270825657416,76.63392504127711,81.56305005670772
594.727,82.37573150524713,80.701769214136,83.46635441173116,81.65781015181852,76.79401702904579,81.50309202432526
615.234,82.53742045438082,80.71606399602884,83.37821135553045,81.49983695530575,75.98610919205979,81.43580126419634
638.672,83.2010939506225,80.32336548624824,83.90368257759684,81.86787074320381,76.62442450856024,81.8304083043589
659.18,82.61455312909688,80.53033545718112,83.77267944113059,81.7165476102686,75.88260823489667,81.59069271013031
682.617,83.19505806761894,80.58664895939721,83.98409231051808,81.63852215680046,76.26999357541031,81.82769032270369
706.055,83.19521787874363,80.61310615531305,83.93341548156376,81.1164889987573,75.69994473571266,81.6890800414541
732.422,82.52071893224318,81.05807492212624,83.30708490394895,80.89486722579161,75.32909807684729,81.3187819276848
758.789,83.83226875863787,81.56562143903945,83.52832864119404,80.83912401055038,75.6298884059141,81.86553326495506
785.156,82.88668855512154,81.66011135637635,82.68578390387786,80.12314678171781,74.37739272489553,81.18477611060891
811.523,84.3496907408172,82.26315077844586,83.6718321190722,80.33789414653714,75.46807204871608,82.13177651311798
840.82,84.95239409647606,82.54956211969007,83.73350051440131,80.11460650499626,74.88596909486161,82.36720988695015
870.117,85.02628159467167,82.39982514140397,83.78093470474863,79.82558291437923,75.34133200665615,82.36045636182493
902.344,85.3087484174429,82.48523997414307,83.67987680065521,79.40041878039972,74.02292164984908,82.36762785360023
931.641,85.51407417953506,82.65772317456889,83.83869564789566,79.62843212601027,74.31361609200432,82.55851236537745
966.797,85.27686374580935,80.99704305414537,83.49628065995995,79.18476786339343,73.21646215268056,81.98870673237487
999.023,85.28156707527195,81.17074646292026,83.30129312623173,78.99492174010783,73.07898687365673,81.9416367540118
1034.18,85.59396259659,80.91363034663073,83.14501055554727,78.74934831355644,72.13875225108305,81.95140923200647
1072.27,85.1622267947247,81.46945519105445,83.08835146766066,78.7194846439336,71.28210831085912,81.81873739472746
1110.35,84.46433274679148,80.32701033307741,82.62329915752828,78.20533806694588,70.91534780622841,81.13140393544118
1148.44,84.31003411435388,79.9088076756349,82.33244106555136,77.93093301618462,70.33146206602227,80.87560802089436
1189.45,83.80080157952763,78.686192447083,82.73856487353068,77.93018921044923,70.23222337326429,80.60192821979507
1230.47,83.58732996639687,78.91792377394876,83.3841167419006,78.28403885056903,70.23797492087677,80.80818469115061
1274.41,82.71115165490241,78.81176400616316,84.21484665053225,78.74713896040821,70.79593436917555,80.88936528499222
1318.36,81.71972332220354,78.25849269306227,85.01935799201895,79.6104125204457,71.83683275323041,81.07124658035912
1365.23,80.18630347249294,77.25613781899003,85.82840544676083,80.17308414652558,71.89286691304456,81.20415659245549
1415.04,78.22049340536115,76.15947680745997,85.54734580915432,79.67055824671857,71.06006888996544,80.5830737949041
1464.84,77.45222488528756,75.35956444374894,85.07396080948641,79.10069673880749,70.20967088898176,80.02961547832105
1514.65,77.79229710314176,73.73292623010524,84.80256832402604,79.05791177853048,70.00544049498866,79.79052207156312
1570.31,77.93915756347157,73.3279754835226,84.30740898077869,78.52671563659051,69.54309007189305,79.38100816771137
1623.05,78.58853204353319,74.87483190071079,83.46173847028612,77.11356311708032,69.07451977288072,78.85827727909745
1681.64,79.86527487059202,76.01800122902146,82.63676220000708,76.30659542501436,67.90088736714354,78.68442811229681
1740.23,80.73651675387008,76.91188683163774,82.97156414044751,76.74390894260509,67.41330404036633,79.2280752666514
1801.76,81.78231309925468,76.76261441811764,83.12914640897155,76.9468158262435,67.82993500128943,79.63143803692435
1866.21,82.74121422864206,78.19927300295033,82.76506342056034,77.04574480631341,67.82315606702302,79.99799423739114
1930.66,83.66163060164234,79.52065313183306,82.07123955221671,76.63415248883602,68.12022151211576,80.29852521992143
2000.98,84.22930147180425,80.04464033424976,83.04809467175406,77.67152613101854,68.57065160685976,81.02628400462585
2071.29,84.80665233810721,80.24205977716998,84.04105728146115,78.75873565079311,69.4743412320784,81.73631994342897
2144.53,85.27833326165067,80.74957268986604,83.87591467774634,78.59087762594457,69.21405496302528,81.93539719239307
2217.77,85.30935957955148,80.53422143607575,83.01808290857248,78.18750802702196,68.9270803545477,81.62393522301596
2296.88,84.76394032814527,80.93020025441568,83.78309328339348,79.08740616588973,68.94525313682793,81.76800704329952
2378.91,84.4856498256149,80.84459526051451,84.0624870322178,79.11205828923197,68.88498119511685,81.74030452737196
2460.94,84.4738908007035,79.89681846066938,83.01082684357637,77.96752364756891,67.46881257236518,81.11285550984644
2548.83,84.13529854316346,80.11000052503663,82.72624482180062,77.68537721658602,66.6528425623507,80.88031937113274
2639.65,83.74910798954927,79.91319934491845,82.74701679837125,78.20237773147868,66.91998177045502,80.75087838905426
2733.4,83.53081926141047,79.96932025558559,82.41906757253061,78.21326960550671,66.93959393297716,80.5730194821946
2827.15,83.35559651420647,79.8909217908695,82.67412579608707,78.43395704169194,67.05276851445484,80.59920935967206
2926.76,83.31151111626859,80.03375137730409,82.7246491001161,78.16739825637521,66.39800130489091,80.58692269688406
3032.23,83.2847248022286,80.35932203101895,82.70575014323737,77.16155079362966,65.45021796878198,80.52041392341782
3137.7,83.2455523258562,80.12848364836303,83.41901770599308,77.53089758120568,65.66362249682301,80.74956421186138
3249.02,83.54204967249382,80.02166595716487,83.78127523542,77.83860028801047,66.48012099181938,81.0081285454708
3363.28,83.41206530807004,79.91456416577702,83.9651219676151,78.11537961016651,66.66357910770624,81.04520561072245
3483.4,82.82057799747305,79.81977574396056,84.47492326651896,78.76329653909944,67.37905372171527,81.12799400304542
3606.45,82.2627260380144,79.64849103150122,84.35302443199451,78.91220346216176,67.81297684327032,80.91276251969904
3732.42,81.89673418937434,78.9757155801231,83.92671628454326,78.88749197580138,67.89621764134445,80.52542188608615
3864.26,81.1040930037474,78.35796453754415,84.19530175292572,79.30294662846694,67.48625355795919,80.42167995976705
3999.02,80.4995665639832,78.21492298746732,84.26713246757022,79.378096536841,66.97577122592604,80.31209493332295
4139.65,80.10599060239237,77.90361960592874,83.7205606076353,78.94040287319113,66.231015922558,79.84316275213745
4286.13,80.14215550295386,77.44860403171086,84.12230094640644,79.00027653543923,65.46244096678254,80.0018957217271
4438.48,79.91295864664568,76.8961433274892,83.57492199152738,78.46515017869542,64.9143938322462,79.5235377016588
4593.75,80.4217287546478,76.77211778365066,83.84376003105719,78.64480301916299,64.8274046609228,79.78911469650588
4757.81,81.1870792567317,77.18648101059199,83.75193579672565,78.84291725764471,65.8279397214349,80.0124232419324
4924.8,81.34101181727705,76.92639396002721,83.92733810677858,79.51577415748311,65.88191811275226,80.21848335704628
5097.66,81.7569060216213,76.81535435100082,83.92809616663267,79.50056673139117,65.96930663258648,80.31851059895887
5279.3,81.71470237291085,75.93960222405397,83.47079424181062,79.30546367657027,65.7289828193616,79.99135890434569
5463.87,81.55541635629349,75.60394097453185,83.9703341444804,79.26354672047198,65.0212858311542,80.14072857434455
5657.23,81.13077504662465,75.4522601821211,83.45953292357056,78.87559716480656,65.02574646750928,79.70347952101464
5856.45,80.6807331281411,74.45533676880964,83.44582513026909,78.90868316745916,64.2219235748508,79.5074019930205
6061.52,80.14349766224474,73.90867733689397,83.69065316852026,78.85298675823614,63.594647159650904,79.45420742835205
6275.39,79.76886867730146,73.92888965101234,83.74702051600484,78.90434482869497,63.63098006624223,79.41026661507951
6498.05,79.5013959405275,73.97200480291163,83.35974552147168,78.85324209071088,64.25252141898322,79.14157598926612
6726.56,79.60913654453358,73.89426730555067,83.03715744166476,78.65146989374351,63.78355522978386,78.95251836323934
6963.87,79.73418700113889,74.13703242126567,82.79426255528757,78.23337542441918,63.50472828225011,78.79785792347938
7209.96,79.583219595628,74.88407343948445,82.71235485164304,77.72836970985763,62.33974407714098,78.68482847829229
7464.84,79.63778534709772,75.40206165763153,82.91788066853165,77.59405433261453,61.786315807252194,78.82468921917496
7728.52,79.54346267636194,75.88935574255065,83.32467439004711,77.93037170533349,61.846601257075335,79.11122690765261
8000.98,79.54844039637686,76.13357299452743,84.10141962041722,78.56750794439367,62.42806692701832,79.65629877126526
8282.23,79.2816779194307,75.7805351301309,84.83540762870679,79.08243537068712,63.20373826460187,80.08700513560579
8575.2,79.39966893484821,75.20542552248018,84.93369588624483,78.79499457305356,62.454202831120384,80.07927589677378
8876.95,79.67731787248252,74.96747645727253,84.65959834166243,78.19906977366311,61.12422704682395,79.85843927801585
9190.43,79.4758740938487,74.43867386207715,84.07352862949155,77.65576759359185,60.565150147854,79.3583390342277
9512.7,79.01007650513736,74.34272306701793,83.52854548153978,77.17244626192375,60.49493707224103,78.86960582743343
9849.61,76.90604809066421,72.34455006547812,81.66774339907394,74.94937224902554,56.414867441181414,76.89689320557746
10195.3,76.94276329622902,70.43797374744553,81.04588634482981,74.42183232584544,54.675761742549795,76.34936343887138
10555.7,77.77410436775847,71.6183058030254,82.18754176237272,75.86632654923214,56.30051199693115,77.46520792248766
10927.7,78.4750244158699,72.39227077500114,82.7032380201167,75.91354525152319,56.1572605415093,77.97298232910386
11314.5,79.29128467396329,73.33066370636305,82.99149845518865,75.65688449673968,54.83405073917099,78.35945594329368
11712.9,79.3362189203073,74.38393404078995,82.74538375559007,75.3905810198832,53.98041802812274,78.27731816671613
12126.0,79.07406678180502,74.44967820271512,82.70491752529901,75.14286192477952,54.34718898810853,78.16944035681043
12553.7,79.04416674184179,74.61355138450814,82.39964294328865,74.45046334305827,53.55300342589898,77.93834798590485
12996.1,79.17235361391953,74.44851744842656,81.90060722676148,73.4915343001951,52.969968182334796,77.60340080703914
13453.1,79.44792107960536,74.81594025292331,81.36367506715534,72.73840383891763,52.60507813708848,77.39145598082882
13927.7,79.78933054338158,75.45385457387623,80.72871410496482,71.92134348848906,51.41796558635677,77.23198591918697
14419.9,80.58351183713951,76.50527898216173,80.4564079278011,71.46496325647101,50.855611612841656,77.54834179206905
14929.7,80.28603118920874,76.05212236355743,79.00674007829426,69.97711618599762,49.17864607685674,76.7520189835414
