Freq "Floor Bounce"
20.5078 49.85224415488277
23.4375 54.112448098857
26.3672 58.24171115790038
29.2969 61.95493047308538
32.2266 65.7262298290895
35.1563 69.4566081327574
38.0859 72.61281230928485
41.0156 75.30955104115618
43.9453 77.20913198667004
46.875 78.47784653807786
49.8047 79.29278204172279
52.7344 79.80631821090012
55.6641 80.20961268312921
58.5938 80.4918551878526
61.5234 80.75570044750302
64.4531 80.92496800708189
67.3828 81.16641254135392
70.3125 81.37646751853079
73.2422 81.57454059257289
76.1719 81.83033746986699
79.1016 81.92431684344804
82.0313 82.29128374697052
84.9609 82.55281480280456
87.8906 82.51861775643384
90.8203 82.23904497793568
93.75 82.81849047258235
96.6797 83.07082716282179
102.539 83.2903369370417
105.469 83.30306153984364
108.398 83.3132976947831
111.328 83.48380115983605
117.188 83.90953687854487
120.117 84.16506373536252
125.977 84.13190028289068
128.906 84.06028376011331
134.766 84.11919457968598
137.695 84.16220433349014
143.555 84.00751272355254
149.414 84.21996539640706
155.273 84.39341091754223
158.203 84.33090652101009
164.063 84.21812176572048
169.922 84.11299739941194
175.781 83.95365632819052
181.641 83.9483407390663
190.43 83.87240972768214
196.289 83.77972825706888
202.148 83.80827011780828
210.938 83.68555793867743
216.797 83.545570351184
225.586 83.59739241361663
234.375 83.71240072216932
240.234 83.55108836825389
249.023 83.61245307861134
257.813 83.55321350213879
266.602 83.3001398710566
278.32 82.89776917682207
287.109 82.98247245085058
295.898 83.17699272276467
307.617 83.03390826745603
319.336 82.98289258728775
331.055 82.65086122029841
342.773 82.20691210094647
354.492 82.74053876574013
366.211 83.52483735629487
377.93 84.12706616377153
392.578 83.68795821311804
407.227 83.35813090769967
421.875 83.53129537814954
436.523 83.40217820441238
451.172 83.68674834404392
465.82 83.50926696792587
483.398 83.19554770949962
500.977 83.41876824428094
518.555 82.58597582231904
536.133 82.3028720461463
553.711 82.68272303363578
574.219 82.6264451796227
594.727 82.37573150524713
615.234 82.53742045438082
638.672 83.2010939506225
659.18 82.61455312909688
682.617 83.19505806761894
706.055 83.19521787874363
732.422 82.52071893224318
758.789 83.83226875863787
785.156 82.88668855512154
811.523 84.3496907408172
840.82 84.95239409647606
870.117 85.02628159467167
902.344 85.3087484174429
931.641 85.51407417953506
966.797 85.27686374580935
999.023 85.28156707527195
1034.18 85.59396259659
1072.27 85.1622267947247
1110.35 84.46433274679148
1148.44 84.31003411435388
1189.45 83.80080157952763
1230.47 83.58732996639687
1274.41 82.71115165490241
1318.36 81.71972332220354
1365.23 80.18630347249294
1415.04 78.22049340536115
1464.84 77.45222488528756
1514.65 77.79229710314176
1570.31 77.93915756347157
1623.05 78.58853204353319
1681.64 79.86527487059202
1740.23 80.73651675387008
1801.76 81.78231309925468
1866.21 82.74121422864206
1930.66 83.66163060164234
2000.98 84.22930147180425
2071.29 84.80665233810721
2144.53 85.27833326165067
2217.77 85.30935957955148
2296.88 84.76394032814527
2378.91 84.4856498256149
2460.94 84.4738908007035
2548.83 84.13529854316346
2639.65 83.74910798954927
2733.4 83.53081926141047
2827.15 83.35559651420647
2926.76 83.31151111626859
3032.23 83.2847248022286
3137.7 83.2455523258562
3249.02 83.54204967249382
3363.28 83.41206530807004
3483.4 82.82057799747305
3606.45 82.2627260380144
3732.42 81.89673418937434
3864.26 81.1040930037474
3999.02 80.4995665639832
4139.65 80.10599060239237
4286.13 80.14215550295386
4438.48 79.91295864664568
4593.75 80.4217287546478
4757.81 81.1870792567317
4924.8 81.34101181727705
5097.66 81.7569060216213
5279.3 81.71470237291085
5463.87 81.55541635629349
5657.23 81.13077504662465
5856.45 80.6807331281411
6061.52 80.14349766224474
6275.39 79.76886867730146
6498.05 79.5013959405275
6726.56 79.60913654453358
6963.87 79.73418700113889
7209.96 79.583219595628
7464.84 79.63778534709772
7728.52 79.54346267636194
8000.98 79.54844039637686
8282.23 79.2816779194307
8575.2 79.39966893484821
8876.95 79.67731787248252
9190.43 79.4758740938487
9512.7 79.01007650513736
9849.61 76.90604809066421
10195.3 76.94276329622902
10555.7 77.77410436775847
10927.7 78.4750244158699
11314.5 79.29128467396329
11712.9 79.3362189203073
12126.0 79.07406678180502
12553.7 79.04416674184179
12996.1 79.17235361391953
13453.1 79.44792107960536
13927.7 79.78933054338158
14419.9 80.58351183713951
14929.7 80.28603118920874
15454.1 79.2991223026422
15999.0 79.09462969725571
16564.5 77.34381542494819
17147.5 75.0407657737313
17753.9 73.08315654432924
18377.9 73.12100099389406
19028.3 71.81274112931528
19699.2 57.723998558590935
19998.0 53.87238220703908
