Freq "Front Wall Bounce"
20.5078 49.46510745559071
23.4375 53.762166513772215
26.3672 58.079753656922534
29.2969 61.769096444498444
32.2266 65.58477809293063
35.1563 69.23731931983313
38.0859 72.36253401723617
41.0156 75.02384941020577
43.9453 76.89412321897623
46.875 78.13414170376647
49.8047 78.92839896835619
52.7344 79.42470097264393
55.6641 79.80979121657515
58.5938 80.0821245161698
61.5234 80.33344166353855
64.4531 80.49106093967184
67.3828 80.72111778973482
70.3125 80.91282134420622
73.2422 81.10429150978347
76.1719 81.34041532067013
79.1016 81.437295843027
82.0313 81.81533310670216
84.9609 82.08490421543547
87.8906 82.04615069889167
90.8203 81.71348564100025
93.75 82.30428151871651
96.6797 82.57426907848726
102.539 82.74605789868572
105.469 82.75296024888361
108.398 82.75669083776046
111.328 82.91872526933436
117.188 83.32891850463125
120.117 83.59060890969859
125.977 83.60539269732094
128.906 83.57227291574942
134.766 83.57462544238219
137.695 83.59500164039078
143.555 83.39934645075661
149.414 83.58265237483155
155.273 83.76940947901917
158.203 83.7220034264348
164.063 83.56449862368055
169.922 83.481097664329
175.781 83.29430888286844
181.641 83.23655364577814
190.43 83.1546444071129
196.289 83.06605263154474
202.148 83.08293124577479
210.938 83.00499977226723
216.797 82.81037479738235
225.586 82.84078297208846
234.375 82.93414753695892
240.234 82.7541651581384
249.023 82.78103082640713
257.813 82.76347680600203
266.602 82.3906380369052
278.32 82.19201665006862
287.109 82.32315603131916
295.898 82.46624523922218
307.617 82.28302563681507
319.336 82.29663474995735
331.055 82.14555375281736
342.773 81.59628478221097
354.492 82.17219438861679
366.211 82.96902582221962
377.93 83.66621183526784
392.578 83.5084123463799
407.227 83.03028431969844
421.875 83.18422531815199
436.523 83.12313136313288
451.172 83.85447705264811
465.82 83.64020504192135
483.398 83.38817390363066
500.977 83.4620764692075
518.555 83.3437031700676
536.133 83.21314867110172
553.711 83.56902491157032
574.219 83.57094212552518
594.727 83.46635441173116
615.234 83.37821135553045
638.672 83.90368257759684
659.18 83.77267944113059
682.617 83.98409231051808
706.055 83.93341548156376
732.422 83.30708490394895
758.789 83.52832864119404
785.156 82.68578390387786
811.523 83.6718321190722
840.82 83.73350051440131
870.117 83.78093470474863
902.344 83.67987680065521
931.641 83.83869564789566
966.797 83.49628065995995
999.023 83.30129312623173
1034.18 83.14501055554727
1072.27 83.08835146766066
1110.35 82.62329915752828
1148.44 82.33244106555136
1189.45 82.73856487353068
1230.47 83.3841167419006
1274.41 84.21484665053225
1318.36 85.01935799201895
1365.23 85.82840544676083
1415.04 85.54734580915432
1464.84 85.07396080948641
1514.65 84.80256832402604
1570.31 84.30740898077869
1623.05 83.46173847028612
1681.64 82.63676220000708
1740.23 82.97156414044751
1801.76 83.12914640897155
1866.21 82.76506342056034
1930.66 82.07123955221671
2000.98 83.04809467175406
2071.29 84.04105728146115
2144.53 83.87591467774634
2217.77 83.01808290857248
2296.88 83.78309328339348
2378.91 84.0624870322178
2460.94 83.01082684357637
2548.83 82.72624482180062
2639.65 82.74701679837125
2733.4 82.41906757253061
2827.15 82.67412579608707
2926.76 82.7246491001161
3032.23 82.70575014323737
3137.7 83.41901770599308
3249.02 83.78127523542
3363.28 83.9651219676151
3483.4 84.47492326651896
3606.45 84.35302443199451
3732.42 83.92671628454326
3864.26 84.19530175292572
3999.02 84.26713246757022
4139.65 83.7205606076353
4286.13 84.12230094640644
4438.48 83.57492199152738
4593.75 83.84376003105719
4757.81 83.75193579672565
4924.8 83.92733810677858
5097.66 83.92809616663267
5279.3 83.47079424181062
5463.87 83.9703341444804
5657.23 83.45953292357056
5856.45 83.44582513026909
6061.52 83.69065316852026
6275.39 83.74702051600484
6498.05 83.35974552147168
6726.56 83.03715744166476
6963.87 82.79426255528757
7209.96 82.71235485164304
7464.84 82.91788066853165
7728.52 83.32467439004711
8000.98 84.10141962041722
8282.23 84.83540762870679
8575.2 84.93369588624483
8876.95 84.65959834166243
9190.43 84.07352862949155
9512.7 83.52854548153978
9849.61 81.66774339907394
10195.3 81.04588634482981
10555.7 82.18754176237272
10927.7 82.7032380201167
11314.5 82.99149845518865
11712.9 82.74538375559007
12126.0 82.70491752529901
12553.7 82.39964294328865
12996.1 81.90060722676148
13453.1 81.36367506715534
13927.7 80.72871410496482
14419.9 80.4564079278011
14929.7 79.00674007829426
15454.1 75.98495933031005
15999.0 81.80071437254215
16564.5 79.37029321801157
17147.5 75.98195213788011
17753.9 77.32994646800482
18377.9 73.02890039690746
19028.3 72.48926199172612
19699.2 60.34275311421551
19998.0 65.57545825939039
