Freq "Rear Wall Bounce"
20.5078 57.76170637655365
23.4375 60.479629833705516
26.3672 63.73211749043912
29.2969 66.43440158764032
32.2266 69.43796373203212
35.1563 72.24928516732272
38.0859 74.82945966471767
41.0156 76.97363505873555
43.9453 78.45331350481813
46.875 79.43560444509284
49.8047 79.98560377540451
52.7344 80.31989074481065
55.6641 80.55508688495543
58.5938 80.71538881747328
61.5234 80.85370351904633
64.4531 80.87599503817147
67.3828 80.99668452174258
70.3125 81.18245419505642
73.2422 81.37255559915023
76.1719 81.52147162668032
79.1016 81.67484201563295
82.0313 81.85776725439035
84.9609 81.68927457070471
87.8906 81.9225086164358
90.8203 82.14531174188734
93.75 82.27114350132724
96.6797 82.11975614051015
102.539 82.48492710380476
105.469 82.52212918771075
108.398 82.52181203667406
111.328 82.59974024184653
117.188 82.87394334218796
120.117 83.04909734089865
125.977 82.88493830530496
128.906 82.74477453950139
134.766 83.06662763868712
137.695 83.12271722062313
143.555 82.90280262262927
149.414 82.70229867494368
155.273 82.60564664129151
158.203 82.62996447902744
164.063 82.70236042712897
169.922 82.45940011200237
175.781 82.16061259996687
181.641 82.05375656729002
190.43 81.92645791550144
196.289 81.86872549088893
202.148 81.60264997940378
210.938 81.22750031589824
216.797 81.13460722675914
225.586 80.84378917178444
234.375 80.63981998289823
240.234 80.49671991356966
249.023 79.89885372219486
257.813 80.1522526503936
266.602 79.49674552449692
278.32 79.49040273014529
287.109 79.22191639013691
295.898 78.81036264495317
307.617 78.88992636314723
319.336 78.35386299821332
331.055 78.10425915190906
342.773 77.86240493796568
354.492 77.06684491262534
366.211 77.53076929207693
377.93 78.80960525323688
392.578 78.74902160480514
407.227 78.40089515681358
421.875 77.31830548306938
436.523 78.32267665143934
451.172 77.95510031910213
465.82 78.07158828456583
483.398 76.7128835640623
500.977 77.1809397821298
518.555 77.0085536392865
536.133 76.73198011634405
553.711 76.06311855748628
574.219 76.63392504127711
594.727 76.79401702904579
615.234 75.98610919205979
638.672 76.62442450856024
659.18 75.88260823489667
682.617 76.26999357541031
706.055 75.69994473571266
732.422 75.32909807684729
758.789 75.6298884059141
785.156 74.37739272489553
811.523 75.46807204871608
840.82 74.88596909486161
870.117 75.34133200665615
902.344 74.02292164984908
931.641 74.31361609200432
966.797 73.21646215268056
999.023 73.07898687365673
1034.18 72.13875225108305
1072.27 71.28210831085912
1110.35 70.91534780622841
1148.44 70.33146206602227
1189.45 70.23222337326429
1230.47 70.23797492087677
1274.41 70.79593436917555
1318.36 71.83683275323041
1365.23 71.89286691304456
1415.04 71.06006888996544
1464.84 70.20967088898176
1514.65 70.00544049498866
1570.31 69.54309007189305
1623.05 69.07451977288072
1681.64 67.90088736714354
1740.23 67.41330404036633
1801.76 67.82993500128943
1866.21 67.82315606702302
1930.66 68.12022151211576
2000.98 68.57065160685976
2071.29 69.4743412320784
2144.53 69.21405496302528
2217.77 68.9270803545477
2296.88 68.94525313682793
2378.91 68.88498119511685
2460.94 67.46881257236518
2548.83 66.6528425623507
2639.65 66.91998177045502
2733.4 66.93959393297716
2827.15 67.05276851445484
2926.76 66.39800130489091
3032.23 65.45021796878198
3137.7 65.66362249682301
3249.02 66.48012099181938
3363.28 66.66357910770624
3483.4 67.37905372171527
3606.45 67.81297684327032
3732.42 67.89621764134445
3864.26 67.48625355795919
3999.02 66.97577122592604
4139.65 66.231015922558
4286.13 65.46244096678254
4438.48 64.9143938322462
4593.75 64.8274046609228
4757.81 65.8279397214349
4924.8 65.88191811275226
5097.66 65.96930663258648
5279.3 65.7289828193616
5463.87 65.0212858311542
5657.23 65.02574646750928
5856.45 64.2219235748508
6061.52 63.594647159650904
6275.39 63.63098006624223
6498.05 64.25252141898322
6726.56 63.78355522978386
6963.87 63.50472828225011
7209.96 62.33974407714098
7464.84 61.786315807252194
7728.52 61.846601257075335
8000.98 62.42806692701832
8282.23 63.20373826460187
8575.2 62.454202831120384
8876.95 61.12422704682395
9190.43 60.565150147854
9512.7 60.49493707224103
9849.61 56.414867441181414
10195.3 54.675761742549795
10555.7 56.30051199693115
10927.7 56.1572605415093
11314.5 54.83405073917099
11712.9 53.98041802812274
12126.0 54.34718898810853
12553.7 53.55300342589898
12996.1 52.969968182334796
13453.1 52.60507813708848
13927.7 51.41796558635677
14419.9 50.855611612841656
14929.7 49.17864607685674
15454.1 45.4155517239807
15999.0 50.05835522867618
16564.5 47.339164146327775
17147.5 42.805685785146224
17753.9 42.83387059771216
18377.9 38.53866956873672
19028.3 34.310084185519585
19699.2 33.499121825399456
19998.0 33.41385504898402
