Freq,Floor Bounce,Ceiling Bounce,Front Wall Bounce,Side Wall Bounce,Rear Wall Bounce,Total Early Reflection
20.5078,58.74276239353122,57.01640978024878,59.359821364726656,57.85607008595471,69.15890098794792,63.410132207469815
21.9727,61.64165249464392,60.121797564369956,62.38252061881326,60.608964086603265,70.3449751326364,65.10434895631373
23.4375,64.08634532873018,62.27224481662094,64.57849029338857,62.56948609422898,71.03430367056392,66.3579692423428
24.9023,65.01664048964297,63.415850624476036,65.57028646900208,63.528798453234,71.92467530763801,67.29265802931187
26.3672,66.91999976928315,65.86025577424624,67.32081889724641,66.02614852206717,73.2350300199683,68.94745797297287
27.832,68.71872098803385,68.1017338375724,69.04980638414189,68.21867265913127,74.48941512903039,70.54534724333551
29.2969,69.9597049199404,69.32347474454653,70.25044520465485,69.46604271959099,75.3092274561944,71.57507306497693
30.7617,71.46783208199312,71.11472178893537,71.67518775118084,71.2959270114779,76.60100037732452,73.04708170624303
32.2266,72.81009924765311,72.67281971336908,72.97829710771276,72.85280819392236,77.740197059834,74.35132029840003
33.6914,74.39830691564819,74.3428735835393,74.50866095332077,74.53610351816704,78.84470492738066,75.7522425961921
35.1562,75.65737092436868,75.64224364913746,75.71915180156334,75.85420141019037,79.81371902952604,76.90318110608709
36.6211,76.86724439385729,76.93568349044772,76.89188447992225,77.15227805092994,80.75644157418628,78.03200470544408
38.0859,77.95667184646153,78.09177638706218,77.96907145903486,78.28981062596854,81.58978144607214,79.04406928555021
39.5508,78.90401893703668,79.08645363777006,78.89999388357549,79.28083337804576,82.3302121765879,79.93083341965144
41.0156,79.79616052161495,80.00841725509619,79.77646222744772,80.19772462253025,83.02529468445643,80.76233755236674
42.4805,80.57469593045491,80.81732186437549,80.5476891419762,80.99826815721202,83.62196969380744,81.48841266746618
43.9453,81.30695520317057,81.58093335722536,81.27071204281938,81.75773638244507,84.21869700606592,82.18569565470158
45.4102,81.94018387961559,82.25210072792592,81.90296556787163,82.4131751878206,84.71998035996509,82.78781187492794
46.875,82.50129852730706,82.85430260556306,82.46218903523518,83.00446513322768,85.20529475911451,83.33800875101477
48.3398,83.06566895313533,83.42751667162662,83.02045208694922,83.57637421624818,85.62567300728142,83.86061981590278
51.2695,84.17525334916246,84.53360431360659,84.12520914431704,84.67416132860214,86.39092392552503,84.86592147519299
52.7344,84.5847043985361,84.94830133938369,84.53774606997304,85.07346020009669,86.64727962949547,85.23196644365376
54.1992,84.94894290953891,85.31884771905831,84.90617165115923,85.42862872184608,86.86102681589816,85.55518155254865
55.6641,85.2694650244715,85.64531066716798,85.22965165981805,85.74451542245545,87.07408280519758,85.84767271468631
58.5938,85.86187013458257,86.27470556798028,85.84284394589379,86.33321832928863,87.450152970657,86.39383661301197
60.0586,86.11473410890456,86.55801711218123,86.11227364594515,86.58778699382714,87.60329818521132,86.63073144542054
62.9883,86.63557919209046,87.10248094066213,86.65246815402033,87.09525948518039,87.91685119814696,87.1061495924105
64.4531,86.8845108601939,87.32340634928744,86.89498450742123,87.31814387586407,88.04758033621115,87.31487337809969
67.3828,87.30904992656298,87.66459047138954,87.29475072173146,87.6900034212099,88.26258312288199,87.65872652815091
68.8477,87.46456136364043,87.79377502466156,87.44278595414139,87.8290446624798,88.33297083450407,87.78482271550024
71.7773,87.65365483878756,87.92714888291428,87.61651647377849,87.98294141559187,88.3570358689605,87.91577228145223
74.707,87.81899133741825,88.06257913130234,87.77409042984678,88.12052466348798,88.39588295417781,88.0402745280116
77.6367,87.94761986366856,88.18053716708874,87.91296980656743,88.22091306340283,88.35820584941052,88.12734145301509
79.1016,87.95393336117019,88.18262993042923,87.92157011185955,88.2170147162436,88.31097461535117,88.11990583885225
82.0312,87.94849164693738,88.15871674609527,87.91959812002784,88.1848148371426,88.17342010492511,88.07858844876843
84.9609,87.88865119184592,88.0593401954091,87.85925348479537,88.08493443962013,87.97354685642046,87.97406699238967
87.8906,87.81326607808089,88.00997568138888,87.81308640442367,87.99487953717464,87.78945679089887,87.88522128828409
90.8203,88.04303918253085,88.23643556354118,88.04965004162428,88.18317863220838,87.93695785465833,88.09117379797202
95.2148,88.19794523521527,88.4014702338099,88.22178769516883,88.3236497553752,87.98648247376883,88.22852167192625
98.1445,88.05016809626257,88.24731661419047,88.08609520740565,88.15987837356606,87.74748673673122,88.0614536542455
101.074,87.88244463574208,88.11200173964058,87.94518671718117,87.98461915727198,87.53380794731584,87.89588494836605
105.469,87.75767860737841,87.94628309093852,87.83495249080829,87.78457947228038,87.1995602304864,87.712234748811
108.398,87.79779425174812,87.83986803489445,87.83380068662734,87.7224140056869,87.04520837531813,87.65811540383575
112.793,87.65215007235017,87.48212329690807,87.62862973597689,87.45329595290772,86.54778147644895,87.3713221939838
117.188,87.375683739389,86.96563419895006,87.30834252179037,87.03221431179523,85.95384131361907,86.955851495547
120.117,87.59971958254198,87.13661926385016,87.57718107160746,87.159004443785,85.73914600012476,87.09237266802853
124.512,87.5538303837254,87.58227829697486,87.70936906818815,87.36516724852402,86.14026135145816,87.30603380889451
128.906,87.06129442661165,87.16845896807342,87.25828585261526,86.87152401991536,85.74944840838259,86.8548853930391
133.301,86.9600798314509,87.02176225327253,87.20286959806648,86.63478008466059,85.05525706488459,86.63983671380365
139.16,87.16007896743842,86.89428641177317,87.31995537727249,86.6906057459022,84.74808796379097,86.65351448222852
143.555,87.25229660053617,86.88114229284767,87.42990004913553,86.71104795389962,84.51252026138914,86.6721713056606
147.949,87.58428684400543,87.4270656642322,87.88025537639567,87.13276188707871,84.97590799695298,87.11192784384524
153.809,87.96558896191632,87.91633684656065,88.25499754947923,87.58348534772078,85.489272319634,87.54532403903158
159.668,87.29159550798872,87.17000917234313,87.49303358880422,86.92105082617876,85.33408862868457,86.90603990027068
165.527,87.32726484245117,87.10057916417878,87.60580047492357,86.72006229881335,84.60215759683217,86.79064314088993
171.387,87.58432987404112,87.42604672630151,87.89709748410323,87.00753547921124,84.3166977664531,87.01506677643867
177.246,87.00105724535847,86.9600964794034,87.3854160469528,86.67528423358847,84.53710145767772,86.61802906151541
183.105,86.73933941705467,86.99238414206695,87.35973923363692,86.32697568396833,83.67434744676349,86.392971958165
188.965,87.17715116141557,87.33628553859671,87.76133667358457,86.67586783316268,83.39413293993064,86.7106807005174
196.289,87.68630197201684,87.393080098162,87.96525942917707,86.99993116125081,84.156844442763,87.0298010070748
203.613,87.35160208975232,86.99956569801029,87.60494431292857,86.63856869225218,84.27831170245611,86.72035311892581
210.938,86.89505577340073,86.5196022500838,87.19155126357985,86.10357588137335,83.95091257095424,86.26913847390114
218.262,86.7629092374253,87.02598209046872,87.36284201427415,86.15441676224724,82.946997953452,86.30068960911667
225.586,86.99494882443626,86.59956013184842,87.34803435096686,86.0156695493342,83.92529921542106,86.32882719335925
232.91,87.57100945639769,86.63907452578702,87.82790524143721,85.98722989388918,83.87679521322545,86.59036383348533
241.699,87.70564699651686,86.84445260754673,88.16412964616856,86.3808073592583,82.231244263235,86.68417793972434
250.488,88.70948002881494,88.6092454532665,89.52066221758747,88.28223979626475,81.44939748514845,88.03095406188874
259.277,88.54047647311087,87.51880300675192,88.76468563541353,87.9933414825402,84.33057746998885,87.68317802106468
268.066,88.57797604022537,87.50729697026878,88.88927083506753,87.66137164689025,83.71709488154008,87.60025267037649
276.855,88.49413085688906,87.35778922643827,88.73502522463941,87.72036360207315,84.43550764220359,87.5858238787941
287.109,87.10443909702316,85.84374031791131,87.1034474661388,86.04489217690178,84.55144541775223,86.22862964356581
297.363,87.07113335979253,85.2503242381282,87.79715222925967,85.54977054624875,81.40750318983277,85.89681338289603
307.617,87.5255545157581,85.45906365606723,88.15908330300593,86.13703548636948,81.42029431222772,86.27610955651258
319.336,88.68359213545978,87.09859870095357,89.4157898475645,87.49131764819128,80.45911183558061,87.47833524045619
329.59,87.55049410229087,86.75433068763478,88.5547818808293,87.49966246902314,83.76021394419448,87.09179477717537
341.309,87.50595915650038,85.24013089374282,87.91712633770767,85.39592294914755,83.73288468438241,86.2303541527005
353.027,87.28825773224523,85.54999664440811,87.49985329696878,84.78237218590095,83.1883064168158,85.94605872475347
366.211,87.0785389488627,86.00187252018533,88.0692451379567,86.23839447162331,80.99906769770425,86.22451714181342
379.395,87.1080031784145,86.0979638578627,88.02700347859927,85.91595634202396,82.5205987455731,86.28397094945821
392.578,87.74449216234487,85.46782813246645,88.35527991725503,85.74701553469271,81.28918768745342,86.31846539230712
405.762,87.87826871722378,84.90586306172153,88.38396190745148,85.51638037445929,81.04747344327544,86.22354059531645
420.41,88.1814761308249,85.10541202296906,89.73161099377998,86.70857695226697,79.03572837218726,86.93849890203448
435.059,87.76124520051953,85.5111849877585,88.32623388063108,87.10260467027085,82.00092369085039,86.63664412672712
451.172,85.68612485768918,84.20468834073085,86.65727818919842,83.53543517120353,81.40925371253404,84.65637598491196
465.82,86.16266475950908,83.3443314854272,86.99736827231273,83.45129088608336,79.73931483189926,84.61115312088083
483.398,86.4961004534695,84.97145883101464,87.32699699660951,84.58138868565021,78.59768793677067,85.21241286590661
499.512,86.4935435517121,84.7896427386238,87.52617316129894,84.81735495300323,78.10483439512278,85.26566222786303
517.09,86.43704849794385,84.73394997010249,87.8205904729169,84.84741304252823,77.9883969260101,85.3436967905714
536.133,86.16256084183445,84.3083951980434,86.80834144098563,83.10649720731385,78.92593778473928,84.60923346144861
555.176,86.71248342934727,83.7813990226446,86.88547304696107,83.91217595705146,78.0527516675097,84.78886611404225
574.219,84.79020831221139,83.45496776609397,85.36580692641579,83.41946141322154,77.66832975126648,83.59877468144207
594.727,86.29202954754408,83.6377316730996,86.68544053160205,83.20386201529875,75.76599868755503,84.37715928991125
615.234,84.63992294826525,84.01335987256414,85.94992286321448,83.66119801056537,76.78496881254756,83.86180513389188
637.207,85.40622071306645,85.39746248284561,86.85406947207093,83.373531576045,77.52733635205715,84.63125362616
659.18,87.79205094680852,84.66350494969477,88.62161960429869,84.99987816988045,78.49419044118638,86.04027038420017
682.617,86.33729096671617,85.13773212283246,87.3507428925393,84.28058820077757,76.71217196757928,85.09169351184934
707.52,86.51173725905618,84.1274808271298,87.19899849760363,83.80079757208999,78.21215689152784,84.87825907594417
732.422,86.47901385827737,83.79911278483294,87.08781582806255,84.31290645286107,77.44929652399951,84.83252037716018
757.324,87.64878917213008,86.08033270005777,88.79545958449859,84.62777775432309,78.15581878070806,86.23439469420316
785.156,88.77577874709613,86.1744074339312,89.32539265613877,86.20844626912125,77.88557622355215,86.9967191081603
811.523,88.15466140239029,85.35600669957074,88.03280346160557,84.04875266998171,78.0879331257114,85.91337549749598
840.82,88.0142192839315,86.81364853575091,86.50730759547004,84.49661042970533,78.89563434527142,85.84277875511827
870.117,88.64962570782703,86.55074706318285,88.10345224461705,83.97633705577638,77.65460083494125,86.31232351502207
900.879,88.68761295544455,86.24397310069477,87.97909955976661,84.01725349917376,76.10387855777314,86.1934416682828
933.105,87.55513039398687,86.32782968887673,86.77618890016699,83.8779683203848,75.6844247594461,85.45581594529114
965.332,87.89707798022236,86.53552696628287,85.8589343716393,83.15969687509735,76.40967318498966,85.32159279951709
1000.49,87.2334962499392,85.66978479037165,88.26992898665637,84.45902250593622,75.74201364352253,85.76561151287456
1035.64,87.42157565333353,85.78966763269415,87.65137739173214,83.4800411540515,74.69477070305496,85.48063433721163
1072.27,87.54789544730437,85.81284388591476,86.8204718620203,83.61715556522621,76.59927249268345,85.33130951194987
1108.89,87.39678446662458,84.15185446880469,88.45115618885038,84.31689645110256,75.58970687923023,85.60077441665129
1148.44,87.63465847272937,85.05652492275274,87.67528491560952,83.46987605399963,74.89357835393294,85.41355829402448
1189.45,87.42019130188464,84.53954145174183,87.18906191238653,83.58630531115655,74.72662353122152,85.10025764220265
1230.47,87.08144125345153,84.90099053115094,87.73927761205039,82.87727116396414,75.94024972598345,85.17776650368717
1274.41,86.33601003041716,84.23650968981252,88.0161579189163,83.8175062142441,74.41310059261119,85.04379900998745
1319.82,86.45709050690698,84.43137496045011,87.24902061200802,82.07913095839868,74.660986676105,84.59732627927843
1366.7,85.87443410781549,84.52670834110766,88.35506599395089,83.0178223136359,75.54723021633937,85.02772358844544
1413.57,85.9264178247599,83.46460540697241,87.95888548949678,81.33143125847259,72.00863736959747,84.44120638325037
1463.38,86.18127298291066,83.46304750465569,87.4406363561612,82.20648315007455,72.67347222712678,84.39797415834893
1516.11,85.80753951301239,81.78820456342498,87.00844667860513,80.13841159025675,71.73475222476961,83.62522748623985
1568.85,85.68304095547035,82.08323725664292,86.01675280013562,80.47869030498427,70.0497758690316,83.23481960842739
1624.51,85.21425620861828,81.9744485908746,86.82870765101424,79.87236320819042,71.59274839829558,83.35705763661545
1681.64,85.58768166438028,82.52090078373428,86.94075975675966,81.08165508087367,70.06013215031264,83.70533082142305
1741.7,85.67966627089167,82.35604783439646,87.44631704715,81.4727154636494,72.35343456057723,83.9961309430297
1803.22,86.34711540745131,82.2379754504338,86.59780074439719,81.59787374441154,71.48079280842757,83.85263646607993
1866.21,85.89402047010745,81.3582877434628,86.82472758254623,81.97379558815723,73.3511842122431,83.75027113880715
1932.13,85.95349841164767,81.60563916364615,86.39876461890745,81.36993171745218,72.35154223364258,83.5382466917855
1999.51,85.74165225411164,82.43623441442739,87.20484720123636,82.06427382435265,72.53372897128799,83.99507252677908
2069.82,86.28394602849953,82.79390973032037,87.3264857317994,82.09036081482768,71.82615248295525,84.2574610147331
2143.07,86.74287502359321,82.20366369247076,86.74602504438118,81.50593426051773,72.45693771435914,84.04918186308183
2219.24,86.40528276256526,82.54090861159243,87.27482924554425,82.0963687199354,71.48341087203937,84.23771073255462
2296.88,86.56085355066048,83.26491162824811,88.33627849542111,83.02064785746936,71.97913628875911,84.95007520120876
2378.91,86.61392770857962,83.96794870042089,88.58356462109934,83.05572251726903,72.58938128087114,85.1847525052314
2462.4,87.13867092062033,83.17089575806466,87.91703173855059,82.40360187217571,71.73745606626989,84.86527933529952
2548.83,86.82795984661465,83.42534750530372,87.8490051137779,81.99144743117127,71.053417587386,84.71906939545349
2639.65,86.16209942522471,82.78936367311695,88.95071905274324,82.90854540083151,70.91241045300596,85.04171509636247
2731.93,86.96433553205856,83.87140703151967,88.63243294099047,82.54876004646898,71.05396398698096,85.22025924878692
2828.61,87.20606622132314,84.27590442211472,88.98098953278905,82.96304638644376,71.65601159305534,85.55467330525015
2928.22,87.1105288140059,84.64228130610886,88.54349845503266,82.50588167138403,72.13889659848353,85.35252577917387
3030.76,87.20495640012678,85.32166310214888,88.57005024437345,84.26752845878848,72.26387405007175,85.72730592938353
3137.7,86.7865625059601,84.85522510992159,87.87852633122776,84.09721445211414,71.66056404870886,85.23251363535057
3249.02,86.78058972059773,84.9588395502464,86.49260407828535,83.93531503805252,70.95585164630978,84.75845776884773
3363.28,87.36332973805571,84.26647718727092,87.99749560542332,83.23540493487035,68.36494196000302,85.21164325791938
3481.93,87.86080530017459,84.4563224167498,88.70032588802653,83.43079589473044,66.65144046087346,85.69700986734838
3604.98,87.84537431789457,84.33114621517201,89.37247190355001,83.45441590823957,67.94678795510634,85.96202522856932
3732.42,87.9144701696383,84.33357383421612,89.7195960510133,83.69579645439732,69.11837708844895,86.16943438162542
3864.26,86.96860500835068,84.34511166267305,88.31045026734263,83.67269141479659,69.74032955701016,85.28820553766045
4000.49,85.55157919739841,83.54157561729983,87.62529930479357,83.10932518244822,68.0376500035584,84.39287553238795
4141.11,85.90217679844226,82.51883274041889,87.59315705291667,82.5160765228408,65.78485266235661,84.23131466150342
4287.6,85.66670489918369,81.27381096380415,87.65152241361875,81.86271173842756,65.49838436318538,83.95219668703166
4438.48,85.5230889634274,81.67301107202698,87.75273293001004,81.96006383429474,65.63567581060705,84.01550683560866
4595.21,85.10930103059545,82.66391928609886,87.02969909991144,82.30338626713376,66.316921826828,83.75781051603062
4756.35,86.29528177680226,83.38921248479377,87.62247218491812,82.56368122856902,67.16811881105565,84.4976813688244
4924.8,87.0176899219697,83.47256510257617,88.85351614354573,83.94811734846623,67.3267573259577,85.43394344995843
5097.66,88.14950824210223,83.86088065379725,89.66436222537533,83.9484649370225,67.49853581289298,86.18215680298509
5277.83,88.32773246193754,84.5535285515942,89.43888418770274,84.63447792485387,66.82493172492012,86.31455940426576
5463.87,88.64995513757825,84.87127536703085,89.48322507050634,84.57693156344435,67.12700437261144,86.4731650280198
5657.23,88.72600414860258,84.5731569496107,89.38520972031272,84.09006492269165,68.25090638992403,86.36192499752045
5856.45,88.61132298054156,84.3358978964746,90.06177306287569,84.65433864239989,67.3608021291473,86.64551797801569
6062.99,88.48502057550392,84.52314861973558,90.16061646960979,84.13748699423357,67.5207542377826,86.61139747324727
6276.86,87.76642788417097,84.12945179008375,89.85014921484023,84.47509671374905,66.78059190751358,86.24856110146834
6498.05,87.51139414126604,83.715153134862,89.06118585147412,84.0517399482839,67.0589575541314,85.71461623991037
6726.56,87.38075654588651,83.43995332984734,89.44844666194287,84.29369518236452,67.6930191069657,85.8507367861753
6963.87,87.86755392570944,82.81974519804774,88.94537470844274,84.27511249718326,66.36013525806267,85.70487018565184
7209.96,87.96842519150667,82.71947065084154,89.3712807196071,84.44800054812565,65.59082971651237,85.93454906554399
7464.84,88.26730480488958,83.82862061933334,89.24722567379997,84.36596793390876,66.5013761534722,86.08757194481603
7727.05,88.0936957448678,84.53680736473419,89.20741794818507,84.55425958609663,67.32570887709721,86.13402915429313
7999.51,87.69601674001737,84.1959206899993,89.6006510149206,84.71020188669823,66.16992108490057,86.15568412278657
8282.23,87.88142967484308,84.21933900920544,89.75097306573068,84.15906336898185,65.17288643293868,86.20404053395954
8573.73,87.52543878092987,83.57037204278929,89.92177488455229,84.45481975445426,65.4175438442196,86.14417599345617
8876.95,87.35556160076624,82.90844862892229,89.9128151232126,84.6233535238918,64.46095784762511,86.04698344545511
9188.96,87.45724892351349,83.18129408779173,89.754117359551,84.55864561720244,63.94773150387411,86.01619538235853
9514.16,87.31153809901136,83.04147641631963,89.65165949574488,84.53190912028211,65.11585700710727,85.9106234017995
9849.61,87.07042945554542,83.04385838136558,89.62820357476528,84.28941437531182,64.79301771684212,85.79874742876073
