Freq "Ceiling Bounce"
20.5078 56.80778402267302
21.9727 59.913171806794196
23.4375 62.06361905904518
24.9023 63.207224866900276
26.3672 65.65163001667048
27.832 67.89310807999664
29.2969 69.11484898697077
30.7617 70.90609603135961
32.2266 72.46419395579332
33.6914 74.13424782596354
35.1562 75.4336178915617
36.6211 76.72705773287196
38.0859 77.88315062948642
39.5508 78.8778278801943
41.0156 79.79979149752043
42.4805 80.60869610679973
43.9453 81.3723075996496
45.4102 82.04347497035016
46.875 82.6456768479873
48.3398 83.21889091405086
51.2695 84.32497855603083
52.7344 84.73967558180793
54.1992 85.11022196148255
55.6641 85.43668490959222
58.5938 86.06607981040452
60.0586 86.34939135460547
62.9883 86.89385518308637
64.4531 87.11478059171168
67.3828 87.45596471381378
68.8477 87.58514926708581
71.7773 87.71852312533852
74.707 87.85395337372658
77.6367 87.97191140951298
79.1016 87.97400417285347
82.0312 87.9500909885195
84.9609 87.85071443783335
87.8906 87.80134992381312
90.8203 88.02780980596542
95.2148 88.19284447623414
98.1445 88.0386908566147
101.074 87.90337598206482
105.469 87.73765733336276
108.398 87.63124227731869
112.793 87.27349753933231
117.188 86.7570084413743
120.117 86.9279935062744
124.512 87.3736525393991
128.906 86.95983321049766
133.301 86.81313649569677
139.16 86.6856606541974
143.555 86.67251653527191
147.949 87.21843990665644
153.809 87.7077110889849
159.668 86.9613834147674
165.527 86.89195340660302
171.387 87.21742096872575
177.246 86.75147072182764
183.105 86.7837583844912
188.965 87.12765978102095
196.289 87.18445434058624
203.613 86.79093994043453
210.938 86.31097649250805
218.262 86.81735633289296
225.586 86.39093437427266
232.91 86.43044876821126
241.699 86.63582684997097
250.488 88.40061969569074
259.277 87.31017724917616
268.066 87.29867121269302
276.855 87.14916346886251
287.109 85.63511456033555
297.363 85.04169848055244
307.617 85.25043789849147
319.336 86.88997294337781
329.59 86.54570493005902
341.309 85.03150513616706
353.027 85.34137088683235
366.211 85.79324676260957
379.395 85.88933810028693
392.578 85.25920237489069
405.762 84.69723730414577
420.41 84.8967862653933
435.059 85.30255923018274
451.172 83.9960625831551
465.82 83.13570572785147
483.398 84.76283307343888
499.512 84.58101698104804
517.09 84.52532421252673
536.133 84.09976944046764
555.176 83.57277326506885
574.219 83.24634200851821
594.727 83.42910591552383
615.234 83.80473411498838
637.207 85.18883672526985
659.18 84.45487919211901
682.617 84.9291063652567
707.52 83.91885506955404
732.422 83.59048702725718
757.324 85.871706942482
785.156 85.96578167635543
811.523 85.14738094199498
840.82 86.60502277817515
870.117 86.3421213056071
900.879 86.03534734311901
933.105 86.11920393130097
965.332 86.32690120870711
1000.49 85.46115903279589
1035.64 85.58104187511839
1072.27 85.604218128339
1108.89 83.94322871122893
1148.44 84.84789916517698
1189.45 84.33091569416607
1230.47 84.69236477357518
1274.41 84.02788393223676
1319.82 84.22274920287435
1366.7 84.3180825835319
1413.57 83.25597964939665
1463.38 83.25442174707992
1516.11 81.57957880584922
1568.85 81.87461149906716
1624.51 81.76582283329884
1681.64 82.31227502615852
1741.7 82.1474220768207
1803.22 82.02934969285803
1866.21 81.14966198588704
1932.13 81.39701340607039
1999.51 82.22760865685163
2069.82 82.5852839727446
2143.07 81.995037934895
2219.24 82.33228285401667
2296.88 83.05628587067235
2378.91 83.75932294284513
2462.4 82.9622700004889
2548.83 83.21672174772796
2639.65 82.58073791554119
2731.93 83.6627812739439
2828.61 84.06727866453897
2928.22 84.4336555485331
3030.76 85.1130373445731
3137.7 84.64659935234583
3249.02 84.75021379267064
3363.28 84.05785142969516
3481.93 84.24769665917404
3604.98 84.12252045759625
3732.42 84.12494807664037
3864.26 84.13648590509729
4000.49 83.33294985972407
4141.11 82.31020698284313
4287.6 81.06518520622838
4438.48 81.46438531445122
4595.21 82.4552935285231
4756.35 83.18058672721801
4924.8 83.26393934500041
5097.66 83.65225489622149
5277.83 84.34490279401844
5463.87 84.66264960945509
5657.23 84.36453119203495
5856.45 84.12727213889885
6062.99 84.31452286215982
6276.86 83.92082603250799
6498.05 83.50652737728625
6726.56 83.23132757227158
6963.87 82.61111944047201
7209.96 82.51084489326578
7464.84 83.61999486175758
7727.05 84.32818160715843
7999.51 83.98729493242354
8282.23 84.01071325162968
8573.73 83.36174628521353
8876.95 82.69982287134653
9188.96 82.97266833021597
9514.16 82.83285065874387
9849.61 82.83523262378982
10196.8 82.38458626039854
10555.7 82.26253358466026
10927.7 82.41063489180549
11313.0 82.43742551447411
11712.9 81.92776859766698
12126.0 81.2462715942853
12553.7 81.14133215253764
12996.1 80.99331380641006
13454.6 80.85006077228496
13929.2 81.43483841483389
14419.9 81.60848531118828
14928.2 80.90933789658764
15455.6 79.57743683229907
16000.5 77.41362539129364
16564.5 74.39511597411327
17148.9 73.98823260296402
17752.4 73.59036669192952
18379.4 72.03482480102801
19026.9 71.46141364875507
19697.8 70.82201942549679
19999.5 70.0052427444533
