Freq "Sound Power"
22.4 21.63264440341635
23.0 22.83422173145516
23.6 23.874035273047014
24.0 24.78180360467593
25.0 25.707297089995762
25.8 28.264872237991113
26.5 30.888194484481915
27.2 32.98762819479373
28.0 34.762228624077466
29.0 36.30440451253389
30.0 37.63608864068894
30.7 40.23698076285049
31.5 43.50809008334082
32.5 45.92640164834097
33.5 47.85095210767577
34.5 49.47957476594581
35.5 51.2742917760562
36.5 54.050826178746064
37.5 56.286778489358795
38.7 58.089685171984684
40.0 59.61576834205812
41.2 61.92479751065781
42.5 64.59412823459752
43.7 66.65899155304467
45.0 68.36261812289735
46.2 70.18273891162309
47.5 72.1637233704937
48.7 73.80357196310159
50.0 75.27038079869084
51.5 76.84830123886671
53.0 78.3508908233884
54.5 79.68210692548007
56.0 81.15313033820044
58.0 82.75749779576611
60.0 84.1525024408536
61.5 85.2470907171193
63.0 86.05192929914594
65.0 86.82989861943868
67.0 87.45960224189082
69.0 88.00473108835043
71.0 88.48829536469134
73.0 88.81679648736771
75.0 89.15901306973174
77.5 89.38472168995553
80.0 89.51303241203118
82.5 89.64640465188612
85.0 89.74970115210151
87.5 89.8237363763017
90.0 89.82924321128424
92.5 89.80541015773417
95.0 89.72621312052237
97.5 89.65649446462417
100.0 89.61386814756476
103.0 89.5900859717356
106.0 89.569860454505
109.0 89.51148834547342
112.0 89.46427556781494
115.0 89.33898578862991
118.0 89.18683134698779
122.0 89.03387887455128
125.0 88.92611350849712
128.0 88.79954670907256
132.0 88.65691386964696
136.0 88.50326902360237
140.0 88.38133498660667
145.0 88.24697324323924
150.0 88.09114215385469
155.0 87.96330423891285
160.0 87.82561689233107
165.0 87.6475528133555
170.0 87.46768283475525
175.0 87.29309628274405
180.0 87.1187494375415
185.0 87.00799116024709
190.0 86.87852793398295
195.0 86.72883720742227
200.0 86.70706002414657
206.0 86.62562467120352
212.0 86.36974657973431
218.0 86.2125325822739
224.0 86.12064199807386
230.0 85.91977130983017
236.0 85.67344764067047
240.0 85.40167757823838
250.0 85.42161883897876
258.0 85.45093827438916
265.0 85.42619555183904
272.0 85.28757042573824
280.0 85.0080732909976
290.0 84.70455154768308
300.0 84.43436690114275
307.0 84.10687560681606
315.0 83.67954999620751
325.0 83.36512439275336
335.0 82.95387683979371
345.0 82.5789642147826
355.0 82.20935885255886
365.0 81.8547175353595
375.0 81.50444311932279
387.0 81.18110783311339
400.0 80.93533480791373
412.0 80.80343338769121
425.0 80.75712583743257
437.0 80.62922873371949
450.0 80.43065273209835
462.0 80.29663438934077
475.0 80.08509006921108
487.0 79.96228388799389
500.0 79.78969470068265
515.0 79.66354724796513
530.0 79.64124116247552
545.0 79.7856779036298
560.0 80.08516376800658
580.0 79.97560895122729
600.0 79.82329670620071
615.0 79.57709180650961
630.0 79.43305590427207
650.0 79.44193285082127
670.0 79.48728283212519
690.0 79.54790019387328
710.0 79.60036558992036
730.0 79.62174355512931
750.0 79.50484631125809
775.0 79.34124164472306
800.0 78.92421550600889
825.0 78.84787637358528
850.0 79.01173866483164
875.0 79.03089597398015
900.0 79.05593685834931
925.0 78.76925874263804
950.0 78.40624518059614
975.0 78.2382759384
1000.0 78.37255825165718
1030.0 78.61697505490703
1060.0 78.87055160099172
1090.0 79.06111654387706
1120.0 79.29959614657824
1150.0 79.68811020064759
1180.0 80.05181323947123
1220.0 80.05005267115732
1250.0 79.68753242891846
1280.0 79.21753325480358
1320.0 78.80831695635807
1360.0 78.84485559799451
1400.0 79.30850772045716
1450.0 79.90810930689847
1500.0 80.42280265872171
1550.0 80.50861941923411
1600.0 79.8845706147642
1650.0 79.02092832592308
1700.0 79.13318018877534
1750.0 79.68377477518078
1800.0 79.63725295177578
1850.0 79.09215282432486
1900.0 78.9037355991193
1950.0 79.05892744675309
2000.0 79.29053302021032
2060.0 79.48173174540966
2120.0 79.41565530548532
2180.0 79.25742164965936
2240.0 79.28850148503012
2300.0 79.34155077768204
2360.0 79.28209267544705
2400.0 79.26305037784091
2500.0 79.43445552418298
2580.0 79.56242746223464
2650.0 79.37882598856748
2720.0 79.11137079528409
2800.0 79.1329801667593
2900.0 79.28110438509584
3000.0 79.27187640065802
3070.0 79.02534124567683
3150.0 78.73615427332133
3250.0 78.83290834419665
3350.0 79.12244738536437
3450.0 79.04507860929746
3550.0 79.086484859016
3650.0 79.52661256235638
3750.0 79.51106242334535
3870.0 79.13318637477646
4000.0 78.80798495702601
4120.0 78.35345021787359
4250.0 78.20508047617074
4370.0 78.43617996202369
4500.0 78.44800365232076
4620.0 78.34210037076575
4750.0 78.41025403180036
4870.0 78.60787411793648
5000.0 79.02331942583123
5150.0 79.23700034378122
5300.0 79.00512329562598
5450.0 79.2376071583037
5600.0 79.35582932786141
5800.0 79.24641030675156
6000.0 79.24556446762274
6150.0 79.5178734497059
6300.0 79.70563517247827
6500.0 79.66246867835433
6700.0 79.65953397491485
6900.0 78.95710645395187
7100.0 77.68896146846043
7300.0 78.35550731514198
7500.0 79.0626454410211
7750.0 79.46592872275735
8000.0 79.38363145543599
8250.0 78.30424591823545
8500.0 78.17231135090492
8750.0 78.92056292001082
9000.0 79.29374441130852
9250.0 78.79590924285347
9500.0 77.99288784513186
9750.0 78.43616516017244
10000.0 78.51686175763297
10300.0 78.08201989151212
10600.0 78.40481572348048
10900.0 78.57826225398
11200.0 78.99890948770295
11500.0 80.11151676266974
11800.0 80.48427939260554
12200.0 79.64158399151296
12500.0 77.99905444775445
12800.0 73.52341450140325
13200.0 69.82636088194613
13600.0 77.32413373485142
14000.0 78.83277925155002
14500.0 79.13564046123598
15000.0 79.61268361992676
15500.0 78.93810578524634
16000.0 77.88225538217485
16500.0 76.72532200082568
17000.0 73.52589724646603
17500.0 67.21539806544467
18000.0 71.36216874453024
18500.0 72.15706786272101
19000.0 73.71321732987528
19500.0 69.29391244414225
