Freq "Sound Power"
22.4 21.66555579582142
23.0 22.867133123860228
23.6 23.906946665452082
24.0 24.814714997080998
25.0 25.74020848240083
25.8 28.297783630396182
26.5 30.921105876886983
27.2 33.0205395871988
28.0 34.795140016482534
29.0 36.33731590493896
30.0 37.66900003309401
30.7 40.26989215525556
31.5 43.54100147574589
32.5 45.95931304074604
33.5 47.883863500080835
34.5 49.51248615835088
35.5 51.30720316846127
36.5 54.08373757115113
37.5 56.319689881763864
38.7 58.12259656438975
40.0 59.64867973446319
41.2 61.95770890306288
42.5 64.62703962700259
43.7 66.69190294544974
45.0 68.39552951530241
46.2 70.21565030402816
47.5 72.19663476289877
48.7 73.83648335550666
50.0 75.3032921910959
51.5 76.88121263127178
53.0 78.38380221579347
54.5 79.71501831788514
56.0 81.18604173060551
58.0 82.79040918817118
60.0 84.18541383325866
61.5 85.28000210952437
63.0 86.08484069155101
65.0 86.86281001184375
67.0 87.49251363429589
69.0 88.0376424807555
71.0 88.52120675709641
73.0 88.84970787977278
75.0 89.19192446213681
77.5 89.4176330823606
80.0 89.54594380443625
82.5 89.67931604429118
85.0 89.78261254450658
87.5 89.85664776870676
90.0 89.8621546036893
92.5 89.83832155013924
95.0 89.75912451292744
97.5 89.68940585702924
100.0 89.64677953996983
103.0 89.62299736414067
106.0 89.60277184691007
109.0 89.54439973787849
112.0 89.49718696022
115.0 89.37189718103498
118.0 89.21974273939286
122.0 89.06679026695635
125.0 88.9590249009022
128.0 88.83245810147763
132.0 88.68982526205203
136.0 88.53618041600744
140.0 88.41424637901174
145.0 88.27988463564431
150.0 88.12405354625976
155.0 87.99621563131792
160.0 87.85852828473614
165.0 87.68046420576057
170.0 87.50059422716032
175.0 87.32600767514911
180.0 87.15166082994656
185.0 87.04090255265216
190.0 86.91143932638802
195.0 86.76174859982734
200.0 86.73997141655164
206.0 86.6585360636086
212.0 86.40265797213938
218.0 86.24544397467896
224.0 86.15355339047893
230.0 85.95268270223524
236.0 85.70635903307554
240.0 85.43458897064345
250.0 85.45453023138383
258.0 85.48384966679423
265.0 85.45910694424411
272.0 85.3204818181433
280.0 85.04098468340267
290.0 84.73746294008815
300.0 84.46727829354782
307.0 84.13978699922113
315.0 83.71246138861258
325.0 83.39803578515843
335.0 82.98678823219878
345.0 82.61187560718767
355.0 82.24227024496393
365.0 81.88762892776457
375.0 81.53735451172786
387.0 81.21401922551846
400.0 80.9682462003188
412.0 80.83634478009628
425.0 80.79003722983764
437.0 80.66214012612456
450.0 80.46356412450342
462.0 80.32954578174584
475.0 80.11800146161615
487.0 79.99519528039896
500.0 79.82260609308771
515.0 79.6964586403702
530.0 79.67415255488059
545.0 79.81858929603487
560.0 80.11807516041165
580.0 80.00852034363236
600.0 79.85620809860578
615.0 79.61000319891468
630.0 79.46596729667714
650.0 79.47484424322634
670.0 79.52019422453026
690.0 79.58081158627834
710.0 79.63327698232543
730.0 79.65465494753438
750.0 79.53775770366316
775.0 79.37415303712812
800.0 78.95712689841396
825.0 78.88078776599035
850.0 79.04465005723671
875.0 79.06380736638522
900.0 79.08884825075438
925.0 78.80217013504311
950.0 78.43915657300121
975.0 78.27118733080506
1000.0 78.40546964406225
1030.0 78.6498864473121
1060.0 78.90346299339679
1090.0 79.09402793628213
1120.0 79.33250753898331
1150.0 79.72102159305265
1180.0 80.0847246318763
1220.0 80.08296406356239
1250.0 79.72044382132353
1280.0 79.25044464720865
1320.0 78.84122834876314
1360.0 78.87776699039958
1400.0 79.34141911286223
1450.0 79.94102069930354
1500.0 80.45571405112678
1550.0 80.54153081163918
1600.0 79.91748200716927
1650.0 79.05383971832815
1700.0 79.16609158118041
1750.0 79.71668616758585
1800.0 79.67016434418085
1850.0 79.12506421672992
1900.0 78.93664699152437
1950.0 79.09183883915816
2000.0 79.32344441261539
2060.0 79.51464313781473
2120.0 79.44856669789039
2180.0 79.29033304206443
2240.0 79.3214128774352
2300.0 79.37446217008711
2360.0 79.31500406785212
2400.0 79.29596177024598
2500.0 79.46736691658805
2580.0 79.5953388546397
2650.0 79.41173738097255
2720.0 79.14428218768916
2800.0 79.16589155916436
2900.0 79.31401577750091
3000.0 79.30478779306308
3070.0 79.0582526380819
3150.0 78.7690656657264
3250.0 78.86581973660172
3350.0 79.15535877776944
3450.0 79.07799000170253
3550.0 79.11939625142107
3650.0 79.55952395476145
3750.0 79.54397381575042
3870.0 79.16609776718153
4000.0 78.84089634943108
4120.0 78.38636161027866
4250.0 78.2379918685758
4370.0 78.46909135442876
4500.0 78.48091504472583
4620.0 78.37501176317082
4750.0 78.44316542420543
4870.0 78.64078551034154
5000.0 79.0562308182363
5150.0 79.26991173618629
5300.0 79.03803468803105
5450.0 79.27051855070877
5600.0 79.38874072026648
5800.0 79.27932169915663
6000.0 79.27847586002781
6150.0 79.55078484211097
6300.0 79.73854656488334
6500.0 79.6953800707594
6700.0 79.69244536731992
6900.0 78.99001784635693
7100.0 77.7218728608655
7300.0 78.38841870754705
7500.0 79.09555683342617
7750.0 79.49884011516242
8000.0 79.41654284784106
8250.0 78.33715731064052
8500.0 78.20522274330999
8750.0 78.95347431241589
9000.0 79.32665580371359
9250.0 78.82882063525854
9500.0 78.02579923753693
9750.0 78.4690765525775
10000.0 78.54977315003804
10300.0 78.11493128391719
10600.0 78.43772711588555
10900.0 78.61117364638507
11200.0 79.03182088010801
11500.0 80.1444281550748
11800.0 80.51719078501061
12200.0 79.67449538391803
12500.0 78.03196584015951
12800.0 73.55632589380832
13200.0 69.8592722743512
13600.0 77.35704512725648
14000.0 78.86569064395509
14500.0 79.16855185364105
15000.0 79.64559501233182
15500.0 78.9710171776514
16000.0 77.91516677457992
16500.0 76.75823339323075
17000.0 73.5588086388711
17500.0 67.24830945784974
18000.0 71.3950801369353
18500.0 72.18997925512608
19000.0 73.74612872228035
19500.0 69.32682383654732
