Freq "Front Wall Bounce"
20.5078 53.29079840659243
23.4375 48.236532995486115
26.3672 48.01733973336381
29.2969 51.73220449759215
32.2266 56.477422744227354
35.1563 60.51845829949353
38.0859 64.43191934711115
41.0156 67.57825676660143
43.9453 70.62574189293129
46.875 72.43729868141396
49.8047 73.69019229612682
55.6641 75.0672205869765
58.5938 75.37348188217382
61.5234 75.82678850251786
67.3828 76.55801484022865
73.2422 77.3311996818555
76.1719 77.85646234831975
82.0313 78.77639825220461
87.8906 79.68968443368884
93.75 80.65050459571965
102.539 82.04563796801557
108.398 82.8419385717052
117.188 84.21741577359491
125.977 85.28853546983973
134.766 86.25780344875629
143.555 86.97477695357452
155.273 87.61693702456367
164.063 87.78158038613475
175.781 87.89918665448457
190.43 87.9582493521067
202.148 87.6767143549831
216.797 87.22095383908292
234.375 87.03362147549258
249.023 86.604901417026
266.602 86.45376306054514
287.109 85.99835302261786
307.617 85.90981267943947
331.055 85.95360242533803
354.492 85.59848053719581
377.93 85.12987376296037
407.227 85.87038409270492
436.523 85.19834178533041
465.82 85.58390170992729
500.977 85.71885010537308
536.133 85.14266181721726
574.219 86.11247801917004
615.234 85.63120684356218
659.18 86.32196619102854
706.055 86.41787738026976
758.789 87.03592461247034
811.523 87.14812063406309
870.117 86.83860171062057
931.641 86.84434141336159
999.023 86.6280300035192
1072.27 86.28986476173687
1148.44 86.92125333634444
1230.47 86.93793508711681
1318.36 86.66178683759021
1415.04 87.64459221794286
1514.65 86.80150959811773
1623.05 85.11696447101777
1740.23 85.37757709862122
1866.21 84.01308243488346
2000.98 83.66634385717724
2144.53 83.29211409577901
2296.88 84.4582748752811
2460.94 84.26376093999399
2639.65 84.51470307603095
2827.15 84.83038180603506
3032.23 85.41817913827406
3249.02 85.588474829681
3483.4 86.05131869328065
3732.42 86.29366208490369
3999.02 85.80451147951298
4286.13 85.3019555137389
4593.75 85.52570926241135
4924.8 84.90751159915196
5279.3 84.2916043407742
5657.23 84.28719769476125
6061.52 83.5802421453032
6498.05 83.71200552402142
6963.87 83.78151537973534
7464.84 83.93791448402138
8000.98 83.86466079778289
8575.2 84.38425717629163
9190.43 86.63889076068128
9849.61 86.85043956670424
10555.7 86.63321485859522
11314.5 88.17127514389269
12126.0 87.9688846418084
12996.1 87.54835463658078
13927.7 88.03917683643344
14929.7 87.89788155177867
15999.0 88.21791039296937
17147.5 88.33757774029937
18377.9 88.78758696490355
19699.2 88.49890874861072
19998.0 88.89308479265507
