Freq "Floor Bounce"
20.5078 53.871563669728616
21.9727 53.42923595125772
23.4375 55.6156517551175
24.9023 57.55943767894509
26.3672 58.757041677015835
27.832 59.6806538655493
29.2969 60.5924448505577
30.7617 62.06291846585982
32.2266 63.42201562300953
33.6914 64.69375498417183
35.1562 66.15355094936314
36.6211 67.28479853603972
38.0859 68.82432668308215
39.5508 70.02464527003059
41.0156 71.20785081785459
42.4805 72.43710947956625
43.9453 73.60255482671036
45.4102 74.71013796995906
46.875 75.75963086681344
48.3398 76.74090871170684
51.2695 78.59619515693367
52.7344 79.42417206018489
54.1992 80.18465840311183
55.6641 80.87836945789797
58.5938 81.92920887531858
60.0586 82.42331416901806
62.9883 83.31924289948326
64.4531 83.69473053336193
67.3828 84.33289302156011
68.8477 84.61424128578622
71.7773 85.11399905902495
74.707 85.5270822903317
77.6367 85.86401555520277
79.1016 86.01632449134266
82.0312 86.29485293102314
84.9609 86.49951679357758
87.8906 86.70333109414173
90.8203 86.96415111549548
95.2148 87.16371533269341
98.1445 87.24821158013965
101.074 87.3332527808519
105.469 87.37299615170203
108.398 87.33279877364991
112.793 87.32524339923245
117.188 87.23301816435256
120.117 87.20371577213247
124.512 87.33375889600104
128.906 87.11971831748892
133.301 86.95881695897484
139.16 86.78772201090732
143.555 86.72030072153446
147.949 86.98327559343022
153.809 87.09099695826384
159.668 86.71855592199616
165.527 86.50998214586777
171.387 86.52234468341071
177.246 86.29139327215088
183.105 86.06037360290934
188.965 86.11700782365541
196.289 86.05761673960221
203.613 85.93676079810984
210.938 85.66105222972344
218.262 85.81885449566232
225.586 85.40729177393544
232.91 85.43229499943659
241.699 85.20549491526795
250.488 86.02928663149451
259.277 85.84629951606688
268.066 85.81703515200624
276.855 85.67446657348061
287.109 85.59196836114363
297.363 85.54205376668207
307.617 85.3702054211509
319.336 85.55442637417886
329.59 85.73427320838657
341.309 85.18732742189697
353.027 84.64334293601951
366.211 85.23687462317734
379.395 85.46437417451214
392.578 86.34745541250035
405.762 85.9608845869292
420.41 85.8675952868909
435.059 84.53450460863381
451.172 84.302938475157
465.82 85.42733885720801
483.398 86.21767384913448
499.512 85.58520407559205
517.09 84.0487624321436
536.133 83.04152368597323
555.176 82.24016874069729
574.219 82.70435178493936
594.727 83.21365206169689
615.234 85.36086855367286
637.207 86.92783259700016
659.18 87.56128631617038
682.617 87.27654309193102
707.52 86.4080656537512
732.422 85.3579136793911
757.324 84.5828603993554
785.156 82.25848490237135
811.523 83.0662150914907
840.82 85.170730578608
870.117 84.73849284360851
900.879 84.69132907992383
933.105 85.30665897178484
965.332 85.8925929752453
1000.49 85.18207009467241
1035.64 85.41106668097079
1072.27 86.12849931009204
1108.89 85.50161501816974
1148.44 85.86550820666781
1189.45 86.2783986169785
1230.47 86.62251688202164
1274.41 86.29936840448586
1319.82 86.4012085454027
1366.7 85.24481781835816
1413.57 84.95269893749388
1463.38 84.60849495764576
1516.11 84.37404616774229
1568.85 84.5025225839166
1624.51 84.27198910172005
1681.64 83.41984309584588
1741.7 83.47934934840063
1803.22 82.30850853275572
1866.21 82.17839619066298
1932.13 82.26190521223957
1999.51 81.42447746792654
2069.82 81.63820241635918
2143.07 81.38737474970576
2219.24 81.66822046556533
2296.88 81.84594238503455
2378.91 81.25940467984346
2462.4 80.52078924263293
2548.83 80.40281656863408
2639.65 80.72296659704293
2731.93 80.58576222547629
2828.61 81.10127120548017
2928.22 81.76509746910834
3030.76 82.6165468908272
3137.7 83.8953004355063
3249.02 84.63310234532544
3363.28 85.29987249455867
3481.93 85.46527176706446
3604.98 85.53682591394443
3732.42 85.40747831898581
3864.26 85.35677636419018
4000.49 85.42853770097149
4141.11 85.24512758781941
4287.6 85.10960421472763
4438.48 84.93578118749524
4595.21 84.76190155244788
4756.35 84.32555381104265
4924.8 84.18441145663664
5097.66 84.32624789914082
5277.83 84.34177173622946
5463.87 84.08579304747018
5657.23 83.3376491578856
5856.45 83.34039134000322
6062.99 83.1731429423548
6276.86 82.56478748668026
6498.05 82.05232365887882
6726.56 82.4331816033676
6963.87 83.44215391365793
7209.96 83.67701044186664
7464.84 83.12548782246711
7727.05 82.98341825487863
7999.51 82.9567025368069
8282.23 83.15699530589356
8573.73 83.61847781470537
8876.95 83.9080047389073
9188.96 83.72975518543048
9514.16 83.35567572698865
9849.61 82.97387907266769
10196.8 82.41001686428244
10555.7 82.34833722693777
10927.7 82.63249389405497
11313.0 84.48790672191875
11712.9 84.90159120373677
12126.0 83.59015983991007
12553.7 82.550088550826
12996.1 82.3563409881269
13454.6 80.96055130349905
13929.2 77.50986888432571
14419.9 74.97576158752024
14928.2 76.53701285671046
15455.6 76.07843978044535
16000.5 74.72167912592882
16564.5 72.82733319794046
17148.9 71.5204097862903
17752.4 69.86251453759972
18379.4 67.77149383133187
19026.9 66.22439243855779
19697.8 66.53848671440157
19999.5 66.51746714088476
