Freq "Rear Wall Bounce"
20.5078 53.807323823169696
21.9727 56.30202926944577
23.4375 57.599070175514186
24.9023 58.69209934527606
26.3672 60.03179406729288
27.832 61.66020730895394
29.2969 63.219958816766535
30.7617 64.41358995925827
32.2266 65.4552023942224
33.6914 66.92768556473985
35.1562 68.04370260222537
36.6211 69.54397186383767
38.0859 70.7457652418675
39.5508 71.83776727652878
41.0156 72.91459363677853
42.4805 73.99023161765248
43.9453 75.04399525647102
45.4102 76.05536356467933
46.875 77.01453660592554
48.3398 77.90659554444386
51.2695 79.5333528434737
52.7344 80.21932692014626
54.1992 80.88612252448513
55.6641 81.52815459667312
58.5938 82.48168941736604
60.0586 82.90907801282776
62.9883 83.62978350601826
64.4531 83.92532233320263
67.3828 84.42085930608384
68.8477 84.63965276415735
71.7773 85.02125051338557
74.707 85.30127370482762
77.6367 85.52486171043739
79.1016 85.6247190253293
82.0312 85.81241174342958
84.9609 85.9356499315754
87.8906 86.07838166074826
90.8203 86.27499386983365
95.2148 86.31900464058597
98.1445 86.31394403498507
101.074 86.31765590320265
105.469 86.2690730792599
108.398 86.18567581088797
112.793 86.05215949816576
117.188 85.84337248926057
120.117 85.69941950991647
124.512 85.85742729060253
128.906 85.67726545020305
133.301 85.36731614535105
139.16 85.06005663405124
143.555 84.75377386189169
147.949 84.94324546808906
153.809 85.13015516354412
159.668 84.78582104074856
165.527 84.33446205269026
171.387 84.09420835440567
177.246 84.04738724213698
183.105 83.70982704066417
188.965 83.42699347627455
196.289 83.2686233367048
203.613 83.26375680314692
210.938 82.98414423066336
218.262 82.68818007883401
225.586 82.4902210013575
232.91 82.13369411224582
241.699 81.30406673551286
250.488 80.14894205002861
259.277 81.9472598749648
268.066 81.24081264146525
276.855 81.80994356055844
287.109 81.33122292598526
297.363 80.60166770797294
307.617 81.30955289487594
319.336 79.36087586709901
329.59 79.60635344917895
341.309 80.43566200149556
353.027 80.67597013596458
366.211 79.64658225336632
379.395 79.24594663523561
392.578 79.15241084478924
405.762 79.43482687489424
420.41 78.9408482616277
435.059 79.90031271242769
451.172 79.31333555263694
465.82 78.93916804637205
483.398 78.00074903647253
499.512 79.14673255057342
517.09 79.51437507017967
536.133 79.36967512410921
555.176 80.65224490604902
574.219 81.29817378563612
594.727 82.72720343045802
615.234 82.88247037040689
637.207 82.80952624536988
659.18 83.78629139727218
682.617 84.46395668744258
707.52 82.42605654646208
732.422 80.02218198432085
757.324 77.69369764315915
785.156 77.6115052910439
811.523 76.68417577894948
840.82 76.3291039703166
870.117 75.56224508060868
900.879 75.89713533374345
933.105 76.02587913621673
965.332 76.0687630781828
1000.49 75.4684842919786
1035.64 76.4648834889037
1072.27 73.90566019280456
1108.89 74.84880722195282
1148.44 73.96686054180947
1189.45 73.26108958562588
1230.47 73.67221022243453
1274.41 71.80430741842082
1319.82 74.25920299843213
1366.7 74.18112707763422
1413.57 73.64776773487858
1463.38 72.36652783180158
1516.11 72.64893294200323
1568.85 72.08492064636918
1624.51 71.69130736350812
1681.64 70.46292108212636
1741.7 71.12062845991697
1803.22 71.0075452072024
1866.21 72.13427624273388
1932.13 72.58906634857563
1999.51 72.09918030334539
2069.82 71.87331406477055
2143.07 72.67285723309732
2219.24 71.2396216799881
2296.88 71.7495855350183
2378.91 72.76533223633771
2462.4 71.17811387243731
2548.83 71.43241717072368
2639.65 71.93227057894032
2731.93 71.91935415145811
2828.61 71.61847837275442
2928.22 71.6791979498708
3030.76 72.03755106911711
3137.7 72.04649259013595
3249.02 71.82920129922384
3363.28 71.73922041683048
3481.93 72.40725573545319
3604.98 71.4410149846401
3732.42 71.86558033393098
3864.26 71.42569233219751
4000.49 71.49954150121819
4141.11 71.9382422328526
4287.6 73.22657957791097
4438.48 73.83147126129089
4595.21 73.55231469421521
4756.35 73.44371319066832
4924.8 73.2920804467568
5097.66 72.69825933988298
5277.83 71.90233929151285
5463.87 70.00860170948341
5657.23 69.5295277242501
5856.45 69.93768371109847
6062.99 70.12261678872383
6276.86 70.11155971848295
6498.05 70.22912474161384
6726.56 68.88093072242907
6963.87 67.12071454805465
7209.96 66.5745239922598
7464.84 66.1708287066017
7727.05 65.66130294207497
7999.51 65.58725379613232
8282.23 64.57508291667152
8573.73 64.24174740839254
8876.95 63.325925723128606
9188.96 62.65260104581219
9514.16 62.69553114261976
9849.61 62.99823660142653
10196.8 63.4399899361203
10555.7 63.39948127264813
10927.7 62.87185096871406
11313.0 61.341115372221594
11712.9 60.2417938053392
12126.0 58.38057458700976
12553.7 57.41561192400357
12996.1 57.160113543016365
13454.6 53.868232869538645
13929.2 50.220619124473075
14419.9 52.0099648779927
14928.2 52.920698866977745
15455.6 54.64055546479389
16000.5 54.96211619214017
16564.5 55.19808876405696
17148.9 55.52044009810584
17752.4 54.99627190821951
18379.4 53.80856584191869
19026.9 53.1439414550004
19697.8 51.639106829149426
19999.5 50.81236268256367
