Freq "Front Wall Bounce"
22.4 53.9765325653829
23.0 54.14621002638283
23.6 54.34621002638285
24.0 54.4765325653829
25.0 54.64621002638283
25.8 54.77653256538291
26.5 54.91836973069435
27.2 55.04621002638284
28.0 55.14621002638283
29.0 55.246210026382826
30.0 55.34621002638285
30.7 55.41836973069435
31.5 55.518369730694374
32.5 55.57653256538289
33.5 55.64621002638283
34.5 55.703380274974776
35.5 55.746210026382826
36.5 55.80338027497477
37.5 55.84621002638285
38.7 56.018369730694374
40.0 56.446210026382815
41.2 57.273245258927275
42.5 58.57324525892729
43.7 60.14621002638283
45.0 61.8732452589273
46.2 63.54621002638284
47.5 65.14621002638283
48.7 66.7013753917836
50.0 68.30137539178361
51.5 70.04359279208825
53.0 71.8732452589273
54.5 73.64359279208824
56.0 75.14359279208826
58.0 76.24359279208825
60.0 76.84359279208824
61.5 77.10073709415182
63.0 77.24359279208825
65.0 77.57127237753626
67.0 78.17127237753625
69.0 78.97127237753625
71.0 79.77127237753628
73.0 80.4564647147951
75.0 80.97127237753627
77.5 81.32737692780987
80.0 81.57127237753626
82.5 81.82737692780987
85.0 82.19941525072359
87.5 82.64228393027422
90.0 83.17061466744526
92.5 83.65580475818403
95.0 83.99941525072359
97.5 84.22802609820516
100.0 84.35580475818405
103.0 84.42802609820515
106.0 84.55580475818404
109.0 84.69941525072359
112.0 84.89941525072358
115.0 85.0994152507236
118.0 85.32802609820516
122.0 85.49941525072359
125.0 85.57191502010146
128.0 85.47191502010146
132.0 85.27191502010147
136.0 84.97191502010146
140.0 84.87191502010145
145.0 84.87191502010145
150.0 85.07191502010147
155.0 85.3013753917836
160.0 85.50137539178361
165.0 85.61637175691808
170.0 85.7013753917836
175.0 85.77451524690075
180.0 85.84487147958912
185.0 85.87451524690076
190.0 85.98960448717898
195.0 86.08960448717897
200.0 86.18960448717897
206.0 86.21962659333526
212.0 86.11962659333525
218.0 85.88960448717897
224.0 85.57451524690076
230.0 85.21962659333526
236.0 85.01962659333526
240.0 85.07451524690076
250.0 85.31962659333526
258.0 85.71962659333526
265.0 86.13490741316006
272.0 86.51962659333527
280.0 86.66328615413236
290.0 86.68960448717898
300.0 86.53490741316004
307.0 86.35048870781087
315.0 86.15048870781088
325.0 86.05048870781086
335.0 85.90886301038445
345.0 85.80886301038446
355.0 85.73741188860933
365.0 85.70886301038446
375.0 85.70886301038446
387.0 85.73741188860933
400.0 85.73741188860933
412.0 85.70886301038446
425.0 85.66328615413236
437.0 85.56328615413237
450.0 85.46328615413235
462.0 85.43490741316005
475.0 85.33490741316005
487.0 85.3049911193544
500.0 85.30886301038446
515.0 85.32453785701743
530.0 85.32453785701743
545.0 85.28325965923334
560.0 85.1990270200808
580.0 85.12967962174365
600.0 85.12967962174365
615.0 85.17395126279122
630.0 85.2456423542512
650.0 85.32083507627802
670.0 85.36829268012802
690.0 85.3608361028147
710.0 85.33723133850638
730.0 85.23723133850636
750.0 85.16904318498653
775.0 85.0859913068932
800.0 85.04053080101299
825.0 84.99038236478779
850.0 85.07305624307301
875.0 85.173056243073
900.0 85.240530801013
925.0 85.31265395786336
950.0 85.39038236478778
975.0 85.49038236478778
1000.0 85.64053080101299
1030.0 85.84602082364026
1060.0 86.04602082364026
1090.0 86.09541663705176
1120.0 86.09038236478777
1150.0 86.00157411160764
1180.0 85.81399639601773
1220.0 85.6482565885844
1250.0 85.51834201333158
1280.0 85.4425159645153
1320.0 85.35996411039186
1360.0 85.29370468605798
1400.0 85.21128550747692
1450.0 85.18487486751755
1500.0 85.10425767097414
1550.0 85.16833808461952
1600.0 85.3209833646033
1650.0 85.28487486751754
1700.0 85.29357277721982
1750.0 85.23375557375542
1800.0 85.07775882453636
1850.0 85.15136838970231
1900.0 85.07229457232724
1950.0 85.03110308415495
2000.0 84.84785080107845
2060.0 84.4261858709665
2120.0 84.00588554289858
2180.0 83.51548339082935
2240.0 83.0992934963511
2300.0 82.89047302607212
2360.0 82.91451125472385
2400.0 83.0887232485861
2500.0 83.25920345948795
2580.0 83.28499580417764
2650.0 83.24579224900914
2720.0 83.32703228438704
2800.0 83.45481728150435
2900.0 83.68486332152318
3000.0 84.01622457790451
3070.0 84.24888769580672
3150.0 84.41149569161247
3250.0 84.37124030538553
3350.0 84.29866906983945
3450.0 84.126462883864
3550.0 83.99133722073917
3650.0 83.92569102565312
3750.0 83.93743298610073
3870.0 83.96968859725693
4000.0 83.88628845850182
4120.0 83.65870471623185
4250.0 83.34385381056889
4370.0 83.00119610478271
4500.0 82.83905753266619
4620.0 82.84411536608255
4750.0 83.01424283875224
4870.0 83.41383447560952
5000.0 83.9050536228255
5150.0 84.49232773588453
5300.0 85.01775396523239
5450.0 85.30407837366906
5600.0 85.15891643479743
5800.0 84.81413095847965
6000.0 84.47242289953417
6150.0 84.4365412113951
6300.0 84.88071800945137
6500.0 85.43497666994584
6700.0 85.40326600345574
6900.0 84.75384659135985
7100.0 83.71622174572836
7300.0 83.02174511503384
7500.0 82.93322284007355
7750.0 83.42329769066691
8000.0 84.0976509596832
8250.0 84.05825939774655
8500.0 83.66803694491404
8750.0 83.46589357001281
9000.0 83.74018787680107
9250.0 84.46425825078344
9500.0 85.04104238412258
9750.0 85.1732715426196
10000.0 85.27327154261961
10300.0 85.19922920846632
10600.0 84.95807651878064
10900.0 84.82527296609591
11200.0 84.66542770166586
11500.0 84.6499515129903
11800.0 85.0079029246766
12200.0 85.47395180058703
12500.0 85.80791324725982
12800.0 86.32499959417807
13200.0 86.69589371134182
13600.0 87.27838133739375
14000.0 87.24274887410922
14500.0 87.17900226960207
15000.0 86.81348069391365
15500.0 85.91666183071042
16000.0 86.16134021140503
16500.0 85.90676135224322
17000.0 85.79606456547681
17500.0 85.27742913354581
18000.0 84.28389120900799
18500.0 83.49654894553619
19000.0 82.0612853183773
19500.0 80.83490259069428
