Freq "Rear Wall Bounce"
22.4 54.15913973065027
23.0 54.359139730650256
23.6 54.54528522747155
24.0 54.65913973065027
25.0 54.859139730650284
25.8 54.95913973065028
26.5 55.105876005648085
27.2 55.21293845207897
28.0 55.33520985437461
29.0 55.41293845207896
30.0 55.51170113921863
30.7 55.571183701009446
31.5 55.64528522747155
32.5 55.73520985437462
33.5 55.74528522747157
34.5 55.77912278878917
35.5 55.82306556586117
36.5 55.87695876479587
37.5 55.923065565861165
38.7 56.057367627376536
40.0 56.46762500292236
41.2 57.275570592869755
42.5 58.57557059286977
43.7 60.12306556586118
45.0 61.809413818561936
46.2 63.475570592869744
47.5 65.0535057331554
48.7 66.57557059286975
50.0 68.17557059286976
51.5 69.86353879907297
53.0 71.65350573315538
54.5 73.4307502686459
56.0 74.90634430136248
58.0 75.96353879907296
60.0 76.50634430136247
61.5 76.70634430136249
63.0 76.83075026864589
65.0 77.14737866783044
67.0 77.69439757936193
69.0 78.45865023806671
71.0 79.19439757936193
73.0 79.82519000332958
75.0 80.30266619366844
77.5 80.60266619366844
80.0 80.80266619366843
82.5 81.00266619366845
85.0 81.33093775487545
87.5 81.73093775487546
90.0 82.15627670659704
92.5 82.5754276762357
95.0 82.89644579213736
97.5 83.04390935981284
100.0 83.09785480438278
103.0 83.0856054603711
106.0 83.14754022617187
109.0 83.20670713888953
112.0 83.36205671988422
115.0 83.48193794210836
118.0 83.61774644979019
122.0 83.714311616865
125.0 83.68003517491768
128.0 83.50343738910513
132.0 83.18469124652908
136.0 82.84647193418957
140.0 82.62330108570062
145.0 82.55832741680403
150.0 82.66812149238801
155.0 82.81298354077822
160.0 82.89605820023763
165.0 82.95746973530781
170.0 82.90725192404996
175.0 82.90725192404996
180.0 82.86273851812244
185.0 82.86273851812244
190.0 82.84484804290032
195.0 82.85513499542037
200.0 82.88134104368902
206.0 82.79711038019316
212.0 82.60205724547056
218.0 82.32956733382106
224.0 81.90980406500768
230.0 81.49662453201613
236.0 81.252796915661
240.0 81.24832470952074
250.0 81.41558119799559
258.0 81.77885497460298
265.0 82.20332650835907
272.0 82.47467477661726
280.0 82.60963044358351
290.0 82.56980858024055
300.0 82.31249265953078
307.0 81.96663975981009
315.0 81.48838395992753
325.0 80.97311961077911
335.0 80.35219130029614
345.0 79.64350780119402
355.0 78.91551841991271
365.0 78.21713175395377
375.0 77.65165998220156
387.0 77.24108842726761
400.0 76.94893922600284
412.0 76.70731478931859
425.0 76.58039897399009
437.0 76.44338550949915
450.0 76.36368164569791
462.0 76.34061544189396
475.0 76.2899402882007
487.0 76.2450513125624
500.0 76.16096808714946
515.0 76.0367561493729
530.0 75.9054933886171
545.0 75.7511371973492
560.0 75.70279055210419
580.0 75.72773810357727
600.0 75.89030116362134
615.0 76.05638061344798
630.0 76.11835699061568
650.0 75.97682615178942
670.0 75.54716751301265
690.0 74.86935764542825
710.0 74.24380575352866
730.0 73.80345037303378
750.0 73.80281750723131
775.0 74.18254537912911
800.0 74.58663174334927
825.0 74.57927756248681
850.0 74.00775390038744
875.0 73.2028233703028
900.0 72.63329586781413
925.0 72.70060456789822
950.0 73.15097995637964
975.0 73.68686607057275
1000.0 73.95587543311467
1030.0 73.9651573858268
1060.0 73.75601640525682
1090.0 73.27809020460693
1120.0 72.39151714421048
1150.0 71.15298468269523
1180.0 69.69393735373419
1220.0 68.28878090695845
1250.0 67.46419919837233
1280.0 67.53877849391725
1320.0 68.24934057324272
1360.0 68.92879597746085
1400.0 69.00652641692282
1450.0 68.74131372678039
1500.0 68.4305653611844
1550.0 67.67712861853998
1600.0 67.71564299163173
1650.0 68.0252138665471
1700.0 67.4190442807852
1750.0 66.96675097623928
1800.0 66.39406267477685
1850.0 66.14681618332385
1900.0 66.7243388073259
1950.0 67.07090974706132
2000.0 67.5456102475243
2060.0 67.73463218276011
2120.0 67.21218220196884
2180.0 67.05465069663545
2240.0 66.6486328717676
2300.0 65.66510104812055
2360.0 64.67415368622078
2400.0 63.221591624333485
2500.0 61.74894606887405
2580.0 61.42483494508896
2650.0 61.55581650991833
2720.0 61.93035563408607
2800.0 62.293293951653126
2900.0 62.64526732966583
3000.0 62.828223645280374
3070.0 62.977959316488224
3150.0 62.82311698095431
3250.0 62.576171755945
3350.0 62.55492471749237
3450.0 62.52313531012079
3550.0 62.396048168502304
3650.0 62.23602707836902
3750.0 62.19302480095537
3870.0 62.28608047478035
4000.0 62.28925682121097
4120.0 61.87242691952896
4250.0 60.87697110579931
4370.0 59.66130856221348
4500.0 58.67213999718287
4620.0 58.353737954885204
4750.0 59.011645160856986
4870.0 59.801956680208164
5000.0 61.02607097660781
5150.0 62.23262955401144
5300.0 63.18884723475347
5450.0 63.685960170883206
5600.0 63.01649881556611
5800.0 61.824788975249575
6000.0 60.162649112852236
6150.0 58.8229203102148
6300.0 59.186673009657355
6500.0 60.67713608569268
6700.0 61.30547401364795
6900.0 61.16943483178865
7100.0 59.92736919700904
7300.0 58.18629535596081
7500.0 57.050099101020706
7750.0 56.60407897384282
8000.0 57.523810216554764
8250.0 58.42055631890885
8500.0 58.453864045224535
8750.0 57.63641890881367
9000.0 56.77684036473637
9250.0 56.94964737389266
9500.0 58.39263805759229
9750.0 58.94013950254744
10000.0 58.62038046611083
10300.0 57.603079630321204
10600.0 56.520335724786364
10900.0 56.66484601462746
11200.0 56.89677685916472
11500.0 56.67974229031158
11800.0 57.18269272256249
12200.0 57.626023901632024
12500.0 57.449842388187434
12800.0 57.59725884075259
13200.0 57.07159611917366
13600.0 56.78546878522418
14000.0 56.73050280586817
14500.0 56.60790403451533
15000.0 55.82979736442901
15500.0 54.682115816229114
16000.0 55.165436837282826
16500.0 54.43086779949057
17000.0 53.27399567786149
17500.0 52.58182998891009
18000.0 50.00679949759699
18500.0 46.639082713713194
19000.0 46.18889484417481
19500.0 44.874824750618885
