Freq "Side Wall Bounce"
22.4 54.76576669385905
23.0 54.96576669385904
23.6 55.16576669385903
24.0 55.28564907623995
25.0 55.44484926155299
25.8 55.58564907623996
26.5 55.704122639687526
27.2 55.823830594389065
28.0 55.94484926155299
29.0 56.023830594389054
30.0 56.10412263968753
30.7 56.185649076239955
31.5 56.26576669385905
32.5 56.344849261552994
33.5 56.38564907623994
34.5 56.42383059438906
35.5 56.44484926155299
36.5 56.50412263968754
37.5 56.56482741630636
38.7 56.704122639687526
40.0 57.12383059438905
41.2 57.92383059438906
42.5 59.22383059438907
43.7 60.823830594389065
45.0 62.48338957194299
46.2 64.18338957194298
47.5 65.74256842471029
48.7 67.3031916219912
50.0 68.88338957194297
51.5 70.6031916219912
53.0 72.36255705027365
54.5 74.16255705027365
56.0 75.64256842471028
58.0 76.72201851881731
60.0 77.28156054014522
61.5 77.50137091259009
63.0 77.6220185188173
65.0 77.96119474234183
67.0 78.52064343308079
69.0 79.30046051294917
71.0 80.02064343308079
73.0 80.70046051294918
75.0 81.20046051294916
77.5 81.50046051294916
80.0 81.7201850554159
82.5 81.94027672897047
85.0 82.26027588070905
87.5 82.68018335884987
90.0 83.16027588070905
92.5 83.58018335884987
95.0 83.9206434330808
97.5 84.1013709125901
100.0 84.16119474234183
103.0 84.18156054014521
106.0 84.24256842471029
109.0 84.36349681892872
112.0 84.50460439722741
115.0 84.66349681892873
118.0 84.82523667270709
122.0 84.9467367724147
125.0 84.9467367724147
128.0 84.80920611180407
132.0 84.49117509502737
136.0 84.19117509502738
140.0 83.99448290397311
145.0 83.9568801862013
150.0 84.12070188121243
155.0 84.2837291047636
160.0 84.40352961026537
165.0 84.46516840337087
170.0 84.49338289967693
175.0 84.49338289967693
180.0 84.48264684748965
185.0 84.48264684748965
190.0 84.5486872818452
195.0 84.57323115455686
200.0 84.65740017519263
206.0 84.60468072914874
212.0 84.44690130126088
218.0 84.17202552445372
224.0 83.78255283808309
230.0 83.40528533731917
236.0 83.17372413812488
240.0 83.17372413812488
250.0 83.38552008031014
258.0 83.75486813212619
265.0 84.1782770750984
272.0 84.50499945157856
280.0 84.66450814653363
290.0 84.66171751117967
300.0 84.4779004889834
307.0 84.24851891926836
315.0 84.01961282570444
325.0 83.78710099124791
335.0 83.58684818641991
345.0 83.3746029580601
355.0 83.23529403128715
365.0 83.08866165651847
375.0 83.07723959744742
387.0 83.10653839968096
400.0 83.10653839968096
412.0 83.10653839968096
425.0 83.12623541971031
437.0 83.14146382424265
450.0 83.1237305598526
462.0 83.15084410495872
475.0 83.18218917506924
487.0 83.19441306229307
500.0 83.1991918592921
515.0 83.16475106144105
530.0 83.07790048898342
545.0 82.92745355433875
560.0 82.76797653406331
580.0 82.6679765340633
600.0 82.61857627552952
615.0 82.55980885432665
630.0 82.51113742999397
650.0 82.36321051273494
670.0 82.10606305689574
690.0 81.86040563044097
710.0 81.63703447375308
730.0 81.49425817254556
750.0 81.42505370142167
775.0 81.32442986925894
800.0 81.10693674049142
825.0 80.61203413661663
850.0 80.09752761408389
875.0 79.93828938750745
900.0 80.15319212071033
925.0 80.4826854908383
950.0 80.7706066753388
975.0 80.93972270038473
1000.0 81.10422886637932
1030.0 81.36491476410374
1060.0 81.55426766972248
1090.0 81.55443228954542
1120.0 81.21447115021182
1150.0 80.66008019871607
1180.0 79.92089971295873
1220.0 79.17361410530695
1250.0 78.65593234693337
1280.0 78.36957172811547
1320.0 78.40793571786968
1360.0 78.50595296383104
1400.0 78.4161640540237
1450.0 78.46529101745293
1500.0 78.34896453953836
1550.0 78.00307988129212
1600.0 78.22471461428731
1650.0 78.22296724982994
1700.0 77.894957838421
1750.0 77.37540950348738
1800.0 76.7131728414331
1850.0 76.92437431772446
1900.0 77.1145497630186
1950.0 77.24316230428366
2000.0 77.80096587873037
2060.0 77.58099358842377
2120.0 77.26208566793836
2180.0 76.81923730794584
2240.0 76.29602707297282
2300.0 76.09669409929319
2360.0 76.1814252540093
2400.0 76.15546310511426
2500.0 76.12397729930758
2580.0 75.62872344836235
2650.0 74.95903875602211
2720.0 74.75216009027169
2800.0 74.9639423952232
2900.0 75.4539187515414
3000.0 75.88770872598757
3070.0 76.18894475217989
3150.0 76.16032300914179
3250.0 75.78237561653837
3350.0 75.28713569143316
3450.0 74.86358586835232
3550.0 74.75839028340066
3650.0 75.166902808008
3750.0 75.69459493745978
3870.0 76.05359246983436
4000.0 76.2490120071888
4120.0 76.14752474314407
4250.0 75.84369027368939
4370.0 75.4002529663779
4500.0 74.92811661177649
4620.0 74.66546488041341
4750.0 74.55602954429398
4870.0 74.74873811556657
5000.0 75.31400079209264
5150.0 76.2276417841247
5300.0 77.16392310824646
5450.0 77.73864032001059
5600.0 77.64674439286169
5800.0 77.05656558376748
6000.0 76.4160265220274
6150.0 76.25610580174433
6300.0 76.72110579730058
6500.0 77.26445453057063
6700.0 77.27296327577972
6900.0 76.59015680982651
7100.0 75.56337287168715
7300.0 74.83837384666059
7500.0 74.53661396403608
7750.0 74.71561782469668
8000.0 75.03185565962073
8250.0 74.96745963173599
8500.0 74.99138897036487
8750.0 74.98470751654149
9000.0 75.14902439242971
9250.0 75.28878984977675
9500.0 75.4209101741784
9750.0 75.90131196256057
10000.0 76.38812445891769
10300.0 76.29812317029665
10600.0 75.57080406750282
10900.0 75.18933849378145
11200.0 74.96272212215456
11500.0 75.20428288476361
11800.0 76.01973434054584
12200.0 76.57825925291839
12500.0 76.59118925774303
12800.0 77.21850343077371
13200.0 77.39048392726038
13600.0 77.26372411834258
14000.0 77.00424069736631
14500.0 76.89638939659592
15000.0 76.1035520741119
15500.0 75.20970547559737
16000.0 75.30408282488918
16500.0 74.31456008453478
17000.0 73.92855186591275
17500.0 73.31065813589962
18000.0 71.77771116711928
18500.0 70.12941758404133
19000.0 68.18801488286627
19500.0 66.89865281721177
