Freq,Floor Bounce,Ceiling Bounce,Front Wall Bounce,Side Wall Bounce,Rear Wall Bounce,Total Early Reflection
20.5078,64.64806596463843,64.52233796207052,64.68034686268898,64.43376769233826,63.86299810968684,64.43936670722648
21.9727,66.09575603348675,65.84165217514983,66.06313669985492,65.84205282301791,65.30987463557365,65.83941266077137
23.4375,66.60807683747178,66.41610654754864,66.6014291979475,66.38411274023845,65.89040815076599,66.38773534902352
24.9023,67.2741244811041,67.12210749275219,67.27994180511241,67.06855955957322,66.5440213740013,67.0659385331714
26.3672,68.24166136042174,68.03863265829239,68.23705236875898,68.00792885880269,67.46064387513617,68.00633235057138
27.832,69.00710896954126,68.83086102569901,69.01217046307444,68.78379529343798,68.22836703328036,68.78171181079483
29.2969,69.80199136736097,69.65175591185961,69.81862830598638,69.58845057284293,69.02527527673548,69.58661913937205
30.7617,70.64054089946738,70.50012880347285,70.65226718093285,70.43525314773782,69.91211718423274,70.43630319287716
32.2266,70.98187098312194,70.83369204033424,70.99244153747388,70.78541903640757,70.27852122320986,70.78203918818133
33.6914,71.67085174461188,71.52603879070682,71.67431053675351,71.4842744909186,71.04614230561602,71.48629544004048
35.1562,72.55955655905413,72.4675801978336,72.60210520219537,72.35814348325927,71.7804494353002,72.36354162128909
36.6211,73.04471631769212,72.91212024159118,73.06212884710193,72.85080624717834,72.3610044698402,72.85348744343788
38.0859,73.76918518432844,73.69183763953826,73.81874940530024,73.56508282609462,72.97325565170253,73.57418232085524
39.5508,74.0656248281869,73.95918507683332,74.09665731840074,73.8669682036053,73.36452928302323,73.87852887528693
41.0156,74.19980609929343,74.16998088975457,74.2305167769095,74.11025436112287,73.94582289890998,74.13243879893828
42.4805,74.29642998856924,74.25195034920577,74.34965012520351,74.16211963619389,73.7024685349136,74.15864836698121
43.9453,75.04004646748754,74.96013040613674,75.08734403091636,74.8665022551243,74.35108299861179,74.86895094265465
45.4102,75.62242871175971,75.50881235797495,75.65030299189893,75.45101411582814,74.99358643685754,75.45157349450987
46.875,76.15483096652254,76.03458662832323,76.19062823673453,75.96448283526477,75.4616966040236,75.9690038934571
48.3398,76.51169172065565,76.3785970438246,76.54304090108324,76.31482131579772,75.82505857078924,76.3221776926197
51.2695,77.41370954494488,77.3053595425512,77.46064759815154,77.22109607576057,76.68532928642547,77.2259491158765
52.7344,77.87154533150245,77.75809062463033,77.92042812522605,77.68155150345574,77.16521614157544,77.68758212877533
54.1992,78.30886280452016,78.23293526503049,78.37511196461868,78.13086299930315,77.61723792106609,78.1412129566093
55.6641,78.57591269143165,78.51826068756242,78.66750477138812,78.36813685544601,77.70652511498012,78.38048356081124
58.5938,79.29399162073636,79.16739121061327,79.34859486001726,79.10222265868273,78.57118476527407,79.10529461918911
60.0586,79.69511092425265,79.51887076257685,79.73154483532899,79.47415872557423,78.91987277388286,79.47743867820093
62.9883,80.33496715256733,80.15553599287927,80.37521143760912,80.10995345708649,79.55207704623432,80.11530259362563
64.4531,80.5890158639014,80.43259256677376,80.63716897043328,80.37650578798066,79.84125064031223,80.38435970594621
67.3828,81.18555017874594,80.96270706174866,81.20683270957916,80.9571018206493,80.47935131557644,80.96605510792135
68.8477,81.42530285120189,81.19749909497472,81.44381210902553,81.20623799980751,80.7839826510317,81.21777642356406
71.7773,81.96413539931139,81.78020458471958,82.01451321101023,81.75272040723792,81.28916842612337,81.76757313095024
74.707,82.60262987094691,82.40860557338169,82.66008718732043,82.36885063827943,81.80199005436018,82.37882368296799
77.6367,83.15135269352271,82.96446693671791,83.21436426099226,82.92288755653378,82.34961298408545,82.9310381841002
79.1016,83.37487920636926,83.16921412207321,83.4335620696646,83.14038469504227,82.5819870829268,83.15020874446525
82.0312,83.79874024329747,83.4737334030935,83.81486886376298,83.51824853008968,82.97715484486362,83.5269799870582
84.9609,84.07023621868116,83.89107534900782,84.13063172028656,83.88080513103925,83.46336551163421,83.89339729360724
87.8906,84.72666482488965,84.67667837128,84.87748167254509,84.56624951121073,84.07481450324883,84.59282104022577
90.8203,85.10928486306358,84.87392919003244,85.2011116908178,84.81851556359425,84.16818541437046,84.84890234508947
95.2148,85.46030684481352,85.27262521663773,85.55874510094209,85.24776079055313,84.73282719144184,85.26364770523531
98.1445,85.89969251590051,85.72955435472052,86.01763338792016,85.69022612843774,85.15087276487982,85.70758440330785
101.074,86.19170768889337,85.92134593846716,86.27035494204036,85.93829305738817,85.43308785841886,85.96067505610928
105.469,86.62702846077525,86.36946157726607,86.73057294083274,86.3720796827045,85.89868269446909,86.40895467561828
108.398,86.88753105668683,86.6165231997298,87.01198931488764,86.60472965301547,86.08240039769238,86.65223823111201
112.793,87.3078603466014,86.99939164002025,87.42635911278407,86.99563031382566,86.38074648221868,87.03682707290493
117.188,87.68174806181348,87.36243769745607,87.80916813054739,87.35000019787807,86.66007312928407,87.39053181532185
120.117,87.79364000278947,87.4471871368663,87.9053364163918,87.46987519195598,86.86120702164946,87.51040760495631
124.512,88.0581471156984,87.72708011484148,88.20466952900776,87.74035463340846,87.13735974488604,87.78878218416371
128.906,88.30484896114,88.0166682618861,88.48598113640281,88.00479216844933,87.37367071164034,88.053321921237
133.301,88.53445868846723,88.25925460434375,88.72640840634817,88.24076176459,87.60288126109063,88.28908826190225
139.16,88.73729740444485,88.38995165717257,88.92626376840789,88.40939089477014,87.81401769134064,88.47168775857394
143.555,88.89978848401476,88.51488606486274,89.09551360647492,88.546902385682,87.94796714325096,88.6185124805679
147.949,89.06392578850344,88.65962209850332,89.27638364383363,88.68583218454911,88.01372412853102,88.76094140333107
153.809,89.20298724708297,88.80479714575964,89.44151806293316,88.81509070064432,88.10973088685286,88.89794828151771
159.668,89.38934940178349,88.97647458217494,89.63294992494343,89.01339373746855,88.40158104971384,89.10270904795968
165.527,89.50748317778485,88.99187350781683,89.75052823511659,89.07918868728423,88.45928036215126,89.18039859431217
171.387,89.68731913096434,89.06487611641374,89.93285437926137,89.20043190242751,88.4215983579595,89.29275962561162
177.246,89.58896306446627,89.14214819404728,89.9356550865914,89.14720767043998,88.33583258337204,89.2625445919619
183.105,89.60571901733512,89.2338892169647,89.99471656797604,89.1802711440171,88.3353219911986,89.30426791006148
188.965,89.64014200084371,89.14464965023508,90.01729538242715,89.14479705050354,88.27179545115783,89.28259087673025
196.289,89.7362049543025,89.08942234885443,90.10642657853026,89.1897648099203,88.24669387544867,89.3190206844311
203.613,89.76536438558004,88.97744938893025,90.10819800081929,89.0655667590306,87.92584894386923,89.2319580083575
210.938,89.63900782994558,88.91762372612351,90.03042920730863,89.03487722292844,87.9615372853752,89.17274495483296
218.262,89.45662270032953,88.83803897569905,89.94639836781808,88.9207928110666,88.08860963180436,89.09482599377397
225.586,89.60139773207524,89.06027716522108,90.17620553992539,88.93514354407607,87.87739543368218,89.1961037798555
232.91,89.72882194936426,88.860235300757,90.19259985193189,88.87966251927637,87.3527470119477,89.1064584917602
241.699,89.43685924971892,88.48796257065389,89.94092954868982,88.6708064015297,87.11373897632497,88.83285922143538
250.488,89.80119427929542,88.8338354215874,90.40487007742665,88.96243936259147,86.99998429877714,89.14464568060525
259.277,89.44513092508758,88.52360163391452,90.07962380400961,88.65669814549081,86.8247817166782,88.83740120703133
268.066,89.57781923925361,88.33788860405714,90.12647127159472,88.6658360079968,86.71313440018015,88.8349955339331
276.855,89.53651115742228,88.55902239978171,90.23547997693116,88.69223304173876,86.56817012277405,88.88276368627297
287.109,89.35877395160028,88.49606769412522,90.04770772374573,88.54271135623621,86.76885320747134,88.7751393133754
297.363,89.8061765609306,88.86748387371188,90.67788584806743,88.91712411915508,86.31992794074706,89.14194405397664
307.617,89.49133383205306,87.93969989917991,90.16766242394645,88.60515887492392,85.78166181821832,88.63914591525032
319.336,89.24977112038555,87.72602677486795,90.09240277165215,88.3896880134225,85.8472510891631,88.48777271424758
329.59,89.05045911608941,87.68928740873415,89.88422967684701,88.3528584796237,85.50366463875896,88.33041739684705
341.309,88.84885591787005,87.52094390194831,89.87887449446676,88.13592297961902,85.38181518157832,88.19678056505022
353.027,89.03690567045368,87.8535636991733,90.00546053640805,88.23129739396974,84.94665703520972,88.31260669789614
366.211,89.17546081364047,87.39928356822023,90.20717642259356,88.45514428318313,84.43067173857413,88.32947347441853
379.395,88.81420465373495,87.21760941905376,89.8884095755829,88.33663526891209,84.68006204722812,88.11335614515943
392.578,89.05364741038994,86.95027913952437,89.9433206531596,88.23338039634102,84.75221224465047,88.13073512130993
405.762,88.82633362379616,86.41002984062916,90.05261638595947,88.37320488166449,84.69731338396595,88.05557869695521
420.41,88.3859552884156,86.90285846533294,90.02557292477236,87.97971834649772,85.15838487304534,87.98180225152892
435.059,88.92355545110287,87.1112666011496,90.58285085743817,88.28805097068155,85.43035451263614,88.40317591127392
451.172,89.23010046203802,86.46045630289424,90.66409670787438,88.11270614587423,83.02210453839771,88.18687471915412
465.82,89.01490260883813,86.99523022772553,90.66684525865583,88.17183233499259,84.09371912979371,88.29528688732978
483.398,89.1266580932435,86.50802140542086,90.69026839737029,88.79658635001044,84.38415666076679,88.41361210024264
499.512,88.4121856039384,85.7013479227791,90.21735414324135,88.53527531227893,84.69870909141129,87.95949396992965
517.09,87.46077086446286,84.52773442434595,89.24944678150045,87.49899334295678,84.07879132739153,86.99007336070231
536.133,88.2136712569269,84.92506387312113,90.16440704908901,87.32224303520468,82.91016156810588,87.3995300369191
555.176,87.56014295379359,84.67096875891467,89.71795942652207,87.85490797425675,83.44892268355504,87.21305987359034
574.219,86.96410746675144,83.41606638995812,89.65908164580165,87.70685334344155,84.09487544538102,86.96821357708589
594.727,87.98644361362336,84.84058836909112,90.31804785237556,87.24315018201135,82.15655962972043,87.3306204024354
615.234,87.57288621351762,84.08722842524851,90.39267201765334,88.10185992160957,81.81398116194296,87.35686380559666
637.207,86.50678661369763,82.48369369282922,89.55305362385265,87.75331526691481,82.18419543725672,86.60528116883445
659.18,85.94908608258241,80.97992134981865,89.41516952886644,87.28883754408163,83.17209336185914,86.30638335035822
682.617,86.49484109822825,81.53211248809355,89.6505880408492,86.9961193001374,82.81357158445012,86.44051151813859
707.52,85.48684444299212,79.41137706400845,89.39527667789689,87.38678162785882,81.8960561163474,86.05023425960731
732.422,85.46847265578462,79.72229370977924,89.6011028974175,87.08537912351507,82.25344220424036,86.10116185768108
757.324,86.1646397270556,78.94624722964308,90.4645394583372,88.03551054222271,82.81618787893728,86.87035412120046
785.156,87.19162423630203,77.44701183077248,90.32868239339949,86.82227176323937,80.98963042334285,86.56031310286673
811.523,85.61648154524384,76.98319652559408,90.23733238514059,88.55317524307304,83.56725071162893,86.83872541976741
840.82,86.22962973459029,75.85770984863899,90.55397711609658,86.85912817743964,84.22488541313137,86.70993307222709
870.117,86.43492544530305,78.15745088357998,91.42749678429105,85.9964354130946,84.23140583617148,87.08817383576083
900.879,85.3417292519801,75.76894770309379,90.86590897626998,86.44666506580606,83.06157394982168,86.52076019599808
933.105,83.71831859583862,75.98234223339156,91.00286712963576,88.51682006673863,82.54273017717327,86.8575945512552
965.332,85.0309486823598,74.47666918517616,90.96046462844508,86.379250400061,81.4658157843991,86.37213580835844
1000.49,82.43758343570272,76.45850691363312,90.93366961175975,86.85224831689517,81.28046334341109,86.18694719973493
1035.64,84.44420924113369,75.03373839371338,91.0828077587072,85.71061604773475,80.3340497214616,86.17778022038787
1072.27,80.54721503850699,78.14024290792666,90.84421124330868,88.50821798726166,79.57864323797106,86.4210846782086
1108.89,81.86428432732586,80.91666896807591,90.53277217617166,87.43276011101354,79.04168659940869,86.10986038744615
1148.44,81.13863926606483,80.17740276293233,90.67991804911713,88.15654027929577,81.57922267729691,86.43766827000682
1189.45,82.1349590348543,83.04438811930356,90.78381166532968,86.44772547040989,80.99091159190213,86.29374468611432
1230.47,82.25466702753664,82.33371629149987,91.24456784696748,86.97972236541176,82.20695625273764,86.69528983402698
1274.41,82.29957670746374,83.81298944593527,91.67004359785757,86.33048757303642,78.75947988076742,86.78352390183692
1319.82,82.17547163614377,83.25698618601355,91.87059980990236,87.1680891550439,81.44153576732486,87.11876485953074
1366.7,82.0904324013934,83.32482852004975,92.21137043886405,87.39350988770146,81.78773614345188,87.38849231055296
1413.57,81.21155587618033,85.34895531273423,92.28685735443172,86.17580925175439,78.73148897098298,87.25454032441796
1463.38,80.9863994174105,84.5610379142404,92.05255744790665,86.0783011200389,76.91646433556069,86.93732204689222
1516.11,81.1369623756045,83.75389765657809,91.44178357369496,85.49458976779862,79.25426894705389,86.43373572823624
1568.85,79.90581050174593,82.56174963132158,91.07328720276415,85.1083056924303,77.46954181077024,85.88525655200004
1624.51,80.27608797872853,80.44919672573609,91.08575783920787,86.16763582582388,75.37521732241409,85.91007390538878
1681.64,80.38436825092464,80.30025389579316,91.2666458107245,85.54486089266895,76.83875485446922,85.93694460794282
1741.7,80.93745886305719,81.87437007824394,91.16846825109117,85.35330946581512,77.53158446969408,85.9910913243829
1803.22,79.23514038323539,81.3492871794931,91.08816403436113,85.4761683502282,77.43421098106106,85.8281121844908
1866.21,78.13224349208724,79.44913418690241,91.00067534297426,84.79159068070736,77.09524826659653,85.47749142984735
1932.13,79.76149907828191,79.08136044076019,90.86174851253121,84.6772579760622,76.41851866891514,85.39700596882643
1999.51,80.6067748028794,79.10631584074403,90.9564351272522,85.4740320991112,73.69175107961937,85.60827348332498
2069.82,81.30608588418099,80.43383627813434,91.16955096478578,85.30858930884078,75.28797779849164,85.86124224439234
2143.07,81.30254504057781,81.97939208337475,91.14102236250956,84.46115693041263,73.54604618095347,85.7867237389254
2219.24,80.57895789295517,81.76012585398159,90.76007009150753,84.20247258817813,73.24963518555951,85.41530366463763
2296.88,79.80638142827426,82.33385129159832,89.88478743284661,84.41283040902437,72.9760970848566,84.87617367190005
2378.91,81.74718486507898,83.27791514615686,89.70128121425513,83.65572276619848,72.24909943084464,84.89845359769159
2462.4,82.82410323576798,84.62406188506415,89.5346186063875,82.50603879274816,72.29131981888862,84.98315960693918
2548.83,82.52274849663905,84.71702343955086,89.34225072278753,82.53149777561319,73.29341430135075,84.87129959135508
2639.65,82.48730134804038,84.05259335786255,88.76328680471521,83.6941256407858,72.63791467450896,84.5824864075123
2731.93,83.08492099652172,84.10506565402899,88.72558492594867,84.24955938606772,73.12144323379466,84.75107237398073
2828.61,83.62757926577885,84.7515085848117,88.87211447258333,84.28983074184227,72.99299991569073,85.02129709902779
2928.22,85.27380937477515,85.51558254297719,89.53131869561663,84.54219430705353,73.30540965710969,85.79004158200222
3030.76,85.36743423757423,86.01816597061226,89.71360422155279,84.32489243324272,71.90330607963848,85.94680947671209
3137.7,84.96397713603982,85.31217445217473,89.72692714749091,84.76319957175765,72.37766702926365,85.81882675386697
3249.02,85.03165284449854,84.38473138993858,89.52661099264844,84.44485739397034,72.76120664217869,85.53128674207282
3363.28,85.11464375264922,85.03840362874996,89.54095175053207,84.07069655987122,71.63220003500625,85.59497470298506
3481.93,85.90100077026239,85.70679187335716,89.76723690246538,84.2358209490979,70.58389108079093,85.98946045603917
3604.98,86.57114345704687,85.97432123630604,89.33869185876762,83.82902288644274,70.47705231219068,85.93558295981916
3732.42,86.6216045521072,85.92421103041112,89.51279401935663,83.85150679241612,71.58059873481494,86.02408005826021
3864.26,85.49220230575115,84.78263929477531,89.0939389824817,84.13724448280688,72.20961507062792,85.42215302605508
4000.49,86.0266885025218,83.8980973018505,89.1213843655438,84.0176942381052,72.64197271720215,85.39917542275776
4141.11,86.63301945983528,84.40305593086808,89.40910395190794,84.87834565116879,72.8780915836196,85.87907879936937
4287.6,87.16269535758993,83.43615170863787,89.89659444604004,84.94250192080754,72.78538310073996,86.12456256532312
4438.48,87.32145068416007,83.64741825315409,89.73403028907984,84.67415131342963,72.75536441438204,86.07265776385778
4595.21,87.39540335253312,84.40747231828679,89.57808787326545,84.07647560041741,72.49244770328498,86.03291759465874
4756.35,88.18228560798879,85.20169242883428,89.44392643836069,83.70717876047338,72.60908826451251,86.27801499561416
4924.8,87.23247817509325,85.52970371935233,89.46244086348219,83.14008652646858,72.6599634058036,86.00774489402251
5097.66,86.79267255074801,82.65692940505805,88.93630542766174,83.80350593117501,72.58128155763667,85.32283809857606
5277.83,87.10631009902228,83.64463778080817,88.89832917447131,83.87439563101607,72.55934082742935,85.52197055083188
5463.87,87.24997292140219,83.29750010173284,88.25574687884288,83.43525805342848,71.37472364735065,85.1800471897728
5657.23,87.00621646551657,84.27652028255113,88.91443681225283,84.12423622946358,71.58329042397483,85.6141532752892
5856.45,88.0095398034657,84.76233823780095,89.75598612388357,84.45269153173366,71.03445365190737,86.37203409542943
6062.99,88.24168331041714,85.65531372102213,89.78030190489315,84.22304734764437,70.56250816372248,86.55383819395826
6276.86,88.49502339101853,84.56606180193187,89.43489865295142,83.71866939741298,70.30165514659463,86.26840259438525
6498.05,88.8984557451438,85.62314859990782,89.30817560935854,82.90133333031663,70.37468339607366,86.43388876963643
6726.56,88.47873928966887,85.66107476492384,89.26807763711886,82.3935322644037,69.91219342099038,86.2344255304875
6963.87,88.77830641463446,85.72757805560009,89.51030309839216,81.91152193914179,70.38245497391678,86.4113315668395
7209.96,88.8386839179208,85.39606353243286,89.18614865867482,82.0742606983584,68.8035457418735,86.2525422911353
7464.84,88.16855185647682,85.82976071264137,88.68740208589054,82.46287686334192,69.41013854354269,85.93936467117892
7727.05,88.76114649501606,86.30100170249936,88.5820682535072,82.29487067032255,68.19176157574591,86.1829260587743
7999.51,88.05441021410344,85.2797654618217,89.03972641134501,82.68159606743525,67.68568896245007,85.95297542880475
8282.23,88.50389187816184,85.69751016295174,89.54035648179708,82.99502685333799,67.92567302481642,86.40476384629068
8573.73,88.34279886930698,85.85103102732123,89.55906697173965,82.69649226842844,67.04822332255522,86.35894371229188
8876.95,88.12502350516449,85.71430251985223,89.15041117657,81.82138768339864,67.20579191102605,86.02456079648569
9188.96,87.74981955021455,85.93715974909087,88.80247333223616,81.06121600055687,66.9316248509697,85.751066492957
9514.16,88.08007423038417,85.29597598940938,88.63128858211243,80.2594880990843,67.71623264525151,85.61809648447705
9849.61,87.57951528591288,85.30467787994083,88.2771792375113,79.82214766839364,67.51551136723639,85.27916462301562
