Freq "Sound Power"
20.5078 70.17966878947567
21.9727 73.04371066701266
23.4375 74.31511479555448
24.9023 76.06643440838383
26.3672 77.5851959396865
27.832 78.80960508795839
29.2969 80.29845085343085
30.7617 81.55246208580888
32.2266 82.36080968550581
33.6914 83.2000332855872
35.1562 83.67778154112656
36.6211 84.34073429735204
38.0859 85.07252477603949
39.5508 85.58375286068143
41.0156 86.03963094534271
42.4805 86.42870097233626
43.9453 87.04066855860495
45.4102 87.53930910895365
46.875 88.04337084854221
48.3398 88.49334104304752
51.2695 89.14547812860704
52.7344 89.5206255204213
54.1992 90.00532683249489
55.6641 90.59906464259349
58.5938 91.04423514702745
60.0586 91.14056489563875
62.9883 91.37367375817752
64.4531 91.41402879532947
67.3828 91.48774631597203
68.8477 91.49365100674397
71.7773 91.34507745437901
74.707 91.24873639451873
77.6367 91.04261683963873
79.1016 90.90578782150851
82.0312 90.59398484403874
84.9609 90.31785816657226
87.8906 89.9825913121618
90.8203 89.61508676630467
95.2148 89.00211893607202
98.1445 88.50063893501991
101.074 88.05322403952712
105.469 87.70686832246994
108.398 87.99590757501417
112.793 87.99658403762176
117.188 87.64622912059714
120.117 87.4661019863165
124.512 87.9799699443408
128.906 87.79623952698417
133.301 87.73186454055251
139.16 87.4420179406017
143.555 87.15059007622952
147.949 86.69029219464716
153.809 86.30676239500214
159.668 86.37276743511327
165.527 86.1323483095007
171.387 86.29354856713539
177.246 87.39101197524943
183.105 86.61920767682574
188.965 86.41403683803895
196.289 87.01590498428874
203.613 86.73815926116316
210.938 86.42187099809209
218.262 86.2291582275349
225.586 86.34820911756343
232.91 86.21050678739564
241.699 85.44965339460627
250.488 84.99153553666855
259.277 85.63321091690128
268.066 85.96185020030106
276.855 85.82806412711022
287.109 86.41198396840196
297.363 86.38800240694304
307.617 86.82775387294518
319.336 86.16408307962459
329.59 86.36805947855638
341.309 86.69365306682735
353.027 86.84013123562382
366.211 86.69154490896669
379.395 85.77152692126845
392.578 85.80904358041741
405.762 85.81920312692262
420.41 86.04177192523568
435.059 86.11614359115606
451.172 85.84547656257836
465.82 84.82738641345583
483.398 84.55056503468833
499.512 84.26617975824766
517.09 84.13583945117074
536.133 84.72327611348334
555.176 84.07930114669952
574.219 84.22682271966069
594.727 83.70473538827227
615.234 84.93430131889988
637.207 85.00253686762221
659.18 84.3081921184613
682.617 83.75521585955906
707.52 82.89375802418704
732.422 82.51543401335508
757.324 82.40372934461043
785.156 81.4867966103462
811.523 81.31563107568498
840.82 80.83627190415848
870.117 81.63515137430282
900.879 81.91680313689147
933.105 81.79876050107062
965.332 82.11600666221526
1000.49 82.23291060915321
1035.64 82.05866340803034
1072.27 82.51997989586056
1108.89 81.6010611306834
1148.44 81.43181375738288
1189.45 81.1057840633512
1230.47 80.89926119616953
1274.41 80.86943336268743
1319.82 82.03609606235028
1366.7 82.64886318875683
1413.57 83.32766260579284
1463.38 83.62437560653647
1516.11 83.71115059934456
1568.85 83.68835852084783
1624.51 83.14638925260115
1681.64 82.86334764890206
1741.7 82.91167249851742
1803.22 83.38988336469959
1866.21 83.1480536003648
1932.13 82.66844297751416
1999.51 82.80066591720072
2069.82 83.1996329033813
2143.07 83.36820214765362
2219.24 83.47321030700729
2296.88 83.10807415523009
2378.91 83.5980643104102
2462.4 83.5112453562543
2548.83 83.41119001596161
2639.65 83.54701403244621
2731.93 83.70854124962393
2828.61 84.01776271438956
2928.22 83.79017805878229
3030.76 83.75708084357626
3137.7 83.89409236097289
3249.02 84.21032634991454
3363.28 83.93252364924433
3481.93 83.97566101176054
3604.98 83.9469306299003
3732.42 83.69168828124451
3864.26 83.60535802979555
4000.49 83.29955490750038
4141.11 82.92231090189141
4287.6 83.1397084818791
4438.48 82.90069912803193
4595.21 83.15654170142729
4756.35 82.92355992582378
4924.8 83.28661269415204
5097.66 82.91595788942028
5277.83 83.47844633590712
5463.87 83.22677959732226
5657.23 83.424732199888
5856.45 83.05877811283884
6062.99 82.77536380699888
6276.86 82.47274843782498
6498.05 81.9537452484611
6726.56 82.08455143945781
6963.87 81.98748802822473
7209.96 81.99562008241438
7464.84 82.35922718366604
7727.05 83.01069821366573
7999.51 83.1626049678465
8282.23 83.31902004452738
8573.73 81.24037372807571
8876.95 80.18454915647256
9188.96 81.78105905905971
9514.16 82.3311647539312
9849.61 82.48403580444469
10196.8 82.43095762817177
10555.7 82.46203309963029
10927.7 82.63914065184429
11313.0 82.9465245668113
11712.9 83.17933141471188
12126.0 83.14743944956115
12553.7 82.80282131288666
12996.1 82.39641197891498
13454.6 82.11447585235312
13929.2 81.89364527491057
14419.9 81.55193947774185
14928.2 81.33115757585665
15455.6 80.09681858139072
16000.5 76.47448319400283
16564.5 74.2043546933107
17148.9 73.42998633282502
17752.4 75.007597961517
18379.4 72.62821774996254
19026.9 69.54217001341657
19697.8 62.79325143139707
19999.5 59.00151736879664
