Freq,Floor Bounce,Ceiling Bounce,Front Wall Bounce,Side Wall Bounce,Rear Wall Bounce,Total Early Reflection
20.5078,61.03737849827438,59.46670719891169,60.41350920524327,60.267827838022086,59.99165576160662,60.26601717308752
21.9727,63.48142227533516,62.13332670396811,62.9543808345729,62.752503683240874,62.4295718971581,62.77485041182844
23.4375,64.31629229337261,62.84371977100717,63.74429425831313,63.53575185088896,63.126143068306874,63.543367890885776
24.9023,65.1069332452551,63.71506014228045,64.58543791436512,64.36739280002642,63.873237042469825,64.35879765299211
26.3672,66.4360891641467,65.10011143314921,65.9070873066202,65.78616400158828,65.49772087398205,65.76812980446458
27.832,67.13451574428514,65.73615332868499,66.5738125443291,66.44810016521026,66.13732166586198,66.43098877263067
29.2969,67.75438806113713,66.4248646389863,67.24159868078884,67.08949165576934,66.70525060538091,67.06729361161352
30.7617,68.88975991971519,67.56014044287072,68.37887012201121,68.19923903146673,67.72152253438436,68.17621104275304
32.2266,69.5396321431692,68.19254579940771,69.01345479619316,68.86283788902497,68.49555103477209,68.84526762268554
33.6914,70.52901802301825,69.17120870460437,70.00060139427796,69.85234585628538,69.47101094458263,69.82980124696789
35.1562,71.18302633153594,69.90053365467797,70.69306345442976,70.53411007358444,70.13312238888726,70.51190140609073
36.6211,71.85796558266041,70.56198503951641,71.35665982320518,71.2095778998878,70.8408633267093,71.1882800157348
38.0859,72.49388970567425,71.18583029887809,71.97648091328462,71.84730142689153,71.53182937084061,71.82935936657059
39.5508,73.29818658034425,71.98550033855092,72.78218366588463,72.64678104969383,72.33458762630227,72.63189509716467
41.0156,73.73929172309943,72.43166691313496,73.22113876864556,73.08016000427793,72.84057704628985,73.08407390440053
42.4805,74.39225815215552,73.04115347803146,73.87771366696342,73.71548537336977,73.32604460017252,73.69555416798745
43.9453,74.89236772068243,73.56906342080175,74.39057684174367,74.22132750951116,73.79913864284299,74.19932930518654
45.4102,75.50403165355652,74.21094221738339,75.01119600958704,74.85350399346392,74.46393802942629,74.83194533211243
46.875,76.10338893459735,74.82946285334056,75.61695744782256,75.4456714471715,75.00122227404712,75.42319141113941
48.3398,76.71711106653765,75.4293229277268,76.23114522762886,76.05431173277661,75.60649278599904,76.03204052027031
51.2695,77.64343658111169,76.3454867250114,77.15081611055096,76.98068207250206,76.56671833968252,76.9613860041956
52.7344,78.1911639406511,76.88602924442009,77.69551521501707,77.53497518559348,77.15877460101021,77.51668545866407
54.1992,78.68755482263624,77.42399088325007,78.20710834354502,78.05383062012872,77.71480800681728,78.03898185240499
55.6641,79.21129468371346,77.97133711046065,78.74206536534699,78.5792637898091,78.24871999325003,78.57138730342315
58.5938,80.12128717988239,78.82338586715306,79.64261718554515,79.43570014753172,78.97870594590957,79.42563054276941
60.0586,80.57766137853028,79.25368032006503,80.08954697557876,79.88214135687626,79.43706229248755,79.87385546642729
62.9883,81.38836628527439,80.07391331621373,80.90462681751731,80.68933496277377,80.1688476390162,80.67226877527757
64.4531,81.72796350917504,80.42059413341413,81.2397050363918,81.0380480094951,80.56180448374876,81.02352749868714
67.3828,82.28105214656544,80.96310214265164,81.78321105301161,81.60138784865369,81.21441464044052,81.59289682512417
68.8477,82.52489247203526,81.23965391653446,82.03636858804381,81.86566906032853,81.52435775352079,81.86061658928428
71.7773,83.18630166725015,81.9022407609241,82.69389726552424,82.52297010091402,82.20537048573657,82.52423620413994
74.707,83.73815071371028,82.43655884419434,83.24271876737406,83.06400294575336,82.74608526614473,83.06818997012707
77.6367,84.2183503118436,82.89937807596455,83.71288924934652,83.53685307883318,83.2390791447457,83.54421455020456
79.1016,84.47446622645343,83.13067089058954,83.96613481345086,83.76982065651285,83.45635081857897,83.78361536281996
82.0312,84.74619484880735,83.37718057647479,84.24179828142017,84.02214766060244,83.6631434655519,84.03598055510733
84.9609,84.9783146572952,83.67176173600096,84.49947599128299,84.28148943171927,83.91871871935577,84.29397110507215
87.8906,85.21754817255021,83.93760497408586,84.74749573283896,84.54372690124937,84.21972310789263,84.55562887790238
90.8203,85.3937886917214,84.12043812185132,84.93803864984675,84.69167200027839,84.34125156433907,84.7203034287537
95.2148,85.7181770347021,84.38116849603367,85.22821687999134,84.98734788290439,84.65818554460449,85.01939343617032
98.1445,85.76600977709974,84.45772716842887,85.2862797964513,85.01626962023272,84.71911487465529,85.07301578956653
101.074,85.73712321086985,84.37294071532231,85.22905770574017,84.96848314387512,84.71530359933648,85.02944366314864
105.469,85.91115667712604,84.48898533299975,85.39176461736014,85.1149014492315,84.78967514274244,85.16729449597456
108.398,86.00660639691057,84.57435447858897,85.50933428582574,85.15948711182631,84.73973896091941,85.2293574916806
112.793,85.90646026662132,84.4557820688184,85.4056752844356,85.07575938205524,84.65510868635187,85.1313138523851
117.188,85.91003279393824,84.40020565339303,85.40968315347935,84.99544923202697,84.53876157687448,85.08705620699978
120.117,86.01682450447797,84.48374936378534,85.51352163953808,85.07853115448252,84.38399637179606,85.13953856798547
124.512,85.8357444353337,84.28731767634318,85.31881623277751,84.91744494017529,84.27371526186162,84.96879375100558
128.906,85.58376335403801,84.02544046805654,85.0558661218865,84.6917851722514,84.20502558186745,84.7497460302934
133.301,85.52004559597275,83.8641269157747,84.95768120613984,84.56821065874418,84.07077568533334,84.63798470926938
139.16,85.51610756199504,83.80781805949754,84.94797125191548,84.50681291763841,83.9329693580252,84.5894936946582
143.555,85.44363406629002,83.76071685838757,84.90163081457936,84.42798350350098,83.82159232752882,84.51905865810092
147.949,85.25042077101556,83.53063532048415,84.69556279520826,84.24817516672856,83.7052653582335,84.33271218295836
153.809,85.10206294497955,83.17786670382702,84.52520633182017,84.01846753918568,83.44650524113567,84.11109118733224
159.668,84.99928186520292,83.17101089140019,84.44280009805253,83.95041827760679,83.44853855142361,84.05325175234331
165.527,84.88079915486675,83.02073680757574,84.30541556821206,83.78291651050725,83.37250531562782,83.9233595164479
171.387,84.840726823007,82.81906223124231,84.23220599651306,83.65904986502002,83.19708480615502,83.8101453617862
177.246,84.93304192158703,82.95110289591071,84.35691041049482,83.63591441913381,83.02375980178999,83.84889230670765
183.105,84.62725625615042,82.78689722396848,84.14962169992829,83.48028360250315,82.64359823255481,83.60535988304916
188.965,84.45065675746868,82.61005355229011,83.9670757379379,83.28469127971358,82.67679559597725,83.45804084359054
196.289,84.58752478955788,82.60979553417464,84.07556326916782,83.31051819578354,82.5676475558611,83.50437359046718
203.613,84.57010708024701,82.58038818390503,84.11989615716863,83.25169483797889,82.22988077986919,83.4412917163382
210.938,84.25948568617804,82.42332165108927,83.83164544168515,83.05307812536091,82.01469485482836,83.19736290189395
218.262,84.14285075785494,82.13111415852809,83.64398728178612,82.7960272514491,82.12634206097694,83.04444758015705
225.586,84.34211712153669,82.29077915954917,83.89215372361848,82.96951171930412,81.99861808027215,83.19246714719988
232.91,84.41865825615054,82.17369736950899,83.8968847919325,82.86505411509752,81.76799724827059,83.1408931899192
241.699,84.22838236481772,81.80165263613956,83.62442290650849,82.70539717681554,81.30967147205719,82.86986593165409
250.488,84.5368275126342,81.73084969334452,83.95992607600279,82.75860044137707,81.18029585485543,83.01920418580151
259.277,84.33935206001657,81.72545089034374,83.81037498684206,82.69491011862867,81.1692101984127,82.91246990893963
268.066,84.21674135205261,81.55593763061354,83.7403108181904,82.4945959943148,80.90607367279652,82.76251420308382
276.855,83.93064925104444,81.82312075996002,83.63202733013665,82.67357801631141,80.84014266388543,82.72573948158855
287.109,84.00642142805926,81.83794034675147,83.60473512155073,82.60615138473077,80.81616319067815,82.72530317258777
297.363,84.30808764955226,81.78510624995631,83.93935508694341,82.63237241736698,80.78963326288492,82.88459351021443
307.617,84.32327159502428,82.00202378672226,83.89013596051153,82.60274007315176,80.59400645106668,82.88168146243952
319.336,84.26080369099589,81.82305346437606,83.88282367577811,82.49921106832593,80.29392760070148,82.77928456725633
329.59,84.08927673587822,81.6526308876467,83.71638273765238,82.67889946672237,80.33643739247063,82.70157740051933
341.309,84.4836208994707,81.96177258872716,84.14685190382637,82.53880012641612,80.43418197907631,82.95630121735883
353.027,84.31815998401196,81.93178055517423,84.16452176678452,82.902619278493,80.1618797428278,82.94945315492691
366.211,85.11158013979852,82.37020040626994,84.85125247065109,83.37782012399107,80.17292491224741,83.51932833452025
379.395,85.07886281111043,82.8402911942816,84.72394977808939,83.57849996691807,80.70026503213616,83.6419437239332
392.578,84.64510658563294,82.43741351451813,84.35784295788322,83.31269247211863,80.29431613938966,83.26701907662083
405.762,84.92023442351042,82.45180787448918,84.82641460221232,83.43719685390747,80.24106708460258,83.48904887657491
420.41,84.72242955358999,82.9431040111448,84.7480437114544,83.60839740510754,80.44341182183962,83.549768083549
435.059,85.09639202835152,82.76616184202705,85.00921354669848,83.71600231243725,80.0581987530056,83.67702036699545
451.172,85.11763540875499,82.36355576677752,84.89368529266692,83.89666657445899,79.85968274667167,83.60942390091448
465.82,84.81575433020345,82.26103059378418,84.91719183869897,83.78721400325564,79.94019569746384,83.50040818021725
483.398,84.16550972833825,82.53101044888889,84.46218663484237,83.50722511609717,79.40084330406884,83.14205084199962
499.512,85.0437748042178,82.42527203996573,84.93446349701604,83.48663327528824,79.58703685996583,83.50182324719121
517.09,84.10514560291617,81.78961598699829,84.27822446880579,82.88642643041399,79.44393406620628,82.82624018162174
536.133,84.48320522245524,80.75530083964176,84.82374087062702,82.80448499883288,78.4827371511188,82.85401165364316
555.176,84.31770079938768,80.21193608865663,84.68281091886315,83.35234205574115,78.41156613339015,82.81017465928365
574.219,84.15260830500777,80.389749694163,84.06907872802769,83.0095843256772,78.06748972345433,82.49847935209463
594.727,83.78553518639394,79.38367978483267,84.05811309601461,82.11124083168447,77.44158580321992,82.03311377335591
615.234,83.47500402440133,79.16514469763575,83.62003128196321,82.04123776028003,77.44162594737067,81.76513411025292
637.207,83.40174263019014,78.52587347788646,83.2058512415594,81.5125323281213,76.70950264266297,81.38511605718412
659.18,82.40193301234423,78.32458882687725,82.62069676627779,80.80013126675179,76.35409570573478,80.70489791604727
682.617,82.37272389984847,77.78880117413769,82.69912439890449,80.80628936305943,76.36911807786446,80.66480222477372
707.52,82.60806997125404,78.07895214058452,82.23133052902311,80.0886348429797,75.39568518942468,80.41726711033661
732.422,81.61360833235297,77.61065138326991,81.89463731215899,79.5444508943687,75.45396538401492,79.84547703914018
757.324,82.34102534386224,78.05392397636774,82.20378047837757,79.57528524975085,74.94703683795159,80.19819309482837
785.156,81.41904466182821,77.24404031034874,81.5995664415758,78.81053055138962,74.39022079302232,79.4419883415244
811.523,81.31386628685215,76.35455938028997,81.74174535388285,78.74917386473375,74.64272795134201,79.36478529884218
840.82,81.06642183710548,75.8106114034272,81.93966481595936,78.57086224917245,73.96475009308635,79.23370874525028
870.117,80.81393639354495,75.22457472251305,82.01059895665243,78.83352532715278,73.88198698156336,79.1769615879935
900.879,81.35205859369215,74.66056983463956,82.1836370915458,79.0847505570142,73.58604399660432,79.3945562805615
933.105,80.94584855312462,74.39836406976453,82.1104670461982,78.78535526920751,73.69570295370332,79.17461732991477
965.332,80.75365385086344,73.43158119790652,81.91156368491528,78.95589087237431,72.78231173707614,78.9640434847209
1000.49,80.63319698582356,73.94278656644346,81.56101341319143,78.64527186027742,72.5976946495949,78.75210359598113
1035.64,80.93403010736189,74.77853410142426,81.46006096330503,78.58446663068936,72.39713770946499,78.8486046650949
1072.27,80.4697601254094,75.96953219058524,81.13385861364569,78.38347789756186,71.88762570025523,78.63505381468049
1108.89,80.49955264209174,76.5644271714742,81.20098264543074,77.90979112310286,71.80499418958765,78.64906557292039
1148.44,79.67785848936875,78.36578126304461,81.34105801340765,78.31114165167453,71.4441785620327,78.80122241819677
1189.45,80.08337641504069,77.42068330130087,81.68632315534731,78.4383445101309,72.15361817046083,78.93003176463353
1230.47,79.80120437588461,78.17928293056848,82.21291430336807,78.93736552893573,72.13008688657844,79.26712671829216
1274.41,80.12397376279685,78.33866766410655,82.64825156629882,79.12650194558941,72.17641058867159,79.57509915905091
1319.82,80.71782397069306,79.33058483833828,83.11366813081118,79.4275028216149,72.78226134043454,80.1294874001581
1366.7,80.68073115835365,79.31544121149169,82.87793853035792,79.62681333934994,72.56168021229114,80.05340235592949
1413.57,81.41951923997583,80.57958672564418,82.81022543150341,79.12378196485767,72.53329751793565,80.36294638231496
1463.38,81.47520188671523,80.42450256137236,82.03824653239892,78.48700578791129,71.75568263206041,79.96663951703148
1516.11,80.87155902233046,80.10526402644273,81.76439545381385,78.3595281318177,71.18742856090661,79.60455004399003
1568.85,80.90358528379572,80.1332085204073,81.36684179850447,77.9679515345219,70.99385548357962,79.42935272841468
1624.51,80.47262458776596,79.20218428457673,82.34857997106536,79.17686479073822,71.20011760108943,79.66016924137145
1681.64,79.69977757930555,80.06526815294963,83.10461958649945,79.79496393079121,71.72914287680722,80.0817861492488
1741.7,81.24029441479414,79.36825035751018,83.5162291333843,80.01773193585667,72.48121262246705,80.51030392788093
1803.22,80.93055625480973,80.08136024954274,83.05450458683453,78.90532145756767,71.67188431969544,80.17240572965085
1866.21,80.75754734279633,80.20309349330793,81.97678163208938,78.55692132282728,70.97445667405107,79.69166693954847
1932.13,79.50118623278452,80.5169435303681,82.49999175822758,78.92451587042025,71.40319439294748,79.74507666710778
1999.51,80.06337510875134,81.06552212634573,83.33517119173648,79.46817452876071,71.46056908190934,80.39241940014735
2069.82,80.2658387153337,81.43176945367897,83.93636834629594,80.23274668396029,71.55096523530209,80.88275699709196
2143.07,80.81044716574475,81.7369687455708,83.7306479462073,80.17877612204914,71.80896680042746,80.97009783955319
2219.24,80.87328106172464,81.05750498908989,82.54485224064362,79.48772753315049,71.29094194907418,80.26820785580563
2296.88,82.0757156239963,81.70645473341726,82.05571521187204,78.9902460784395,70.49283839261803,80.49527729844087
2378.91,81.19276471208045,82.04454620085149,82.86807037291301,80.11037308442852,71.20138324071188,80.79938081068376
2462.4,81.03617292079899,81.91159028577691,83.4342027645682,80.97575893709168,71.73708220562887,81.09144172595927
2548.83,81.61289358987746,82.1240816963191,82.92791943581618,80.27487662123978,71.4693011266945,80.96811525271623
2639.65,81.48541780668812,82.24512348020313,81.75031562085103,79.4572168209985,70.72007472342648,80.47789897903307
2731.93,80.63652473832836,82.50572661773029,81.34550214505295,79.37718463066018,70.29300604995896,80.23254635129284
2828.61,79.95099294473079,82.45540163101501,81.96092857546205,79.8503014898072,70.70487641626404,80.3369139678052
2928.22,79.97978163763477,82.60993530581477,82.6018952267726,80.45788281118666,71.33984190928801,80.70927604939655
3030.76,79.7833297368229,82.51724379744468,82.79696532407476,80.57441006680871,70.96414893265766,80.72403113496999
3137.7,79.3796135144143,82.31649597276326,82.76645306209473,80.5829737960318,71.10379068425264,80.59562548898403
3249.02,78.89232477613803,82.18197894428579,82.7544982900507,80.46161231924545,70.8210172706688,80.45021335510124
3363.28,78.63458702326166,81.39776021664167,83.22237204461779,80.64148891210124,70.25114808577898,80.39423288002784
3481.93,77.73186131180397,80.93350604885897,83.46255884730931,80.92807275992972,70.75033792348421,80.34194086899149
3604.98,77.38083469692975,79.58123454648923,84.15337810054213,81.57954025134826,71.0752130976473,80.51084624550093
3732.42,77.79007949409281,78.29822900442275,84.56660456970803,81.39514425977373,70.33340147503722,80.51210624717798
3864.26,78.32191125458549,76.36213620993333,83.48604477228213,80.35769905226333,69.78786419320727,79.56634293436223
4000.49,77.80845117382773,74.00832309408135,83.83799498152855,80.4588731769097,68.75118984789215,79.50537042809715
4141.11,76.55450759324414,74.43693498803228,84.15908765920106,79.96544139841183,68.01377058563546,79.43601028174811
4287.6,74.6668314796142,74.4345490853363,84.1151066712444,79.52791195526423,68.56384654927096,79.15789206668104
4438.48,73.57427311003359,74.06885187153337,83.54928354946257,79.77517971641511,68.39508094740528,78.76894417047221
4595.21,71.37055565951927,75.36888537943956,83.77598266916031,79.73065479861077,69.02336616836881,78.9061069781709
4756.35,70.60221515083852,76.05007607700664,84.58329731691862,80.4676144813751,69.04695244941493,79.62325564717092
4924.8,74.19224894087003,76.99935470602897,84.21636272074215,80.66846955969416,70.10313795009505,79.70595009045435
5097.66,74.10937656064023,77.35855773049697,84.27783190880726,80.0389292954526,69.3744912579972,79.61453229428402
5277.83,75.65371437428585,78.27138572907212,83.94262746366755,80.84965960923442,69.79412152118286,79.84943117721237
5463.87,78.37929273940097,78.67164476730152,84.14652339742175,80.65960811305217,70.10227047127685,80.24445343520644
5657.23,79.58524633213344,79.06210466620745,84.12706194749936,80.92810531153758,69.85576415323584,80.5201168225066
5856.45,78.79093560419363,79.43176076430134,84.15140843241407,80.84192243434082,69.95746934244586,80.45190472495028
6062.99,79.25206161747552,79.53435338497006,84.43308022313138,81.30726485221692,70.28166454160262,80.77246726653607
6276.86,79.8997167598322,79.91016981953926,84.2677083794957,80.87021471066514,69.481488492653,80.74736314180406
6498.05,80.1523476672097,80.3899668411699,84.9054642267457,81.36191603019954,69.66623665274365,81.26116531250231
6726.56,81.44889023444684,80.63266514590936,84.56408886977464,81.16614929384689,69.11003499587476,81.33705471280548
6963.87,82.12705751769973,81.03026504513485,84.72937702895011,81.17733305853606,68.72242374419747,81.61776586984581
7209.96,82.23763965745738,81.01567623552901,84.92353029059537,81.26591779289761,69.10175083640105,81.74020753806025
7464.84,82.0814414549723,80.81835998617818,84.07080210277054,80.30590457951669,68.50046619106061,81.15224592132569
7727.05,82.20216910894483,80.72681640988642,84.50582936663834,80.78425624287718,68.79502741433546,81.42292085346175
7999.51,83.24661021730724,80.69681625045212,84.09562361081021,79.72456992867514,68.15827226117213,81.37206589946236
8282.23,82.62920389617351,80.39940761877162,84.7213267362754,79.57412342717613,67.37704578378309,81.37056577205045
8573.73,82.13147174742994,79.4387732943088,84.3428274771919,78.68758501839632,65.9968963363653,80.79872996140791
8876.95,82.26655191467005,78.47237375395748,84.6754549033801,78.7631564287461,65.80966128462882,80.87321409283234
9188.96,82.1813018162979,78.24437055802336,84.25860340990766,78.3550707159177,65.69455753847342,80.57495245440515
9514.16,82.11205344497534,78.2926647108467,84.51838334607227,78.53374240342353,65.93819465926293,80.70725799950316
