Freq "Floor Bounce"
20.5078 61.03737849827442
21.9727 63.48142227533518
23.4375 64.31629229337261
24.9023 65.1069332452551
26.3672 66.43608916414668
27.832 67.13451574428515
29.2969 67.75438806113715
30.7617 68.88975991971519
32.2266 69.5396321431692
33.6914 70.52901802301825
35.1562 71.18302633153593
36.6211 71.85796558266041
38.0859 72.49388970567426
39.5508 73.29818658034425
41.0156 73.73929172309943
42.4805 74.39225815215553
43.9453 74.89236772068244
45.4102 75.50403165355652
46.875 76.10338893459735
48.3398 76.71711106653765
51.2695 77.64343658111171
52.7344 78.1911639406511
54.1992 78.68755482263626
55.6641 79.21129468371346
58.5938 80.12128717988239
60.0586 80.57766137853028
62.9883 81.3883662852744
64.4531 81.72796350917505
67.3828 82.28105214656546
68.8477 82.52489247203526
71.7773 83.18630166725013
74.707 83.7381507137103
77.6367 84.21835031184361
79.1016 84.47446622645343
82.0312 84.74619484880736
84.9609 84.97831465729521
87.8906 85.21754817255021
90.8203 85.3937886917214
95.2148 85.7181770347021
98.1445 85.76600977709975
101.074 85.73712321086985
105.469 85.91115667712604
108.398 86.00660639691057
112.793 85.90646026662132
117.188 85.91003279393824
120.117 86.01682450447795
124.512 85.8357444353337
128.906 85.58376335403801
133.301 85.52004559597276
139.16 85.51610756199506
143.555 85.44363406629002
147.949 85.25042077101557
153.809 85.10206294497955
159.668 84.99928186520292
165.527 84.88079915486676
171.387 84.840726823007
177.246 84.93304192158703
183.105 84.62725625615042
188.965 84.45065675746866
196.289 84.58752478955788
203.613 84.57010708024701
210.938 84.25948568617804
218.262 84.14285075785493
225.586 84.34211712153669
232.91 84.41865825615054
241.699 84.22838236481772
250.488 84.5368275126342
259.277 84.33935206001657
268.066 84.21674135205262
276.855 83.93064925104444
287.109 84.00642142805926
297.363 84.30808764955228
307.617 84.32327159502428
319.336 84.26080369099589
329.59 84.08927673587823
341.309 84.48362089947071
353.027 84.31815998401194
366.211 85.11158013979852
379.395 85.07886281111044
392.578 84.64510658563293
405.762 84.92023442351044
420.41 84.72242955358999
435.059 85.09639202835152
451.172 85.11763540875499
465.82 84.81575433020345
483.398 84.16550972833825
499.512 85.04377480421779
517.09 84.10514560291615
536.133 84.48320522245524
555.176 84.3177007993877
574.219 84.15260830500777
594.727 83.78553518639396
615.234 83.47500402440133
637.207 83.40174263019014
659.18 82.40193301234424
682.617 82.37272389984847
707.52 82.60806997125403
732.422 81.61360833235297
757.324 82.34102534386223
785.156 81.41904466182821
811.523 81.31386628685215
840.82 81.06642183710548
870.117 80.81393639354494
900.879 81.35205859369215
933.105 80.94584855312462
965.332 80.75365385086343
1000.49 80.63319698582356
1035.64 80.93403010736188
1072.27 80.46976012540941
1108.89 80.49955264209174
1148.44 79.67785848936875
1189.45 80.08337641504069
1230.47 79.80120437588461
1274.41 80.12397376279685
1319.82 80.71782397069306
1366.7 80.68073115835365
1413.57 81.41951923997584
1463.38 81.47520188671524
1516.11 80.87155902233047
1568.85 80.9035852837957
1624.51 80.47262458776598
1681.64 79.69977757930553
1741.7 81.24029441479414
1803.22 80.93055625480974
1866.21 80.75754734279633
1932.13 79.5011862327845
1999.51 80.06337510875134
2069.82 80.2658387153337
2143.07 80.81044716574475
2219.24 80.87328106172463
2296.88 82.0757156239963
2378.91 81.19276471208045
2462.4 81.036172920799
2548.83 81.61289358987747
2639.65 81.48541780668812
2731.93 80.63652473832836
2828.61 79.95099294473079
2928.22 79.97978163763477
3030.76 79.7833297368229
3137.7 79.3796135144143
3249.02 78.89232477613803
3363.28 78.63458702326167
3481.93 77.73186131180395
3604.98 77.38083469692975
3732.42 77.7900794940928
3864.26 78.32191125458549
4000.49 77.80845117382773
4141.11 76.55450759324414
4287.6 74.66683147961422
4438.48 73.5742731100336
4595.21 71.37055565951928
4756.35 70.60221515083852
4924.8 74.19224894087003
5097.66 74.10937656064024
5277.83 75.65371437428585
5463.87 78.37929273940095
5657.23 79.58524633213344
5856.45 78.79093560419363
6062.99 79.25206161747552
6276.86 79.89971675983219
6498.05 80.15234766720968
6726.56 81.44889023444684
6963.87 82.12705751769973
7209.96 82.23763965745738
7464.84 82.08144145497232
7727.05 82.20216910894483
7999.51 83.24661021730724
8282.23 82.62920389617352
8573.73 82.13147174742994
8876.95 82.26655191467006
9188.96 82.18130181629792
9514.16 82.11205344497534
9849.61 82.19869097595424
10196.8 82.20806285690963
10555.7 82.10309050287258
10927.7 81.7875472348554
11313.0 81.56257243607135
11712.9 81.17657803142087
12126.0 80.62502376553348
12553.7 80.71920979199034
12996.1 80.52971966243254
13454.6 81.25452176118091
13929.2 82.0784562913849
14419.9 82.82392441488281
14928.2 83.42193710818091
15455.6 83.85298224403616
16000.5 84.30578106071108
16564.5 83.79852585585589
17148.9 82.84143114418404
17752.4 81.89056530806286
18379.4 81.51759847215897
19026.9 81.46989207365286
19697.8 81.56354096634095
19999.5 81.41076738981934
