Freq "Floor Bounce"
22.4 51.21890853408256
23.0 51.75587591578703
23.6 52.45587591578702
24.0 54.155875915787036
25.0 55.785694009555
25.8 57.21890853408253
26.5 58.485694009555004
27.2 59.585694009555
28.0 60.64898064391569
29.0 61.548980643915684
30.0 62.448980643915675
30.7 63.3128006152517
31.5 64.07953916547923
32.5 64.8128006152517
33.5 65.5128006152517
34.5 66.14898064391568
35.5 66.9128006152517
36.5 68.3128006152517
37.5 69.74361387111408
38.7 70.94361387111408
40.0 72.10821686862887
41.2 73.10821686862889
42.5 74.04361387111408
43.7 74.90821686862888
45.0 75.70821686862887
46.2 76.50821686862886
47.5 77.20821686862887
48.7 77.60821686862887
50.0 78.00821686862888
51.5 78.30821686862886
53.0 78.50821686862888
54.5 78.73977843180201
56.0 78.87334461743136
58.0 79.00821686862886
60.0 79.13977843180201
61.5 79.30821686862886
63.0 79.40821686862888
65.0 79.539778431802
67.0 79.57334461743135
69.0 79.60821686862887
71.0 79.539778431802
73.0 79.60821686862887
75.0 79.70821686862887
77.5 79.80821686862886
80.0 79.90821686862888
82.5 79.93977843180203
85.0 80.00821686862886
87.5 80.10821686862887
90.0 80.20821686862888
92.5 80.27715054021441
95.0 80.3436138711141
97.5 80.4771505402144
100.0 80.57715054021442
103.0 80.67715054021441
106.0 80.77715054021441
109.0 80.77715054021441
112.0 80.71280061525172
115.0 80.6128006152517
118.0 80.58247605514418
122.0 80.41280061525171
125.0 80.3128006152517
128.0 80.18247605514418
132.0 80.18247605514418
136.0 80.18247605514418
140.0 80.18247605514418
145.0 80.21890853408253
150.0 80.28931839278167
155.0 80.28931839278167
160.0 80.28931839278167
165.0 80.28931839278167
170.0 80.22653742749422
175.0 80.12653742749421
180.0 80.0265374274942
185.0 79.89767400313131
190.0 79.79767400313132
195.0 79.63568331206875
200.0 79.43568331206875
206.0 79.27423663375977
212.0 79.1463414275757
218.0 79.2463414275757
224.0 79.25850624764844
230.0 79.09865753639716
236.0 78.78733014086312
240.0 78.04653741632706
250.0 77.16273338432642
258.0 76.19319199490776
265.0 75.58120545495657
272.0 75.3384548720072
280.0 75.94632960830783
290.0 77.40915712721794
300.0 78.84213286808611
307.0 80.0374763552151
315.0 80.83747635521512
325.0 81.13977843180201
335.0 81.0420269284242
345.0 80.64202692842422
355.0 80.1420269284242
365.0 80.00742618571358
375.0 80.40672374333427
387.0 81.2420269284242
400.0 82.28606652554221
412.0 83.20090686371914
425.0 83.88350933963655
437.0 84.09529646200274
450.0 83.79529646200275
462.0 82.95693046692244
475.0 81.61910746836723
487.0 80.04393303448315
500.0 78.85266086408282
515.0 78.82538993135189
530.0 79.32912944303257
545.0 79.61684715146384
560.0 79.67992412424331
580.0 79.4459118989568
600.0 79.09511302800927
615.0 78.59221852332102
630.0 77.86512897553116
650.0 77.18350933963656
670.0 76.74061578544378
690.0 76.78642792073255
710.0 77.24632960830785
730.0 77.69897627479261
750.0 77.944619616394
775.0 77.91553568306827
800.0 78.02886802045757
825.0 78.54061578544378
850.0 79.31048549692883
875.0 80.1849800409678
900.0 80.75859568998163
925.0 81.47953916547922
950.0 82.37492015964693
975.0 82.78351869596764
1000.0 82.49338142005999
1030.0 81.92653742749422
1060.0 81.74135388394485
1090.0 82.04613134501969
1120.0 81.89807723698713
1150.0 80.66314183818457
1180.0 79.31366661690866
1220.0 79.40564502380336
1250.0 80.21926951575483
1280.0 80.9779861337634
1320.0 81.16343094992855
1360.0 80.40839417431172
1400.0 79.0313770053882
1450.0 77.554242460682
1500.0 77.29798998128864
1550.0 77.43312725189575
1600.0 78.1028146584629
1650.0 77.91472681390137
1700.0 76.57632490983589
1750.0 75.88970685954104
1800.0 76.35063982419342
1850.0 76.77450986556435
1900.0 76.34031277626495
1950.0 74.69294381858788
2000.0 74.30808976152949
2060.0 75.716223643598
2120.0 77.08549586808866
2180.0 76.235368899522
2240.0 76.76597336480192
2300.0 78.16626708439802
2360.0 77.9898632157699
2400.0 76.61044095320548
2500.0 76.6699511319374
2580.0 76.79179920190482
2650.0 75.78924036922302
2720.0 75.84665638730284
2800.0 75.833184028254
2900.0 74.72535547281888
3000.0 73.28399725315069
3070.0 72.55997386388643
3150.0 71.09091873068067
3250.0 68.72161192449369
3350.0 67.62957596920468
3450.0 67.76861178072589
3550.0 69.62363031261137
3650.0 70.64461961639398
3750.0 71.04863012829306
3870.0 73.37447620361489
4000.0 72.79732695156657
4120.0 72.43651227256676
4250.0 73.3467646037525
4370.0 72.77735883445723
4500.0 72.77871467075117
4620.0 73.1620244746669
4750.0 73.69972439346758
4870.0 72.60268020920425
5000.0 73.98498438915205
5150.0 72.99897805733673
5300.0 72.31778330721485
5450.0 72.56304804266976
5600.0 72.94116141267581
5800.0 74.04317048275594
6000.0 74.56180479948306
6150.0 75.38613549118223
6300.0 75.02163990265127
6500.0 74.23632924201173
6700.0 74.40553029590804
6900.0 74.47836174240445
7100.0 74.18259446761597
7300.0 74.82716946167987
7500.0 72.6940103573388
7750.0 71.51375077702811
8000.0 73.0506984245008
8250.0 72.95010071153057
8500.0 72.20746770647777
8750.0 72.53787575306426
9000.0 72.60579692190892
9250.0 73.98818429148757
9500.0 75.36780174175577
9750.0 75.89758159116997
10000.0 75.59273395981208
10300.0 77.23111761085018
10600.0 73.9206332279786
10900.0 72.90570559117508
11200.0 73.71063598112083
11500.0 72.55159896515151
11800.0 70.06485882582591
12200.0 75.12625855630715
12500.0 77.14516982191628
12800.0 72.114470661847
13200.0 69.42213700911203
13600.0 68.63274628603632
14000.0 65.33331053557306
14500.0 63.128362771504996
15000.0 65.31766166889355
15500.0 63.3549570059475
16000.0 60.00875541582202
16500.0 61.565949345460155
17000.0 66.44643095496552
17500.0 66.02998871526864
18000.0 65.01382045185105
18500.0 63.52937604951366
19000.0 60.53615499237081
19500.0 58.31025678356983
