Freq "Side Wall Bounce"
20.5078 67.39603833374838
21.9727 68.90302586330735
23.4375 72.88093458463739
24.9023 75.34144769457146
26.3672 78.19507061452447
27.832 80.69731136963992
29.2969 82.4205560091523
30.7617 83.64518415612261
32.2266 83.84855997386725
33.6914 84.24880853910959
35.1562 84.40343480123508
36.6211 84.54397841196572
38.0859 84.64088704205324
39.5508 84.71359683744393
41.0156 84.8693841935528
42.4805 85.02988473938518
43.9453 85.14309392479933
45.4102 85.49563259902834
46.875 85.7530353341491
48.3398 85.98573678214842
51.2695 86.45418764918188
52.7344 86.69307887253234
54.1992 87.02050131857118
55.6641 87.30513652801929
58.5938 87.83299543454405
60.0586 88.01881428456151
62.9883 88.45859816344839
64.4531 88.63078317709214
67.3828 88.97937272247366
68.8477 89.1872010945899
71.7773 89.62739845963755
74.707 90.07154061418413
77.6367 90.36215959484058
79.1016 90.40145314530412
82.0312 90.58021299631747
84.9609 90.74903981022538
87.8906 90.6671740542504
90.8203 90.52198141422157
95.2148 90.44618180348922
98.1445 90.6816308098056
101.074 90.28015192341203
105.469 90.3143756718781
108.398 90.6915672659195
112.793 90.75821326223564
117.188 90.7843607690741
120.117 90.94745352620879
124.512 91.08856732892224
128.906 91.19241976491656
133.301 91.1700431105547
139.16 90.73812044582246
143.555 90.36136285947275
147.949 90.05619197723297
153.809 90.04286149803082
159.668 91.05078139484735
165.527 91.23415721757819
171.387 91.26488121626014
177.246 90.99476973204663
183.105 90.47267026435404
188.965 90.72383365415628
196.289 92.10261835555488
203.613 92.00114545299795
210.938 91.43161547064707
218.262 91.69564878064834
225.586 91.74018990041608
232.91 91.30669034413638
241.699 91.778099665188
250.488 91.48671106629617
259.277 91.59933460413616
268.066 91.87814537038828
276.855 90.73289235242038
287.109 90.6856587399644
297.363 90.18045297562992
307.617 90.6943513032111
319.336 89.60212393270717
329.59 90.10658389215133
341.309 89.53319612944281
353.027 89.78169021802626
366.211 90.20079035662658
379.395 90.14317419935409
392.578 89.25543393282406
405.762 89.88867200065954
420.41 89.25158497466276
435.059 89.52326478781559
451.172 90.10680741529069
465.82 90.21732842358891
483.398 88.7778831848982
499.512 90.14281520103737
517.09 88.98789666282941
536.133 89.3620754456241
555.176 90.3270426176781
574.219 89.90531235978249
594.727 89.22063529683082
615.234 89.16528172108701
637.207 88.96499609304053
659.18 89.53896403505725
682.617 88.86258142889811
707.52 89.11996327288458
732.422 88.47311093422202
757.324 89.17638178553463
785.156 88.77069915817121
811.523 88.05442783591592
840.82 88.24798950162312
870.117 87.71989654827763
900.879 87.28889793514065
933.105 87.28532663898343
965.332 87.46546635087418
1000.49 87.67531509119375
1035.64 87.2990773354299
1072.27 86.57131414983286
1108.89 87.3157682600907
1148.44 87.39246464294854
1189.45 87.43734072311503
1230.47 87.97420523356976
1274.41 88.25662920186775
1319.82 88.75403645042866
1366.7 88.54591528954663
1413.57 88.69006935744332
1463.38 88.54559765667277
1516.11 89.09650059570723
1568.85 89.2966455769413
1624.51 89.168639743533
1681.64 89.062005191076
1741.7 88.60403125963619
1803.22 88.73056482671015
1866.21 88.89712753006873
1932.13 88.78827398296433
1999.51 88.51629485006082
2069.82 87.88243988978155
2143.07 88.58773523503932
2219.24 89.17330208105484
2296.88 88.8540679582241
2378.91 87.66924887323893
2462.4 87.84535691310597
2548.83 88.76843073101698
2639.65 88.72809463479969
2731.93 88.79579385611305
2828.61 88.19079619826488
2928.22 88.25807023464887
3030.76 89.19936352050911
3137.7 89.10933027144527
3249.02 87.97563892841997
3363.28 87.44783576257537
3481.93 87.15308209626437
3604.98 86.78667054184046
3732.42 87.12793559040301
3864.26 86.28103371611817
4000.49 86.23689013724467
4141.11 86.81132321392786
4287.6 85.9067601072267
4438.48 85.94589726871473
4595.21 86.41311507933813
4756.35 85.54212903612884
4924.8 85.82861548590326
5097.66 86.18202521770138
5277.83 86.72061647902696
5463.87 86.50686288331217
5657.23 87.14065177431516
5856.45 86.62184294160429
6062.99 86.33031461922774
6276.86 86.11179648535082
6498.05 85.9596367029298
6726.56 86.28111227780782
6963.87 85.76048831331805
7209.96 86.4751291528849
7464.84 85.65544286098857
7727.05 85.67201979164594
7999.51 85.08162108816616
8282.23 85.15551592705786
8573.73 85.10242773355051
8876.95 84.78131627840105
9188.96 84.89954384604626
9514.16 84.57554630211732
9849.61 84.61603703096743
10196.8 84.3610942592328
10555.7 83.8884190855383
10927.7 83.80417560960264
11313.0 83.60464245925255
11712.9 83.61930779591114
12126.0 83.61477289153527
12553.7 83.56847454895524
12996.1 83.54609025428488
13454.6 83.15200434179391
13929.2 82.77064023467321
14419.9 82.77356158248197
14928.2 82.81647820233897
15455.6 82.92729067983356
16000.5 82.68817849284811
16564.5 81.86444168175888
17148.9 80.6614795973897
17752.4 79.42840656584733
18379.4 78.10301137242314
19026.9 76.19216285940723
19697.8 74.17754039208067
19999.5 73.63281459348687
