Freq,Floor Bounce,Ceiling Bounce,Front Wall Bounce,Side Wall Bounce,Rear Wall Bounce,Total Early Reflection
22.4,4.603613981766422,2.3390766307783295,5.671137996997722,5.060861766637409,3.5377001506350396,4.39519432741762
23.0,5.103613981766422,3.2034671589275447,6.208077083010217,5.636887600788135,4.170293217541889,4.991407819264005
23.6,5.629015742968967,3.9952849366820047,6.730584885376096,6.225971703565797,4.8273071178042315,5.58885757638226
24.0,5.988687508320744,4.673702279926609,7.206166834931686,6.723813254554138,5.387239640162967,6.089516596568366
25.0,6.5147684030450606,5.48843858767291,7.7053393422398315,7.305841688238793,6.053374058448846,6.688382333931436
25.8,7.0412956424508835,6.393075289940732,8.305594785216392,7.934614847198283,6.753609717358536,7.346117188387275
26.5,7.602001338166907,7.393075289940732,8.943713533475353,8.638792162880499,7.504852128500211,8.065023258161695
27.2,8.29570851618326,8.629361261753026,9.719400986348752,9.472335164500585,8.46650698141324,8.954553535485196
28.0,8.951964409963985,9.751164848898135,10.425741504780781,10.188911296034895,9.29172033507681,9.756042821664671
29.0,9.651964409963945,10.870498283614985,11.131567574712768,10.989996238290992,10.1295442848429,10.590999576793799
30.0,10.342748508667604,11.934868805082182,11.928965223492789,11.759443052121988,10.971500619214801,11.431887978642699
30.7,11.039885692961555,12.888268677135706,12.629352547240025,12.48858456904734,11.799626867994398,12.21894393881437
31.5,11.807962778589236,13.876029112976177,13.38722961933312,13.324516556527165,12.622674083098936,13.061317901650831
32.5,12.738453956747925,15.15621131537879,14.37407654359155,14.300189309385992,13.681248619066004,14.12304558373365
33.5,13.569435321830078,16.196512646529847,15.222747239756309,15.178283649433418,14.63163634819228,15.043012356790179
34.5,14.600911185701882,17.304620856807936,16.218034489916114,16.199985921287897,15.758812813850831,16.10264030590759
35.5,15.732885784575252,18.48784896854756,17.326377765826443,17.341108580163684,16.93307868952585,17.25306031519353
36.5,16.696153947170025,19.328230964978594,18.276975441544046,18.28146898821897,17.92914291143166,18.182877862163487
37.5,17.765363275441395,20.24847071973148,19.305942931315663,19.341947611989248,19.033630837114096,19.210472480289617
38.7,18.89834773252327,21.1010597694818,20.362390456606,20.42238484894856,20.142441973141196,20.24241460177189
40.0,20.262167703859298,22.115985523218548,21.648195113617938,21.700832934727323,21.485440600719876,21.485278837422193
41.2,21.492980959721685,23.057143392106276,22.81610782579822,22.89483293670154,22.709357401717746,22.628361464675386
42.5,22.85758395723648,24.08868750832074,24.11142016193535,24.152328674148954,24.006882642994363,23.87004887243271
43.7,24.08914552040961,25.018648129832663,25.238154517814685,25.310386120190067,25.17448646434014,24.988304411316342
45.0,25.25452678742142,26.031843143751793,26.323176567711165,26.42912188592809,26.29346566374503,26.086553750818304
46.2,26.886843443822706,27.386843443822706,27.877569067670727,27.90718838702245,27.80395662900461,27.589602687811755
47.5,28.219665776247048,28.58914552040961,29.077569067670744,29.12635267833756,29.03972388337457,28.82452534486095
48.7,29.552997800527585,29.79615394716999,30.29408856796349,30.326352678337578,30.256329042757308,30.056302115994562
50.0,30.82042735805212,31.032885784575235,31.521552730211575,31.52635267833754,31.450840020674868,31.27996156262345
51.5,32.154526787421425,32.339885692961566,32.74884430387733,32.726352678337555,32.66689664595757,32.533733363840476
53.0,33.454526787421436,33.63988569296152,34.03490209314638,33.946351830076146,33.893091536279094,33.79900483547602
54.5,34.6891455204096,34.93988569296153,35.20416982295834,35.066721927152976,35.024628513675886,34.98824215662311
56.0,35.85758395723648,36.170154343092584,36.36274189894471,36.186996926439186,36.135170041255925,36.14555797134472
58.0,37.08914552040961,37.532885784575235,37.60416982295836,37.40671938244788,37.35082876634895,37.40036503643112
60.0,38.157583957236476,38.69615394717001,38.66006372962132,38.42635267833756,38.371765482514924,38.4668840114607
61.5,39.25758395723647,39.891499956693686,39.73020751615869,39.506261004782964,39.41297714316875,39.565590353592206
63.0,40.257583957236456,41.02354366488023,40.77259044522804,40.50626100478298,40.42354695538294,40.605203721307326
65.0,41.35758395723648,42.153771162420036,41.84350044072524,41.58699692643919,41.491760030197106,41.69601524087964
67.0,42.257583957236456,43.121206541146925,42.77193043846945,42.48699692643918,42.381355134725915,42.6149956331215
69.0,43.191394017031804,44.086843443822694,43.67193043846947,43.386996926439174,43.30238154348567,43.54003239044537
71.0,44.05758395723645,44.9868434438227,44.543500440725246,44.28699692643918,44.17116847950599,44.42204784311537
73.0,44.82271170603895,45.71966577624706,45.28673381006133,45.047270691708924,44.9127362451673,45.169942575097345
75.0,45.522711706038955,46.419665776247065,45.986733810061345,45.74727069170891,45.57092525116372,45.86209196417715
77.5,46.122711706038935,47.01966577624706,46.61553661792299,46.386996926439174,46.1973130506881,46.480723721523
80.0,46.62271170603895,47.45299780052759,47.086733810061354,46.866721927153,46.639595873858845,46.944972607759986
82.5,47.054526787421416,47.81966577624704,47.486733810061345,47.26672192715299,47.029065096554326,47.34147509563372
85.0,47.32120654114693,48.052997800527585,47.772590445228026,47.566721927153004,47.32414239859113,47.61658204792884
87.5,47.4868434438227,48.119665776247054,47.88673381006135,47.70717771173825,47.487260453674544,47.744368271879274
90.0,47.58684344382272,48.119665776247054,47.94416478189347,47.78699692643918,47.51932635811844,47.79710276765065
92.5,47.58684344382272,48.08684344382271,47.91488310611238,47.78699692643918,47.487260453674544,47.777985470068735
95.0,47.4868434438227,47.886843443822706,47.81488310611237,47.646351830076135,47.382513938793316,47.647655757865685
97.5,47.35377116242004,47.68836056332729,47.614883106112366,47.48699692643918,47.208499506670115,47.47396413540043
100.0,47.1868434438227,47.488360563327284,47.486733810061345,47.30671938244789,47.061147109073566,47.309177794627594
103.0,47.08684344382271,47.25452678742142,47.31488310611238,47.166721927153,46.87660184887796,47.14258008009764
106.0,46.986843443822714,47.15452678742141,47.214883106112374,47.066721927153004,46.79211216479772,47.04550209518468
109.0,47.08684344382271,47.12042735805212,47.31488310611238,47.08699692643918,46.823306642979766,47.08930278599144
112.0,47.35299780052758,47.25452678742142,47.51488310611237,47.30671938244789,47.028462194375216,47.29437152431168
115.0,47.71966577624705,47.52120654114692,47.857738703285996,47.647270691708904,47.333731505915985,47.619564969002816
118.0,48.25299780052759,47.92120654114691,48.31488310611237,48.08837827000759,47.73911694524572,48.06847536379866
122.0,48.75299780052759,48.2891455204096,48.78673381006136,48.5676364895123,48.18692704724298,48.52338026398356
125.0,49.252997800527574,48.721206541146934,49.28607594936708,49.08837827000759,48.66034834678353,49.00974132433908
128.0,49.85299780052758,49.12120654114691,49.78607594936708,49.60809446818438,49.15498918727089,49.51567031908424
132.0,50.352997800527596,49.6891455204096,50.34350044072524,50.1676364895123,49.749745620274645,50.07001923820636
136.0,50.95299780052758,50.28914552040961,50.886075949367076,50.787446861957186,50.4338513757011,50.67770055227559
140.0,51.45299780052759,50.85452678742141,51.44350044072524,51.34727069170892,51.044370567659946,51.235018627602024
145.0,51.7868434438227,51.35452678742141,51.84350044072524,51.806719382447874,51.59200209450625,51.680536608399855
150.0,51.95299780052759,51.65452678742141,52.08607594936709,52.006719382447876,51.96071407376737,51.93465325125431
155.0,51.986843443822714,51.7868434438227,52.08607594936709,52.066259308216964,52.0945433403051,52.00562338048031
160.0,51.7868434438227,51.6868434438227,52.0292153447049,51.966721927152996,52.06995887795073,51.91039095895935
165.0,51.65452678742141,51.4868434438227,51.886075949367104,51.76672192715299,51.914850443717334,51.74464264094453
170.0,51.45452678742141,51.25452678742142,51.68607594936709,51.54727069170891,51.667190377422564,51.52476886886442
175.0,51.3212065411469,50.95452678742142,51.486075949367084,51.327275780611934,51.36744528754594,51.294921418589205
180.0,51.18684344382272,50.754526787421405,51.38607594936709,51.1676364895123,51.13593973973041,51.13100727631792
185.0,51.35452678742141,50.889145520409606,51.486075949367084,51.327275780611934,51.25599952270883,51.26718724501439
190.0,51.7868434438227,51.35452678742141,51.98607594936707,51.84727069170892,51.799707960471416,51.7599826381858
195.0,52.386843443822706,52.054526787421416,52.58607594936709,52.506719382447876,52.550113318190974,52.421083290999526
200.0,53.054526787421416,52.6891455204096,53.28607594936708,53.18653646231625,53.30620539228209,53.11027747261759
206.0,53.654526787421425,53.2891455204096,53.857738703285996,53.82680894042836,53.91728995840149,53.714950080690336
212.0,54.086843443822694,53.721206541146934,54.28607594936708,54.32635267833755,54.275872898386986,54.14498158887243
218.0,54.321206541146914,53.95452678742141,54.48607594936707,54.58653646231625,54.36508511912904,54.34794718080693
224.0,54.321206541146914,53.9868434438227,54.48607594936707,54.62635267833756,54.28365445106183,54.346125833789905
230.0,54.25452678742142,54.02042735805211,54.48607594936707,54.606719382447885,54.26739430897775,54.33177270031097
236.0,54.35452678742141,54.1868434438227,54.65773870328599,54.76672192715299,54.40973803580332,54.48019368799927
240.0,54.52120654114692,54.2868434438227,54.82921534470491,54.90671938244788,54.525840703924,54.61984190782244
250.0,54.75452678742142,54.386843443822706,55.057738703286,55.08653646231625,54.65886082913101,54.796703007162485
258.0,54.889145520409606,54.42120654114691,55.229215344704905,55.226352678337555,54.695753392948696,54.90344635926868
265.0,54.92428724825452,54.42120654114691,55.25773870328599,55.226352678337555,54.7052935209362,54.91844429627748
272.0,55.05758395723647,54.52120654114692,55.42921534470492,55.366259308216975,54.95012390869365,55.076977816859774
280.0,55.257583957236456,54.72120654114692,55.67226045438658,55.60626100478297,55.25654555770169,55.31570528043746
290.0,55.39298095972169,54.78914552040961,55.85773870328598,55.726352678337555,55.42630749796786,55.4539026988351
300.0,55.36216770385929,54.724287248254505,55.901159091805916,55.68653646231625,55.42775381148224,55.438196638757596
307.0,55.06827562269013,54.59298095972168,55.80115909180592,55.466721927152996,55.24816095111024,55.25406455229082
315.0,54.64704109173892,54.52890625408683,55.67356524828751,55.14773533766928,54.952590238743376,55.009248575242275
325.0,54.456905652210075,54.665363275441415,55.773565248287504,55.00950113321013,54.874507093258565,54.97994864638343
335.0,54.60787333625604,54.972311073919464,56.073565248287515,55.25098794531767,55.1899851410984,55.24646037390668
345.0,55.04129564245088,55.310100819627316,56.5735652482875,55.67278801744829,55.71629079035049,55.69454123480623
355.0,55.50787333625605,55.551964409963965,57.02986670356439,56.1151269657232,56.22933296978429,56.12292840161309
365.0,55.968274077267644,55.76270393190614,57.357738703285996,56.43853871238225,56.55601132836765,56.452759647265346
375.0,56.25690565221007,55.93505954087551,57.600831264659185,56.68493550863979,56.70018620662234,56.67263668766417
387.0,56.485050400676336,55.907873336256024,57.67193043846947,56.85042617488835,56.78077778861098,56.777321131764445
400.0,56.742748508667596,55.88114052972538,57.84350044072524,57.063523744638196,57.00219069922395,56.95194147277389
412.0,57.00524300439462,55.85485628933498,57.9860759493671,57.253125406286095,57.178050400042075,57.108246543937916
425.0,57.06827562269013,55.68868750832073,58.08607594936709,57.32477868975942,57.05934770622586,57.11211897124243
437.0,57.00524300439462,55.48868750832073,57.92921534470492,57.2858335102765,56.68184211645717,56.95044780151115
450.0,56.80524300439462,55.348912119382454,57.81587094692613,57.1955625983876,56.25492718846011,56.763464990665064
462.0,56.580795240559134,55.17523225066349,57.760048488290785,57.22488702932184,55.98927954447877,56.639477784468106
475.0,56.50235378114457,55.02922421046144,57.94811970935955,57.32603389398128,56.04231173531651,56.68575795892969
487.0,56.68873045277048,54.895708516183284,58.26694440401341,57.575800877877434,56.22272622902293,56.8797514379013
500.0,56.81134048865558,54.774961420917116,58.45136310936258,57.650903365673436,56.179395435179224,56.95012613454876
515.0,56.82865868599723,54.58331277376633,58.46266572258538,57.66810973355542,56.16255569835439,56.93517370119259
530.0,56.85714339210627,54.45170863897699,58.590970943103294,57.80718838702243,56.43928307200803,57.04264219983323
545.0,57.15549581303437,54.23549776410737,58.94642906759905,58.048210755167766,56.75248318128198,57.292709487590024
560.0,57.378276420882806,53.8698975576986,59.229866703564376,58.19123683773099,56.87886452031116,57.442680219389054
580.0,57.456909783180585,53.43286314586559,59.31553661792301,58.17699151794046,56.9214535928561,57.45203249085055
600.0,57.63351494023441,53.00919629336091,59.372590445228035,58.26838547062881,56.952316436070824,57.500800356887815
615.0,57.757143392106265,52.346694040174164,59.272590445228026,58.16103912327487,56.69131543267675,57.380952247243606
630.0,57.580564638689985,51.59722910668342,58.986733810061345,57.86522232464532,56.33401082458486,57.07712915296434
650.0,57.46192202463855,51.13826356229115,58.78673381006136,57.610652229457806,55.97474437182294,56.84183213519976
670.0,57.344736225375435,50.88331189368251,58.60115909180593,57.41921434412094,55.5756487153294,56.632866286312286
690.0,57.15485628933501,50.942646097405635,58.37226045438657,57.226226222902675,55.22093332608072,56.418239535047626
710.0,56.968274077267644,51.07289558152042,58.17226045438658,57.24636592162887,55.099496237979814,56.30640631637326
730.0,56.83505954087551,51.1816931087015,58.1438326240124,57.451893205972645,55.01839561213706,56.31383119558709
750.0,56.40400384701558,51.00893580204464,57.91719279035437,57.32928550950347,54.77925080361832,56.07097197221409
775.0,56.00327069372066,51.045669805486405,57.836082289537806,57.146247179072,54.597919220293655,55.88794581874655
800.0,55.783885793185654,50.95100630277805,58.06456073083725,57.24471779533878,54.59381534558447,55.937069781954456
825.0,55.899865916922984,50.7878219606148,58.36456073083725,57.44539574008896,54.55790018162255,56.098221738531954
850.0,55.79415445992408,50.65697194944,58.59351047833466,57.47070704845158,54.31492953772116,56.12361049602047
875.0,55.59330301842281,50.331147897634345,58.71974575645738,57.36601907079373,53.88639294279444,56.03164084003168
900.0,55.48169310870151,49.76772761055384,58.861327175791665,57.31999003547978,53.458926223948986,55.974215441003984
925.0,55.51994341776656,49.201980040110776,58.988370716304,57.4176686927213,53.19030114531706,56.00343218788132
950.0,55.60363308525374,48.83444646892095,59.28837071630401,57.59982646195159,52.9506925486449,56.15191502565995
975.0,55.412460588429845,48.28478868345142,59.54514598548649,57.821347715871546,52.79514569579661,56.25627463809469
1000.0,55.60928348802975,48.36196740516443,60.017831087986146,58.414612186463664,53.081349998939096,56.691328165508686
1030.0,55.98290380983729,48.52115062494898,60.5735652482875,59.13868283577067,53.7854346873011,57.27224353475693
1060.0,56.06318754045865,48.11383630775267,60.92986670356438,59.63515844791703,54.37668361974041,57.635543608047776
1090.0,56.27800875747959,47.560067791709876,61.28607594936708,60.24263494969801,55.11834625889329,58.073333280615124
1120.0,56.317023092642124,46.98760130417141,61.471930438469464,60.64125391365673,55.64789247414233,58.335148231420824
1150.0,56.15156036684015,47.180544918323925,61.57193043846946,60.87378247078535,55.941850507646855,58.471154163333175
1180.0,55.9251013308804,47.39798003574841,61.486075949367084,60.83123346602509,55.905648555376935,58.39445149788734
1220.0,55.814522525158374,47.60919629336089,61.3292153447049,60.77417630768128,55.852053836382886,58.295748706317006
1250.0,55.488267984925976,47.62661096114531,61.08607594936709,60.68632826149361,55.7446146655498,58.11904104732749
1280.0,54.92823286185371,47.32674400830707,60.64350044072524,60.45270947210867,55.509793253604904,57.76740846168183
1320.0,54.48829979015998,47.24411117086972,60.34416478189346,60.437909383769444,55.43271620529688,57.59217152810181
1360.0,53.7015193927836,47.248022922562704,59.857738703285996,60.18926757135829,55.254491909367495,57.21843434232961
1400.0,53.016961464093065,47.13190742094107,59.372920410997644,59.74957276829583,54.96289070020499,56.766984187820846
1450.0,52.601065398288746,47.065404784080336,59.090970943103294,59.39383790396611,54.853902599209825,56.472913611607716
1500.0,52.27332178547076,47.15434269141503,59.005047043743936,59.317712261327166,55.12442185431673,56.42662925659848
1550.0,51.617066201971944,47.13988569296155,58.97549952760986,59.12285076114599,55.32369163712311,56.32365837179149
1600.0,51.80317449615169,46.8653632754414,58.73216137528005,58.7893545085258,55.34562263345126,56.1193962584834
1650.0,51.89898222444612,46.478461571528136,58.82345003065793,58.43289325626453,55.534921294050584,56.056812152648966
1700.0,51.919593895132316,46.74211479939678,59.202430987921495,58.18197446393321,55.5438265536992,56.13082419782115
1750.0,52.20782782754066,47.66504584456825,59.644096113093134,58.1199917874117,55.56634893552435,56.34456589937296
1800.0,52.196437076262164,48.15679327432117,60.01918549699503,58.250753358543825,55.79632803611427,56.59724808843894
1850.0,52.34750560523076,48.04704109173891,60.47454812864225,58.38466614038081,55.94353276855447,56.872246197024616
1900.0,52.98760130417143,48.32153858071391,60.925318706587014,58.58482113397191,56.050034373825845,57.20819341950057
1950.0,53.771421965063105,49.46926223966225,61.40994581032921,58.95435711761974,56.21948471229519,57.65686925821473
2000.0,53.6808081380073,51.08343369325565,62.199715355435906,59.54473052037287,56.50784077324929,58.28552985830283
2060.0,53.29590092891089,51.61663882881468,62.625318706587,59.96106601990636,56.43082959019468,58.59706715677002
2120.0,52.84035526221448,51.78183532100082,62.969439912767506,60.35995764406312,56.50594106544235,58.87395695303949
2180.0,52.50664792163641,51.43523275607746,63.02531870658701,60.44211644172078,56.28341880544239,58.87201790452031
2240.0,52.55556290103292,51.50078628914668,62.825318706587005,60.18052477628829,55.73637176804261,58.639294905643204
2300.0,52.182995105271466,51.480015383317586,62.59522184242537,60.06036173239216,55.258073488280225,58.417597700257296
2360.0,51.49798003574842,51.28696876713307,62.34099355321997,59.79999896548964,54.78541325785151,58.12379123657325
2400.0,50.53706418437927,50.38773566628672,61.987337319026146,59.436557512007006,54.234575166140864,57.70297555514441
2500.0,50.45273006756759,48.93575972812739,61.31548271628335,58.80580784324204,53.390100096525266,57.02586478619133
2580.0,50.80512294295374,48.335497764107366,60.846135317946185,58.21672377388507,52.633907827959526,56.532655289703406
2650.0,51.25840831801762,47.75853026123564,60.39312841641313,57.66190699382032,51.78830681958765,56.069591261635345
2720.0,51.43833858014208,47.24262752252782,60.29040695899376,57.38295931761754,51.300256988015924,55.896612314238844
2800.0,51.49474661260577,46.36233030079347,60.52123642932529,57.42879929547393,51.120767640652666,56.008674348877186
2900.0,51.65314600796558,46.23542672317762,60.56209805045376,57.42578092892385,50.923653625569365,56.02719753227603
3000.0,51.63194260298405,45.98251163357431,60.71548271628334,57.46025297787441,50.7620426645504,56.108206039793494
3070.0,51.578563946343884,45.82079130950081,60.69040695899377,57.41287910055363,50.55549964240152,56.06200033176605
