Freq "Ceiling Bounce"
22.4 6.653000681411243
23.0 7.517391209560458
23.6 8.309208987314918
24.0 8.987626330559522
25.0 9.802362638305823
25.8 10.706999340573645
26.5 11.706999340573645
27.2 12.943285312385939
28.0 14.065088899531048
29.0 15.184422334247898
30.0 16.248792855715095
30.7 17.20219272776862
31.5 18.18995316360909
32.5 19.470135366011704
33.5 20.51043669716276
34.5 21.61854490744085
35.5 22.801773019180473
36.5 23.642155015611507
37.5 24.562394770364392
38.7 25.414983820114713
40.0 26.42990957385146
41.2 27.37106744273919
42.5 28.40261155895365
43.7 29.332572180465576
45.0 30.345767194384706
46.2 31.70076749445562
47.5 32.90306957104252
48.7 34.110077997802904
50.0 35.34680983520815
51.5 36.65380974359448
53.0 37.953809743594434
54.5 39.253809743594445
56.0 40.4840783937255
58.0 41.84680983520815
60.0 43.010077997802924
61.5 44.2054240073266
63.0 45.33746771551314
65.0 46.46769521305295
67.0 47.43513059177984
69.0 48.40076749445561
71.0 49.30076749445561
73.0 50.033589826879975
75.0 50.73358982687998
77.5 51.33358982687997
80.0 51.766921851160504
82.5 52.133589826879955
85.0 52.3669218511605
87.5 52.43358982687997
90.0 52.43358982687997
92.5 52.40076749445562
95.0 52.20076749445562
97.5 52.0022846139602
100.0 51.8022846139602
103.0 51.56845083805433
106.0 51.46845083805432
109.0 51.43435140868503
112.0 51.56845083805433
115.0 51.83513059177983
118.0 52.23513059177982
122.0 52.60306957104251
125.0 53.03513059177985
128.0 53.435130591779824
132.0 54.003069571042516
136.0 54.603069571042525
140.0 55.168450838054326
145.0 55.668450838054326
150.0 55.96845083805432
155.0 56.10076749445561
160.0 56.000767494455616
165.0 55.80076749445561
170.0 55.56845083805433
175.0 55.268450838054335
180.0 55.06845083805432
185.0 55.20306957104252
190.0 55.668450838054326
195.0 56.36845083805433
200.0 57.003069571042516
206.0 57.60306957104251
212.0 58.03513059177985
218.0 58.26845083805432
224.0 58.30076749445561
230.0 58.33435140868502
236.0 58.500767494455616
240.0 58.60076749445561
250.0 58.70076749445562
258.0 58.73513059177982
265.0 58.73513059177982
272.0 58.83513059177983
280.0 59.03513059177983
290.0 59.103069571042525
300.0 59.03821129888742
307.0 58.90690501035459
315.0 58.84283030471974
325.0 58.97928732607433
335.0 59.28623512455238
345.0 59.62402487026023
355.0 59.86588846059688
365.0 60.07662798253905
375.0 60.24898359150842
387.0 60.22179738688894
400.0 60.19506458035829
412.0 60.168780339967896
425.0 60.002611558953646
437.0 59.80261155895364
450.0 59.66283617001537
462.0 59.489156301296404
475.0 59.343148261094356
487.0 59.2096325668162
500.0 59.08888547155003
515.0 58.89723682439924
530.0 58.7656326896099
545.0 58.549421814740285
560.0 58.18382160833151
580.0 57.7467871964985
600.0 57.32312034399382
615.0 56.66061809080708
630.0 55.911153157316335
650.0 55.452187612924064
670.0 55.19723594431542
690.0 55.25657014803855
710.0 55.38681963215333
730.0 55.495617159334415
750.0 55.32285985267755
775.0 55.35959385611932
800.0 55.26493035341096
825.0 55.10174601124771
850.0 54.97089600007291
875.0 54.64507194826726
900.0 54.081651661186754
925.0 53.51590409074369
950.0 53.148370519553865
975.0 52.59871273408433
1000.0 52.67589145579734
1030.0 52.83507467558189
1060.0 52.427760358385584
1090.0 51.87399184234279
1120.0 51.301525354804326
1150.0 51.49446896895684
1180.0 51.711904086381324
1220.0 51.9231203439938
1250.0 51.94053501177822
1280.0 51.64066805893998
1320.0 51.558035221502635
1360.0 51.56194697319562
1400.0 51.44583147157398
1450.0 51.37932883471325
1500.0 51.468266742047945
1550.0 51.45380974359446
1600.0 51.179287326074316
1650.0 50.79238562216105
1700.0 51.056038850029694
1750.0 51.97896989520116
1800.0 52.47071732495408
1850.0 52.360965142371825
1900.0 52.635462631346826
1950.0 53.78318629029516
2000.0 55.39735774388856
2060.0 55.93056287944759
2120.0 56.09575937163373
2180.0 55.749156806710374
2240.0 55.814710339779595
2300.0 55.7939394339505
2360.0 55.60089281776598
2400.0 54.701659716919636
2500.0 53.2496837787603
2580.0 52.64942181474028
2650.0 52.072454311868555
2720.0 51.55655157316073
2800.0 50.67625435142638
2900.0 50.54935077381053
3000.0 50.296435684207225
3070.0 50.134715360133725
3150.0 49.932994897033396
3250.0 49.41333870896494
3350.0 49.01764155155482
3450.0 48.836461139871616
3550.0 48.5726935744738
3650.0 48.02750889663555
3750.0 47.8205918270593
3870.0 47.94242955892727
4000.0 48.01146471868876
4120.0 47.91067428974932
4250.0 47.82045201940025
4370.0 47.92503415250728
4500.0 47.68752389906952
4620.0 47.58418429607714
4750.0 47.60609330848389
4870.0 47.093174875068925
5000.0 46.61152326304965
5150.0 46.1849349246085
5300.0 45.83746771551316
5450.0 45.32285902893764
5600.0 45.194093472559075
5800.0 45.445741578897696
6000.0 46.004448137090606
6150.0 47.05651982392611
6300.0 48.32350288235112
6500.0 49.359858522438316
6700.0 50.07924785786042
6900.0 50.906286950608575
7100.0 51.63150987525577
7300.0 52.16162697213336
7500.0 52.565964815966794
7750.0 52.745550167734265
8000.0 52.83517618282701
8250.0 52.908670663238695
8500.0 52.98528746757074
8750.0 52.86373727955804
9000.0 52.88655400819434
9250.0 52.794601300370786
9500.0 52.59772813777674
9750.0 52.47922807378421
10000.0 52.23422589269758
10300.0 51.81690208684783
10600.0 51.41605660311937
10900.0 50.847002571513755
11200.0 50.21942060492995
11500.0 49.405795165270106
11800.0 48.273218584394186
12200.0 46.87208533927107
12500.0 45.41299747465915
12800.0 43.92330917819011
13200.0 42.942939793601894
13600.0 42.99825001362086
14000.0 43.608541211011485
14500.0 44.855290375032126
15000.0 46.06949218884523
15500.0 47.110812004161204
16000.0 47.326565018050815
16500.0 47.496362486424204
17000.0 47.29652302886953
17500.0 46.8986600387625
18000.0 46.04968606379171
18500.0 44.911118181423745
19000.0 43.20885781702779
19500.0 40.63056287944758
