Freq "Front Wall Bounce"
22.4 9.985062047630642
23.0 10.522001133643109
23.6 11.044508936009017
24.0 11.520090885564606
25.0 12.019263392872723
25.8 12.619518835849313
26.5 13.257637584108274
27.2 14.033325036981672
28.0 14.739665555413644
29.0 15.445491625345689
30.0 16.24288927412571
30.7 16.943276597872945
31.5 17.701153669965983
32.5 18.68800059422447
33.5 19.5366712903892
34.5 20.531958540549034
35.5 21.640301816459335
36.5 22.590899492176966
37.5 23.619866981948583
38.7 24.676314507238892
40.0 25.962119164250858
41.2 27.13003187643114
42.5 28.42534421256827
43.7 29.552078568447605
45.0 30.637100618344085
46.2 32.19149311830365
47.5 33.391493118303636
48.7 34.60801261859641
50.0 35.835476780844466
51.5 37.06276835451023
53.0 38.34882614377927
54.5 39.518093873591276
56.0 40.67666594957763
58.0 41.91809387359127
60.0 42.97398778025423
61.5 44.044131566791584
63.0 45.08651449586096
65.0 46.15742449135815
67.0 47.085854489102395
69.0 47.98585448910239
71.0 48.85742449135814
73.0 49.60065786069425
75.0 50.300657860694265
77.5 50.92946066855591
80.0 51.40065786069426
82.5 51.80065786069424
85.0 52.086514495860946
87.5 52.20065786069426
90.0 52.258088832526376
92.5 52.22880715674528
95.0 52.12880715674529
97.5 51.928807156745286
100.0 51.80065786069424
103.0 51.628807156745275
106.0 51.528807156745295
109.0 51.628807156745275
112.0 51.82880715674528
115.0 52.1716627539189
118.0 52.62880715674529
122.0 53.10065786069425
125.0 53.6
128.0 54.1
132.0 54.65742449135815
136.0 55.199999999999996
140.0 55.757424491358144
145.0 56.15742449135815
150.0 56.4
155.0 56.4
160.0 56.34313939533782
165.0 56.199999999999996
170.0 56.00000000000001
175.0 55.79999999999999
180.0 55.699999999999996
185.0 55.79999999999999
190.0 56.29999999999999
195.0 56.9
200.0 57.6
206.0 58.1716627539189
212.0 58.6
218.0 58.79999999999999
224.0 58.79999999999999
230.0 58.79999999999999
236.0 58.97166275391891
240.0 59.14313939533782
250.0 59.371662753918905
258.0 59.543139395337825
265.0 59.57166275391891
272.0 59.74313939533781
280.0 59.9861845050195
290.0 60.1716627539189
300.0 60.215083142438836
307.0 60.11508314243884
315.0 59.98748929892043
325.0 60.087489298920424
335.0 60.38748929892041
345.0 60.88748929892042
355.0 61.34379075419729
365.0 61.6716627539189
375.0 61.91475531529209
387.0 61.98585448910237
400.0 62.15742449135815
412.0 62.29999999999999
425.0 62.399999999999984
437.0 62.24313939533781
450.0 62.12979499755904
462.0 62.073972538923705
475.0 62.26204375999246
487.0 62.58086845464633
500.0 62.7652871599955
515.0 62.7765897732183
530.0 62.904894993736214
545.0 63.26035311823197
560.0 63.543790754197296
580.0 63.629460668555915
600.0 63.686514495860955
615.0 63.586514495860946
630.0 63.30065786069425
650.0 63.10065786069425
670.0 62.91508314243884
690.0 62.68618450501949
710.0 62.4861845050195
730.0 62.45775667464532
750.0 62.231116840987276
775.0 62.15000634017071
800.0 62.37848478147017
825.0 62.67848478147017
850.0 62.90743452896758
875.0 63.0336698070903
900.0 63.17525122642457
925.0 63.30229476693692
950.0 63.602294766936915
975.0 63.85907003611941
1000.0 64.33175513861906
1030.0 64.88748929892043
1060.0 65.24379075419728
1090.0 65.6
1120.0 65.78585448910235
1150.0 65.88585448910237
1180.0 65.79999999999998
1220.0 65.64313939533781
1250.0 65.4
1280.0 64.95742449135815
1320.0 64.65808883252637
1360.0 64.1716627539189
1400.0 63.686844461630564
1450.0 63.404894993736214
1500.0 63.318971094376856
1550.0 63.28942357824278
1600.0 63.046085425912956
1650.0 63.13737408129085
1700.0 63.5163550385544
1750.0 63.958020163726026
1800.0 64.33310954762791
1850.0 64.78847217927515
1900.0 65.2392427572199
1950.0 65.72386986096214
2000.0 66.51363940606879
2060.0 66.93924275721992
2120.0 67.28336396340043
2180.0 67.33924275721992
2240.0 67.13924275721993
2300.0 66.90914589305828
2360.0 66.65491760385288
2400.0 66.30126136965904
2500.0 65.62940676691628
2580.0 65.16005936857911
2650.0 64.70705246704605
2720.0 64.60433100962669
2800.0 64.8351604799582
2900.0 64.87602210108665
3000.0 65.02940676691625
3070.0 65.00433100962667
3150.0 64.90126136965907
3250.0 64.7600593685791
3350.0 64.42321085894986
3450.0 64.15461949560506
3550.0 63.79867242696347
3650.0 63.54670449332895
3750.0 63.22285588808359
3870.0 62.92285588808361
4000.0 62.75499604273116
4120.0 62.59531154302778
4250.0 62.50631904730496
4370.0 62.3228558880836
4500.0 62.1228558880836
4620.0 61.78878541806106
4750.0 61.56570644684823
4870.0 61.31561744083198
5000.0 60.99320444173501
5150.0 60.77118930448193
5300.0 60.500822709293935
5450.0 60.100822709293915
5600.0 59.73464221114866
5800.0 59.43191816260323
6000.0 59.23191816260323
6150.0 59.08457291676027
6300.0 58.864459328789984
6500.0 58.484572916760264
6700.0 58.084572916760244
6900.0 57.83191816260322
7100.0 57.60505902909265
7300.0 57.40082270929393
7500.0 57.12219201319984
7750.0 56.87576780780744
8000.0 56.73173632649091
8250.0 56.69009756747594
8500.0 56.642188656887306
8750.0 56.72646771732055
9000.0 57.01104945368281
9250.0 57.27179923667699
9500.0 57.48700370314911
9750.0 57.84440179662639
10000.0 58.05340198605969
10300.0 58.23156124869245
10600.0 58.351444608307894
10900.0 58.34832155317587
11200.0 58.33385565188551
11500.0 58.288907516940334
11800.0 58.028599049111484
12200.0 57.668383855370145
12500.0 57.18908722963038
12800.0 56.76120041263558
13200.0 56.3670777919964
13600.0 56.12839496623625
14000.0 56.02954496442515
14500.0 56.16343086545151
15000.0 56.491024518707356
15500.0 56.77593243275739
16000.0 56.87006703240872
16500.0 57.10305406338504
17000.0 57.07912837915206
17500.0 56.85546700882211
18000.0 56.491931894995254
18500.0 55.97655476615673
19000.0 55.23170146047372
19500.0 54.52532928192391
