Freq "Total Early Reflection"
22.4 4.39519432741762
23.0 4.991407819264005
23.6 5.58885757638226
24.0 6.089516596568366
25.0 6.688382333931436
25.8 7.346117188387275
26.5 8.065023258161695
27.2 8.954553535485196
28.0 9.756042821664671
29.0 10.590999576793799
30.0 11.431887978642699
30.7 12.21894393881437
31.5 13.061317901650831
32.5 14.12304558373365
33.5 15.043012356790179
34.5 16.10264030590759
35.5 17.25306031519353
36.5 18.182877862163487
37.5 19.210472480289617
38.7 20.24241460177189
40.0 21.485278837422193
41.2 22.628361464675386
42.5 23.87004887243271
43.7 24.988304411316342
45.0 26.086553750818304
46.2 27.589602687811755
47.5 28.82452534486095
48.7 30.056302115994562
50.0 31.27996156262345
51.5 32.533733363840476
53.0 33.79900483547602
54.5 34.98824215662311
56.0 36.14555797134472
58.0 37.40036503643112
60.0 38.4668840114607
61.5 39.565590353592206
63.0 40.605203721307326
65.0 41.69601524087964
67.0 42.6149956331215
69.0 43.54003239044537
71.0 44.42204784311537
73.0 45.169942575097345
75.0 45.86209196417715
77.5 46.480723721523
80.0 46.944972607759986
82.5 47.34147509563372
85.0 47.61658204792884
87.5 47.744368271879274
90.0 47.79710276765065
92.5 47.777985470068735
95.0 47.647655757865685
97.5 47.47396413540043
100.0 47.309177794627594
103.0 47.14258008009764
106.0 47.04550209518468
109.0 47.08930278599144
112.0 47.29437152431168
115.0 47.619564969002816
118.0 48.06847536379866
122.0 48.52338026398356
125.0 49.00974132433908
128.0 49.51567031908424
132.0 50.07001923820636
136.0 50.67770055227559
140.0 51.235018627602024
145.0 51.680536608399855
150.0 51.93465325125431
155.0 52.00562338048031
160.0 51.91039095895935
165.0 51.74464264094453
170.0 51.52476886886442
175.0 51.294921418589205
180.0 51.13100727631792
185.0 51.26718724501439
190.0 51.7599826381858
195.0 52.421083290999526
200.0 53.11027747261759
206.0 53.714950080690336
212.0 54.14498158887243
218.0 54.34794718080693
224.0 54.346125833789905
230.0 54.33177270031097
236.0 54.48019368799927
240.0 54.61984190782244
250.0 54.796703007162485
258.0 54.90344635926868
265.0 54.91844429627748
272.0 55.076977816859774
280.0 55.31570528043746
290.0 55.4539026988351
300.0 55.438196638757596
307.0 55.25406455229082
315.0 55.009248575242275
325.0 54.97994864638343
335.0 55.24646037390668
345.0 55.69454123480623
355.0 56.12292840161309
365.0 56.452759647265346
375.0 56.67263668766417
387.0 56.777321131764445
400.0 56.95194147277389
412.0 57.108246543937916
425.0 57.11211897124243
437.0 56.95044780151115
450.0 56.763464990665064
462.0 56.639477784468106
475.0 56.68575795892969
487.0 56.8797514379013
500.0 56.95012613454876
515.0 56.93517370119259
530.0 57.04264219983323
545.0 57.292709487590024
560.0 57.442680219389054
580.0 57.45203249085055
600.0 57.500800356887815
615.0 57.380952247243606
630.0 57.07712915296434
650.0 56.84183213519976
670.0 56.632866286312286
690.0 56.418239535047626
710.0 56.30640631637326
730.0 56.31383119558709
750.0 56.07097197221409
775.0 55.88794581874655
800.0 55.937069781954456
825.0 56.098221738531954
850.0 56.12361049602047
875.0 56.03164084003168
900.0 55.974215441003984
925.0 56.00343218788132
950.0 56.15191502565995
975.0 56.25627463809469
1000.0 56.691328165508686
1030.0 57.27224353475693
1060.0 57.635543608047776
1090.0 58.073333280615124
1120.0 58.335148231420824
1150.0 58.471154163333175
1180.0 58.39445149788734
1220.0 58.295748706317006
1250.0 58.11904104732749
1280.0 57.76740846168183
1320.0 57.59217152810181
1360.0 57.21843434232961
1400.0 56.766984187820846
1450.0 56.472913611607716
1500.0 56.42662925659848
1550.0 56.32365837179149
1600.0 56.1193962584834
1650.0 56.056812152648966
1700.0 56.13082419782115
1750.0 56.34456589937296
1800.0 56.59724808843894
1850.0 56.872246197024616
1900.0 57.20819341950057
1950.0 57.65686925821473
2000.0 58.28552985830283
2060.0 58.59706715677002
2120.0 58.87395695303949
2180.0 58.87201790452031
2240.0 58.639294905643204
2300.0 58.417597700257296
2360.0 58.12379123657325
2400.0 57.70297555514441
2500.0 57.02586478619133
2580.0 56.532655289703406
2650.0 56.069591261635345
2720.0 55.896612314238844
2800.0 56.008674348877186
2900.0 56.02719753227603
3000.0 56.108206039793494
3070.0 56.06200033176605
3150.0 55.95618633164164
3250.0 55.75795923042683
3350.0 55.38591050289988
3450.0 55.09987924332871
3550.0 54.73879082887283
3650.0 54.45351472643721
3750.0 54.05685830902744
3870.0 53.71139172691516
4000.0 53.5002374946551
4120.0 53.30472122358038
4250.0 53.19199896411798
4370.0 53.01404968441559
4500.0 52.76690169627157
4620.0 52.39248935920465
4750.0 52.16340304647232
4870.0 51.85794480091864
5000.0 51.50723990018158
5150.0 51.219464705452616
5300.0 50.90023753392729
5450.0 50.45700135264807
5600.0 50.03877100921019
5800.0 49.71480985595904
6000.0 49.506290278930855
6150.0 49.40970157446001
6300.0 49.26499995835422
6500.0 49.02516153727236
6700.0 48.7732138597678
6900.0 48.67613136834189
7100.0 48.62309391935229
7300.0 48.59878297319157
7500.0 48.504991857767045
7750.0 48.39607551899163
8000.0 48.35763222540445
8250.0 48.37906189652163
8500.0 48.36958363721268
8750.0 48.38722750563699
9000.0 48.60907144152193
9250.0 48.718603688417964
9500.0 48.784461900988696
9750.0 48.96743255323279
10000.0 49.003036891041624
10300.0 49.001635041875026
10600.0 48.99259070950976
10900.0 48.866011281731865
11200.0 48.72059144061394
11500.0 48.55757297156695
11800.0 48.209577750029645
12200.0 47.75079765117719
12500.0 47.18896861675106
12800.0 46.71818915949546
13200.0 46.39680744785864
13600.0 46.33504946360578
14000.0 46.522424590416314
14500.0 47.140197623318905
15000.0 47.92925673593886
15500.0 48.46107735220864
16000.0 48.601249309724814
16500.0 48.68586184636866
17000.0 48.57080806515483
17500.0 48.287842331254545
18000.0 47.77603799936005
18500.0 46.93202497088681
19000.0 45.75249748338087
19500.0 44.67165546454789
