Freq "Total Early Reflection"
22.4 8.70911837805054
23.0 9.305331869896925
23.6 9.90278162701518
24.0 10.403440647201286
25.0 11.002306384564356
25.8 11.660041239020195
26.5 12.378947308794615
27.2 13.268477586118117
28.0 14.069966872297563
29.0 14.904923627426719
30.0 15.74581202927562
30.7 16.53286798944729
31.5 17.375241952283723
32.5 18.43696963436654
33.5 19.3569364074231
34.5 20.416564356540512
35.5 21.56698436582642
36.5 22.496801912796407
37.5 23.524396530922537
38.7 24.55633865240481
40.0 25.799202888055113
41.2 26.942285515308278
42.5 28.18397292306563
43.7 29.302228461949262
45.0 30.400477801451224
46.2 31.903526738444647
47.5 33.13844939549387
48.7 34.37022616662748
50.0 35.59388561325634
51.5 36.847657414473396
53.0 38.112928886108925
54.5 39.30216620725603
56.0 40.45948202197763
58.0 41.714289087064024
60.0 42.780808062093605
61.5 43.87951440422511
63.0 44.919127771940246
65.0 46.00993929151256
67.0 46.92891968375441
69.0 47.85395644107829
71.0 48.73597189374829
73.0 49.483866625730265
75.0 50.17601601481005
77.5 50.79464777215592
80.0 51.25889665839289
82.5 51.655399146266625
85.0 51.93050609856174
87.5 52.05829232251218
90.0 52.11102681828357
92.5 52.09190952070163
95.0 51.96157980849859
97.5 51.78788818603332
100.0 51.6231018452605
103.0 51.45650413073054
106.0 51.3594261458176
109.0 51.40322683662436
112.0 51.608295574944584
115.0 51.933489019635736
118.0 52.38239941443158
122.0 52.83730431461647
125.0 53.323665374972
128.0 53.82959436971715
132.0 54.383943288839255
136.0 54.991624602908495
140.0 55.54894267823493
145.0 55.994460659032775
150.0 56.24857730188722
155.0 56.319547431113214
160.0 56.22431500959227
165.0 56.05856669157745
170.0 55.83869291949734
175.0 55.608845469222125
180.0 55.44493132695083
185.0 55.58111129564731
190.0 56.0739066888187
195.0 56.73500734163243
200.0 57.42420152325051
206.0 58.02887413132324
212.0 58.45890563950535
218.0 58.661871231439854
224.0 58.660049884422826
230.0 58.64569675094388
236.0 58.79411773863219
240.0 58.93376595845533
250.0 59.11062705779538
258.0 59.2173704099016
265.0 59.2323683469104
272.0 59.39090186749268
280.0 59.62962933107038
290.0 59.76782674946802
300.0 59.752120689390516
307.0 59.56798860292373
315.0 59.32317262587518
325.0 59.29387269701633
335.0 59.5603844245396
345.0 60.00846528543915
355.0 60.43685245224598
365.0 60.76668369789824
375.0 60.98656073829708
387.0 61.09124518239734
400.0 61.26586552340678
412.0 61.42217059457084
425.0 61.42604302187535
437.0 61.26437185214406
450.0 61.077389041297984
462.0 60.953401835101026
475.0 60.99968200956261
487.0 61.19367548853422
500.0 61.26405018518165
515.0 61.24909775182548
530.0 61.35656625046614
545.0 61.606633538222944
560.0 61.756604270021946
580.0 61.765956541483455
600.0 61.814724407520735
615.0 61.694876297876526
630.0 61.39105320359726
650.0 61.155756185832665
670.0 60.946790336945206
690.0 60.732163585680546
710.0 60.62033036700618
730.0 60.62775524622
750.0 60.384896022846995
775.0 60.20186986937946
800.0 60.250993832587376
825.0 60.412145789164846
850.0 60.43753454665339
875.0 60.34556489066458
900.0 60.28813949163689
925.0 60.31735623851424
950.0 60.46583907629286
975.0 60.57019868872761
1000.0 61.00525221614158
1030.0 61.58616758538985
1060.0 61.94946765868068
1090.0 62.38725733124803
1120.0 62.64907228205373
1150.0 62.785078213966095
1180.0 62.708375548520245
1220.0 62.60967275694993
1250.0 62.4329650979604
1280.0 62.08133251231475
1320.0 61.906095578734714
1360.0 61.532358392962514
1400.0 61.08090823845375
1450.0 60.786837662240636
1500.0 60.74055330723139
1550.0 60.63758242242438
1600.0 60.43332030911632
1650.0 60.370736203281886
1700.0 60.44474824845404
1750.0 60.658489950005865
1800.0 60.911172139071844
1850.0 61.18617024765752
1900.0 61.52211747013347
1950.0 61.970793308847654
2000.0 62.59945390893572
2060.0 62.91099120740294
2120.0 63.18788100367241
2180.0 63.18594195515323
2240.0 62.953218956276125
2300.0 62.73152175089019
2360.0 62.43771528720617
2400.0 62.01689960577732
2500.0 61.33978883682425
2580.0 60.846579340336326
2650.0 60.383515312268266
2720.0 60.210536364871764
2800.0 60.32259839951009
2900.0 60.34112158290895
3000.0 60.4221300904264
3070.0 60.375924382398956
3150.0 60.270110382274545
3250.0 60.07188328105972
3350.0 59.6998345535328
3450.0 59.41380329396163
3550.0 59.052714879505736
3650.0 58.76743877707013
3750.0 58.37078235966036
3870.0 58.02531577754808
4000.0 57.81416154528801
4120.0 57.61864527421327
4250.0 57.5059230147509
4370.0 57.327973735048495
4500.0 57.08082574690449
4620.0 56.70641340983757
4750.0 56.477327097105224
4870.0 56.17186885155156
5000.0 55.8211639508145
5150.0 55.53338875608552
5300.0 55.214161584560195
5450.0 54.77092540328096
5600.0 54.35269505984311
5800.0 54.028733906591945
6000.0 53.820214329563775
6150.0 53.72362562509293
6300.0 53.57892400898712
6500.0 53.33908558790528
6700.0 53.087137910400706
6900.0 52.9900554189748
7100.0 52.93701796998521
7300.0 52.912707023824474
7500.0 52.81891590839994
7750.0 52.709999569624536
8000.0 52.67155627603736
8250.0 52.69298594715453
8500.0 52.6835076878456
8750.0 52.70115155626991
9000.0 52.92299549215483
9250.0 53.032527739050884
9500.0 53.098385951621616
9750.0 53.28135660386568
10000.0 53.316960941674544
10300.0 53.31555909250793
10600.0 53.30651476014267
10900.0 53.17993533236477
11200.0 53.03451549124686
11500.0 52.871497022199854
11800.0 52.52350180066254
12200.0 52.06472170181011
12500.0 51.50289266738397
12800.0 51.032113210128365
13200.0 50.71073149849156
13600.0 50.64897351423868
14000.0 50.83634864104922
14500.0 51.45412167395181
15000.0 52.24318078657176
15500.0 52.775001402841546
16000.0 52.915173360357734
16500.0 52.99978589700155
17000.0 52.884732115787735
17500.0 52.60176638188745
18000.0 52.089962049992955
18500.0 51.24594902151973
19000.0 50.06642153401376
19500.0 48.98557951518081
