Freq "Listening Window"
20.5078 63.82857192979769
21.9727 64.99832312339784
23.4375 66.32799862692572
24.9023 67.15106492357076
26.3672 67.9662287083445
27.832 68.89112445458527
29.2969 69.72941496639714
30.7617 70.46456619595601
32.2266 71.18973554530459
33.6914 71.88890107086985
35.1563 72.61224227523516
36.6211 73.19320519983253
38.0859 73.80990234844901
39.5508 74.37587643550017
41.0156 74.95196145723482
42.4805 75.42129978799083
43.9453 75.92918186608865
45.4102 76.44377468352049
46.875 76.97974553448347
48.3398 77.27603502602012
51.2695 77.95805970108682
52.7344 78.30610200887729
54.1992 78.59617749262299
55.6641 78.86048638775922
58.5938 79.36709228020995
60.0586 79.57712357589159
62.9883 79.96740112148139
64.4531 80.08089882209326
67.3828 80.29157383895661
68.8477 80.45169327333562
71.7773 80.7276017995891
74.707 80.93220779800134
77.6367 80.98628117581607
79.1016 81.06150662930163
82.0313 81.19634419736883
84.9609 81.29675653135358
87.8906 81.1537858423772
90.8203 80.87444108315944
95.2148 81.62268762350094
98.1445 81.26286203030193
101.074 81.30122402696294
105.469 81.27048055328012
108.398 81.46630569700349
112.793 81.62722921908907
117.188 81.58362206961225
120.117 81.7599606390335
124.512 81.81995434526398
128.906 81.75390879533201
133.301 81.5960282350025
139.16 81.3610855202711
143.555 81.39977091489571
147.949 81.37076644134139
153.809 81.59110354549075
159.668 81.85415284000418
165.527 81.77066544191266
171.387 81.73255810587558
177.246 81.65588163371397
183.105 81.49649116828223
188.965 81.62735565923735
196.289 81.86687996916847
203.613 81.83954289687836
210.938 81.90770695685437
218.262 81.90323426704127
225.586 81.99095922033226
232.91 82.21140617210617
241.699 82.18766862103148
250.488 82.39091918093696
259.277 82.51286434063259
268.066 82.06366041194119
276.855 82.15414780317694
287.109 82.13656275338352
297.363 82.25090793647088
307.617 82.62932460811182
319.336 82.77482900632053
329.59 82.85204937377054
341.309 82.05868766640961
353.027 82.22516072352249
366.211 82.48997001205404
379.395 82.93228270835897
392.578 83.49070199686369
405.762 83.63404112776671
420.41 83.86191437631523
435.059 83.06442644981185
451.172 83.43677127170638
465.82 83.35502662066219
483.398 81.9905304593833
499.512 83.79229334368618
517.09 84.41773265997925
536.133 84.7610871010152
555.176 85.23892628403253
574.219 85.69940953893213
594.727 85.63735878558968
615.234 86.47967030090452
637.207 86.53759415103177
659.18 86.68165670474411
682.617 86.51586985336601
707.52 86.41931718700555
732.422 85.86162546767473
757.324 85.89355177353868
785.156 85.76103385356305
811.523 85.66134333079434
840.82 85.54730860448551
870.117 85.6547112060403
900.879 85.74325882361951
933.105 86.28129500582806
965.332 86.23725260925613
1000.49 86.25451751563304
1035.64 85.89337269991499
1072.27 85.38930906214526
1108.89 84.76762368555202
1148.44 84.61237621237198
1189.45 84.55663911255223
1230.47 85.02904830964336
1274.41 85.04657641130807
1319.82 84.61304031030978
1366.7 84.26258254617622
1413.57 83.96352203147642
1463.38 83.66705475679414
1516.11 84.04097690671173
1568.85 84.607181079021
1624.51 84.19635683080735
1681.64 83.59368399837142
1741.7 83.88167875124772
1803.22 84.20997626921675
1866.21 84.09324012147387
1932.13 83.46277979752792
1999.51 83.37546131147363
2069.82 83.78282487380763
2143.07 83.37555430048127
2219.24 82.70309514220095
2296.88 83.45257659871395
2378.91 84.14337094461733
2462.4 83.78492764157443
2548.83 83.64199673334505
2639.65 84.1276607228239
2731.93 84.41085591089758
2828.61 84.31378785987707
2928.22 84.36755555471913
3030.76 84.07744618137941
3137.7 84.15481219053892
3249.02 83.87064445058202
3363.28 83.78551284790888
3481.93 83.78659190181342
3604.98 84.01896156270016
3732.42 83.756752537533
3864.26 83.84381320203111
4000.49 83.10178716387468
4141.11 82.96689193194752
4287.6 82.9295286983753
4438.48 83.30880169044352
4595.21 83.34682121585531
4756.35 83.65912839445387
4924.8 83.78190199679773
5097.66 83.55780224707088
5277.83 83.3631581374217
5463.87 82.60899919007623
5657.23 82.26605127496586
5856.45 81.99701318691527
6062.99 81.69315126393082
6276.86 81.52959189178448
6498.05 81.56989570595461
6726.56 81.42342059026788
6963.87 81.10932132409603
7209.96 80.71575421960559
7464.84 80.43285243030041
7727.05 80.59468153144043
7999.51 81.12106223041938
8282.23 81.73071440347294
8573.73 82.02787016765933
8876.95 82.00936656825768
9188.96 81.88887819687399
9514.16 81.84750906941643
9849.61 81.97655856362789
10196.8 82.14839983005827
10555.7 82.2356670721666
10927.7 82.15781426212247
11313.0 81.8415764103778
11712.9 81.27999559047717
12126.0 80.91162514639008
12553.7 80.95729046978603
12996.1 80.98346099474412
13454.6 81.08226928305606
13929.2 81.17287804414553
14419.9 81.0072328719683
14928.2 80.77861265490434
15455.6 80.46298475623713
16000.5 79.95043047547671
16564.5 79.40807819400051
17148.9 78.95019157583963
17752.4 78.4048728115755
18379.4 77.50933651210771
19026.9 76.46789886647288
19697.8 75.78528639958465
19999.5 75.5104847972165
