Freq "Sound Power"
20.5078 62.05705898865098
21.9727 63.19718164369729
23.4375 64.58101501882946
24.9023 65.40720800639794
26.3672 66.19891350594855
27.832 67.12400955491432
29.2969 67.92209815541365
30.7617 68.68771753536815
32.2266 69.43428735136872
33.6914 70.12264737303768
35.1563 70.83694771019016
36.6211 71.41844373371863
38.0859 72.07113795223825
39.5508 72.61823981529571
41.0156 73.25238648789991
42.4805 73.59419037312247
43.9453 74.13362058069357
45.4102 74.61327298758029
46.875 75.07957652750774
48.3398 75.43934253113848
51.2695 76.14237131076622
52.7344 76.48697858708529
54.1992 76.77048961092264
55.6641 77.07110658566535
58.5938 77.54447745680837
60.0586 77.76366019882092
62.9883 78.12104449340742
64.4531 78.23871325259339
67.3828 78.45144079390684
68.8477 78.59971886161688
71.7773 78.8241692523912
74.707 79.0497482973442
77.6367 79.11482872075628
79.1016 79.16552830872901
82.0313 79.22899792952107
84.9609 79.31107997589798
87.8906 79.30580475213868
90.8203 79.25253641854636
95.2148 79.4235945910625
98.1445 79.2394938476359
101.074 79.22135946298035
105.469 79.2078607363797
108.398 79.2874680872766
112.793 79.44002573975727
117.188 79.39064718571986
120.117 79.5245884000059
124.512 79.54535351074267
128.906 79.42239032560272
133.301 79.24344437641547
139.16 79.1399201118284
143.555 79.13254597359771
147.949 78.96435522885483
153.809 78.96435097736811
159.668 79.21383074178817
165.527 79.18660404733117
171.387 79.09229298747334
177.246 78.99720481819112
183.105 78.76518964131411
188.965 78.67670520983405
196.289 78.88594606175876
203.613 78.71769673346911
210.938 78.65738723292606
218.262 78.68380524506829
225.586 78.70949203587128
232.91 78.67392714743613
241.699 78.67106714304991
250.488 78.75870761051617
259.277 79.00573718710892
268.066 78.69425239202182
276.855 78.66287402816445
287.109 78.47953561437565
297.363 78.36752082394668
307.617 78.67531862256911
319.336 78.65105017772827
329.59 78.84574686624966
341.309 78.5560640477812
353.027 78.25229297385472
366.211 78.16692570583287
379.395 78.36074884264856
392.578 78.50542027955908
405.762 78.6455470511428
420.41 78.89245909037102
435.059 78.78051149633764
451.172 78.83568112996291
465.82 78.9957513775526
483.398 78.90655211594658
499.512 79.02495970685395
517.09 79.58629888424394
536.133 79.48013551096022
555.176 79.79220577099554
574.219 80.11877510724482
594.727 80.32838722097875
615.234 80.3200754521258
637.207 80.50636392612827
659.18 80.46082618240487
682.617 80.3099752614385
707.52 79.98540775413367
732.422 79.75507952845652
757.324 79.3993903886649
785.156 79.24638661784599
811.523 79.07579111813979
840.82 78.91336704659373
870.117 79.08656411746276
900.879 78.87269547916965
933.105 79.35099396411614
965.332 79.12460730376615
1000.49 79.09084812696946
1035.64 78.64215313317608
1072.27 78.29813347273364
1108.89 77.81690071203089
1148.44 77.67981274174035
1189.45 77.43264548509728
1230.47 77.5048918549944
1274.41 77.28501961348034
1319.82 76.95935821350444
1366.7 76.42759583985587
1413.57 76.07524504238381
1463.38 75.82144842072391
1516.11 75.94840070985441
1568.85 76.19307986740785
1624.51 75.83990744804908
1681.64 75.46497542689796
1741.7 75.62840411857816
1803.22 75.90685848605969
1866.21 76.12442746672058
1932.13 75.23564392890366
1999.51 75.32934193733966
2069.82 75.3139841993114
2143.07 75.20863952330929
2219.24 74.6834588569296
2296.88 75.17596019897152
2378.91 75.51304642525467
2462.4 75.22837171526476
2548.83 75.06944495968929
2639.65 75.35819524387976
2731.93 75.48449550154365
2828.61 75.66952249210932
2928.22 75.88994669528695
3030.76 75.92860766781992
3137.7 76.12347038933873
3249.02 76.2349107171227
3363.28 76.37473147593674
3481.93 76.60901241806013
3604.98 76.84305795511922
3732.42 76.8333209265308
3864.26 76.96778486860667
4000.49 76.45121740145893
4141.11 76.327480184692
4287.6 76.16221324442242
4438.48 75.98229061411203
4595.21 76.18703017636953
4756.35 76.30585885002736
4924.8 76.3460845964174
5097.66 76.4510264778631
5277.83 76.17728928187803
5463.87 75.85137111955945
5657.23 75.36602769004799
5856.45 74.97868114459
6062.99 74.8969296142893
6276.86 74.72279200259679
6498.05 74.30915386888584
6726.56 73.87250528939897
6963.87 73.23905704348616
7209.96 72.78701957415058
7464.84 72.65903841091045
7727.05 72.58124049967279
7999.51 72.55819172704292
8282.23 72.6937335027479
8573.73 72.63211718991036
8876.95 72.34740289827128
9188.96 72.00946729235453
9514.16 71.73368830319272
9849.61 71.57840077853206
10196.8 71.41886865918528
10555.7 71.25156644957154
10927.7 70.9580736124725
11313.0 70.61552050515806
11712.9 70.11190678822621
12126.0 69.84214885266437
12553.7 69.8356255197057
12996.1 69.76041286050594
13454.6 69.61190053616176
13929.2 69.40913836543577
14419.9 69.01622533769539
14928.2 68.51856193101496
15455.6 67.95895350451052
16000.5 67.32446188468838
16564.5 66.69011760083579
17148.9 66.05136932205563
17752.4 65.27090871939053
18379.4 64.12572296019674
19026.9 62.87304665473114
19697.8 61.890716367046224
19999.5 61.50036333401542
