Freq "Early Reflections"
20.5078 52.738874647575514
21.9727 54.949729289385616
23.4375 56.93880073558576
24.9023 59.13607823599965
26.3672 61.088497292877534
27.832 63.37369976373169
29.2969 65.263493842957
30.7617 67.20489529026395
32.2266 68.72348620247622
33.6914 70.06983021988555
35.1563 71.106069819326
36.6211 71.71804978846284
38.0859 72.23601639482504
39.5508 72.56320521715763
41.0156 72.77060283184704
42.4805 73.06947429487938
43.9453 73.20559469312403
45.4102 73.34846258381383
46.875 73.5709383602923
48.3398 73.74779858649735
51.2695 74.1420471236896
52.7344 74.33285373087448
54.1992 74.47154587761581
55.6641 74.66235773325602
58.5938 75.20767870761185
60.0586 75.42210901535506
62.9883 75.8741893540779
64.4531 76.08522744881904
67.3828 76.5665889222735
68.8477 76.79292838356683
71.7773 77.257485196013
74.707 77.80500571358591
77.6367 78.26039249788978
79.1016 78.43574619753959
82.0313 78.85709838275586
84.9609 79.29788782761939
87.8906 79.65908000048368
90.8203 80.05041014773661
95.2148 80.56909744474949
98.1445 80.91810683967425
101.074 81.2106103509201
105.469 81.68247737498318
108.398 82.04861450304338
112.793 82.42459809473154
117.188 82.70855579889046
120.117 82.92030739947164
124.512 83.25855339245075
128.906 83.36207965519885
133.301 83.49098423379313
139.16 83.61592447277833
143.555 83.6331098239927
147.949 83.6183563201357
153.809 83.57066841917135
159.668 83.66312147412248
165.527 83.68788758156052
171.387 83.55540683216994
177.246 83.39289220594873
183.105 83.13521017195718
188.965 82.96378682519
196.289 82.75176319139503
203.613 82.42223418583323
210.938 82.20222319071753
218.262 81.83406171189412
225.586 81.51422952752803
232.91 81.393760993999
241.699 80.63247607071547
250.488 80.22152109600641
259.277 82.50931165824605
268.066 83.48082498084078
276.855 83.62335261069492
287.109 83.00836494329168
297.363 82.53043497141893
307.617 82.27680703242872
319.336 81.78247904690745
329.59 81.66873234932314
341.309 81.28205548220521
353.027 80.86964954266476
366.211 80.67022012450865
379.395 81.11043073210503
392.578 81.06661613082362
405.762 80.65846354244319
420.41 81.27444360203222
435.059 81.00972845190611
451.172 80.9683669457676
465.82 81.11264416505587
483.398 81.17866133184322
499.512 81.02820953002221
517.09 81.31668571490013
536.133 80.60869854029579
555.176 81.10258379870018
574.219 81.32227210972842
594.727 80.58942975513014
615.234 80.82510513892709
637.207 81.11763076496361
659.18 81.38368853232545
682.617 81.6769535075926
707.52 82.45142692510517
732.422 83.10966395667059
757.324 83.5745620050605
785.156 84.15116672746036
811.523 83.78931857150079
840.82 83.27092488259312
870.117 82.83431303131782
900.879 83.01949369634096
933.105 82.63844894827717
965.332 82.40196152630577
1000.49 81.64545152099367
1035.64 80.91789541754675
1072.27 80.06035535538369
1108.89 79.5022044962822
1148.44 79.26890458864075
1189.45 79.01445639220607
1230.47 79.48029401252624
1274.41 79.64557228861004
1319.82 79.80686903735719
1366.7 79.76724275648972
1413.57 80.02954916022803
1463.38 80.10695591027981
1516.11 80.20315263755495
1568.85 79.9127299688808
1624.51 79.30037910030786
1681.64 78.84547591862146
1741.7 79.46629762249971
1803.22 79.35577066280023
1866.21 79.1264204942626
1932.13 79.37338527555299
1999.51 79.39839645545372
2069.82 79.18376479769934
2143.07 78.8788362471501
2219.24 78.92460078234309
2296.88 78.57388139933562
2378.91 78.81562289021268
2462.4 79.16125459257798
2548.83 78.22008099005443
2639.65 78.7878924323674
2731.93 78.6977118916861
2828.61 78.75680644607351
2928.22 79.04130401177507
3030.76 79.17853460236212
3137.7 79.39041840032918
3249.02 79.56580848397395
3363.28 80.11078577104071
3481.93 80.33709270341583
3604.98 80.70185976921859
3732.42 80.75438534536227
3864.26 81.07143820067606
4000.49 80.48830723809591
4141.11 80.61980808531506
4287.6 80.35916508390815
4438.48 80.6441782933984
4595.21 80.50782926158016
4756.35 80.77869838345588
4924.8 80.696898149907
5097.66 80.70178959431303
5277.83 81.11440819977979
5463.87 80.97441962110507
5657.23 80.99864582603999
5856.45 81.2541128884367
6062.99 81.07478499230831
6276.86 81.05276726113567
6498.05 81.0698988432685
6726.56 80.95437507191022
6963.87 80.94565535255563
7209.96 80.93715181015786
7464.84 80.91108780441091
7727.05 81.11113381262834
7999.51 81.14855099966327
8282.23 81.35423645502317
8573.73 81.28683884497804
8876.95 81.2295782246017
9188.96 81.22763104905619
9514.16 81.07754972357894
9849.61 80.85912608739146
10196.8 80.68222454104692
10555.7 80.43662540962471
10927.7 80.0955713764792
11313.0 79.75344548359955
11712.9 79.56012876781897
12126.0 79.50866323704535
12553.7 79.48653660701437
12996.1 79.48429798177409
13454.6 79.4126101267599
13929.2 79.370901652433
14419.9 79.31135432310961
14928.2 79.1634008488059
15455.6 78.95033258595312
16000.5 78.65451430637167
16564.5 78.27546351824986
17148.9 77.92520259454058
17752.4 77.85167134468203
18379.4 77.8560405830431
19026.9 77.69155400313086
19697.8 77.33129345747446
19999.5 77.19030181110476
