Freq "On Axis"
20.5078 52.49430000000001
21.9727 54.8956
23.4375 56.915099999999995
24.9023 59.16069999999999
26.3672 61.16470000000001
27.832 63.4503
29.2969 65.3804
30.7617 67.3265
32.2266 68.8786
33.6914 70.2391
35.1563 71.278
36.6211 71.90360000000001
38.0859 72.43
39.5508 72.7594
41.0156 72.9782
42.4805 73.2824
43.9453 73.423
45.4102 73.5766
46.875 73.8099
48.3398 73.9837
51.2695 74.3663
52.7344 74.5573
54.1992 74.6894
55.6641 74.8917
58.5938 75.4775
60.0586 75.6909
62.9883 76.1454
64.4531 76.3492
67.3828 76.8278
68.8477 77.0579
71.7773 77.5388
74.707 78.09360000000001
77.6367 78.5531
79.1016 78.7311
82.0313 79.1506
84.9609 79.5771
87.8906 79.9721
90.8203 80.3852
95.2148 80.919
98.1445 81.27100000000002
101.074 81.58099999999999
105.469 82.06809999999999
108.398 82.435
112.793 82.80350000000001
117.188 83.124
120.117 83.34899999999999
124.512 83.6994
128.906 83.8315
133.301 83.9521
139.16 84.1002
143.555 84.1517
147.949 84.172
153.809 84.1524
159.668 84.23570000000001
165.527 84.2672
171.387 84.1742
177.246 84.0408
183.105 83.84710000000001
188.965 83.763
196.289 83.4875
203.613 83.2021
210.938 83.07049999999998
218.262 82.71620000000001
225.586 82.4477
232.91 82.4051
241.699 81.6451
250.488 81.3871
259.277 83.7466
268.066 84.7007
276.855 84.8741
287.109 84.3001
297.363 83.8639
307.617 83.5292
319.336 83.0646
329.59 83.041
341.309 82.5612
353.027 82.34119999999999
366.211 82.1902
379.395 82.5788
392.578 82.45160000000001
405.762 82.2269
420.41 83.21109999999999
435.059 82.72889999999998
451.172 82.7725
465.82 82.9012
483.398 82.9148
499.512 82.62980000000002
517.09 83.0043
536.133 82.33340000000001
555.176 83.1
574.219 83.19409999999999
594.727 82.2595
615.234 82.934
637.207 83.08420000000001
659.18 83.7126
682.617 83.9663
707.52 84.9048
732.422 85.9277
757.324 86.475
785.156 87.0419
811.523 86.82989999999998
840.82 86.0838
870.117 85.6516
900.879 86.2175
933.105 85.9005
965.332 85.57840000000002
1000.49 85.2015
1035.64 84.5958
1072.27 83.6724
1108.89 82.92589999999998
1148.44 82.51430000000002
1189.45 82.3363
1230.47 82.7379
1274.41 83.0512
1319.82 83.96369999999999
1366.7 84.394
1413.57 84.5758
1463.38 85.10669999999999
1516.11 85.2512
1568.85 84.8083
1624.51 84.0139
1681.64 83.8894
1741.7 84.7292
1803.22 84.3631
1866.21 84.7077
1932.13 85.3257
1999.51 85.25
2069.82 84.8105
2143.07 84.35750000000002
2219.24 84.2294
2296.88 83.7817
2378.91 84.0076
2462.4 83.9741
2548.83 82.1508
2639.65 82.4445
2731.93 82.7069
2828.61 83.1667
2928.22 83.35060000000001
3030.76 83.4429
3137.7 83.7356
3249.02 84.1001
3363.28 84.7398
3481.93 84.6857
3604.98 85.0864
3732.42 85.1314
3864.26 85.8116
4000.49 84.5604
4141.11 84.3064
4287.6 84.13829999999999
4438.48 83.7632
4595.21 83.1541
4756.35 83.4153
4924.8 83.54999999999998
5097.66 83.10409999999999
5277.83 83.61700000000002
5463.87 83.731
5657.23 82.7465
5856.45 83.52539999999999
6062.99 82.9282
6276.86 83.5734
6498.05 83.5277
6726.56 83.9022
6963.87 84.0952
7209.96 84.3287
7464.84 84.45690000000002
7727.05 84.7144
7999.51 84.8852
8282.23 84.84299999999999
8573.73 84.4883
8876.95 83.9093
9188.96 83.7126
9514.16 82.7868
9849.61 82.1354
10196.8 81.9864
10555.7 81.9401
10927.7 82.01240000000001
11313.0 82.5118
11712.9 83.1401
12126.0 83.78400000000002
12553.7 84.1771
12996.1 84.5847
13454.6 84.5085
13929.2 84.1339
14419.9 83.64160000000001
14928.2 83.27000000000001
15455.6 82.6874
16000.5 82.0522
16564.5 81.8192
17148.9 81.9419
17752.4 82.3541
18379.4 82.7545
19026.9 82.50490000000002
19697.8 82.1179
19999.5 81.8579
