Freq "Sound Power"
20.5078 52.81297724857849
21.9727 54.889473115576706
23.4375 56.8356512599601
24.9023 59.018362924161536
26.3672 60.93463104710909
27.832 63.24742009408918
29.2969 65.10412901418242
30.7617 67.05844037400807
32.2266 68.55726772206633
33.6914 69.8988281701268
35.1563 70.94097904481367
36.6211 71.54672950683623
38.0859 72.06341598201905
39.5508 72.39463222420336
41.0156 72.59630649252507
42.4805 72.8945757295499
43.9453 73.03085031806468
45.4102 73.16602613876678
46.875 73.38175127541062
48.3398 73.56371427159277
51.2695 73.9753387072561
52.7344 74.16920129819992
54.1992 74.31574384310413
55.6641 74.50020654480203
58.5938 75.00980019830622
60.0586 75.22730339624249
62.9883 75.68030571384936
64.4531 75.9014204296761
67.3828 76.39017639496898
68.8477 76.61589742264484
71.7773 77.06868303868755
74.707 77.60928975062568
77.6367 78.06472400174518
79.1016 78.23938590225417
82.0313 78.66400037616758
84.9609 79.12519392041786
87.8906 79.45888909071499
90.8203 79.8311445302732
95.2148 80.33314838202573
98.1445 80.68338039903715
101.074 80.95990491319331
105.469 81.42285996081857
108.398 81.78404994761546
112.793 82.17828868479826
117.188 82.43332374306546
120.117 82.63606435689404
124.512 82.96535383673826
128.906 83.04342390788365
133.301 83.1848538761733
139.16 83.29687626235842
143.555 83.28549146451617
147.949 83.24079512658385
153.809 83.16527272496235
159.668 83.28191753164397
165.527 83.30941308032054
171.387 83.1404905946162
177.246 82.95149813834648
183.105 82.65112167353942
188.965 82.37475434750928
196.289 82.22205965285745
203.613 81.88676927050683
210.938 81.57007327160011
218.262 81.1863709997851
225.586 80.82723010593072
232.91 80.58894356574885
241.699 79.83405834627466
250.488 79.46896293076374
259.277 81.58854893428109
268.066 82.53750363144236
276.855 82.59043740340421
287.109 81.91308676840288
297.363 81.39842662680282
307.617 81.16208500142336
319.336 80.66338247185786
329.59 80.40451675616434
341.309 80.14037214857107
353.027 79.58073106532868
366.211 79.26843806252545
379.395 79.76109010594728
392.578 79.84530304712473
405.762 79.56657891696176
420.41 79.56341093790813
435.059 79.32759062712827
451.172 79.15785904062001
465.82 79.26223058097692
483.398 79.35219049793666
499.512 79.29971050763835
517.09 79.47725517821468
536.133 78.93087620215645
555.176 79.03939225614906
574.219 79.26888996714575
594.727 78.7960064789507
615.234 78.79161405005824
637.207 79.16441239468425
659.18 79.19919435011211
682.617 79.61603332368033
707.52 80.22016844578434
732.422 80.71610995319867
757.324 81.07469562935658
785.156 81.4375216985129
811.523 81.21976327013873
840.82 81.04843450878393
870.117 80.58768381020094
900.879 80.51687934394214
933.105 80.21656229451958
965.332 79.71112609429954
1000.49 78.9064888874571
1035.64 78.18409324194589
1072.27 77.22551531855345
1108.89 76.69338638556472
1148.44 76.43709550733683
1189.45 76.30830811982788
1230.47 76.78522171617159
1274.41 76.70267035987379
1319.82 76.50285740706717
1366.7 76.48250622947207
1413.57 76.70491182418279
1463.38 76.81910978130797
1516.11 77.03521958943539
1568.85 76.80274559741672
1624.51 76.27224430621654
1681.64 75.96694731798681
1741.7 76.45098055365537
1803.22 76.47106721838072
1866.21 76.03728509512932
1932.13 76.23846187764047
1999.51 76.45995548505354
2069.82 76.64063625579605
2143.07 76.4082636234872
2219.24 76.41631022995504
2296.88 76.04746926810135
2378.91 76.08263611948261
2462.4 76.3151250074407
2548.83 75.64387239827884
2639.65 76.2272235214755
2731.93 75.82377155842757
2828.61 75.63765855840089
2928.22 76.09471595677887
3030.76 76.18261860590549
3137.7 76.26814234061045
3249.02 76.38699620214798
3363.28 76.80976594236772
3481.93 77.13308892580304
3604.98 77.64668888524007
3732.42 77.65466323652761
3864.26 77.88598482668509
4000.49 77.19237706753388
4141.11 77.34827021650413
4287.6 77.1750654562283
4438.48 77.43783626307437
4595.21 76.95173291280074
4756.35 77.11841074969827
4924.8 77.10688781386409
5097.66 77.05313587163752
5277.83 77.51974761926134
5463.87 77.3915605903451
5657.23 77.37836672426862
5856.45 77.54322854845297
6062.99 77.5303721742504
6276.86 77.48411433439642
6498.05 77.68298813918027
6726.56 77.49054470177961
6963.87 77.44524404004252
7209.96 77.27339308144322
7464.84 77.05428817521067
7727.05 77.15248188530337
7999.51 77.20666460483817
8282.23 77.40614892634092
8573.73 77.31998341974952
8876.95 77.36055308091736
9188.96 77.36539314653722
9514.16 77.2593432832037
9849.61 77.11904437496372
10196.8 76.95056999486505
10555.7 76.67367334840395
10927.7 76.31729215512719
11313.0 75.9384091825773
11712.9 75.71235770667082
12126.0 75.56365620900102
12553.7 75.51200660233995
12996.1 75.42102615060963
13454.6 75.2848449374335
13929.2 75.25644317024295
14419.9 75.18168709152191
14928.2 75.0491834759783
15455.6 74.84790960387646
16000.5 74.67144872324832
16564.5 74.40052306722436
17148.9 73.92123463722795
17752.4 73.79767021985326
18379.4 73.83388404963485
19026.9 73.64317300431775
19697.8 73.33766772447292
19999.5 73.23830879265616
