Freq "Sound Power"
20.5078 52.5584363394876
21.9727 54.634932206485814
23.4375 56.58111035086921
24.9023 58.763822015070645
26.3672 60.6800901380182
27.832 62.99287918499829
29.2969 64.84958810509153
30.7617 66.80389946491718
32.2266 68.30272681297544
33.6914 69.64428726103591
35.1563 70.68643813572278
36.6211 71.29218859774534
38.0859 71.80887507292816
39.5508 72.14009131511247
41.0156 72.34176558343418
42.4805 72.64003482045901
43.9453 72.77630940897379
45.4102 72.91148522967589
46.875 73.12721036631973
48.3398 73.30917336250188
51.2695 73.72079779816521
52.7344 73.91466038910903
54.1992 74.06120293401324
55.6641 74.24566563571113
58.5938 74.75525928921533
60.0586 74.9727624871516
62.9883 75.42576480475847
64.4531 75.6468795205852
67.3828 76.13563548587808
68.8477 76.36135651355394
71.7773 76.81414212959666
74.707 77.35474884153479
77.6367 77.81018309265428
79.1016 77.98484499316328
82.0313 78.40945946707669
84.9609 78.87065301132697
87.8906 79.2043481816241
90.8203 79.57660362118231
95.2148 80.07860747293483
98.1445 80.42883948994626
101.074 80.70536400410242
105.469 81.16831905172768
108.398 81.52950903852457
112.793 81.92374777570737
117.188 82.17878283397457
120.117 82.38152344780315
124.512 82.71081292764737
128.906 82.78888299879276
133.301 82.93031296708241
139.16 83.04233535326753
143.555 83.03095055542528
147.949 82.98625421749296
153.809 82.91073181587146
159.668 83.02737662255308
165.527 83.05487217122965
171.387 82.8859496855253
177.246 82.69695722925559
183.105 82.39658076444853
188.965 82.12021343841839
196.289 81.96751874376656
203.613 81.63222836141594
210.938 81.31553236250922
218.262 80.9318300906942
225.586 80.57268919683983
232.91 80.33440265665796
241.699 79.57951743718377
250.488 79.21442202167285
259.277 81.3340080251902
268.066 82.28296272235147
276.855 82.33589649431332
287.109 81.65854585931199
297.363 81.14388571771192
307.617 80.90754409233247
319.336 80.40884156276697
329.59 80.14997584707345
341.309 79.88583123948018
353.027 79.32619015623779
366.211 79.01389715343456
379.395 79.50654919685638
392.578 79.59076213803384
405.762 79.31203800787087
420.41 79.30887002881724
435.059 79.07304971803738
451.172 78.90331813152912
465.82 79.00768967188603
483.398 79.09764958884577
499.512 79.04516959854746
517.09 79.22271426912378
536.133 78.67633529306556
555.176 78.78485134705817
574.219 79.01434905805486
594.727 78.54146556985981
615.234 78.53707314096735
637.207 78.90987148559336
659.18 78.94465344102122
682.617 79.36149241458943
707.52 79.96562753669345
732.422 80.46156904410778
757.324 80.82015472026569
785.156 81.182980789422
811.523 80.96522236104784
840.82 80.79389359969304
870.117 80.33314290111005
900.879 80.26233843485124
933.105 79.96202138542868
965.332 79.45658518520865
1000.49 78.65194797836621
1035.64 77.929552332855
1072.27 76.97097440946256
1108.89 76.43884547647383
1148.44 76.18255459824594
1189.45 76.05376721073699
1230.47 76.5306808070807
1274.41 76.4481294507829
1319.82 76.24831649797628
1366.7 76.22796532038117
1413.57 76.4503709150919
1463.38 76.56456887221708
1516.11 76.7806786803445
1568.85 76.54820468832582
1624.51 76.01770339712564
1681.64 75.71240640889592
1741.7 76.19643964456448
1803.22 76.21652630928983
1866.21 75.78274418603843
1932.13 75.98392096854958
1999.51 76.20541457596265
2069.82 76.38609534670516
2143.07 76.15372271439631
2219.24 76.16176932086415
2296.88 75.79292835901046
2378.91 75.82809521039172
2462.4 76.0605840983498
2548.83 75.38933148918795
2639.65 75.9726826123846
2731.93 75.56923064933667
2828.61 75.38311764931
2928.22 75.84017504768798
3030.76 75.9280776968146
3137.7 76.01360143151956
3249.02 76.13245529305709
3363.28 76.55522503327683
3481.93 76.87854801671214
3604.98 77.39214797614918
3732.42 77.40012232743672
3864.26 77.6314439175942
4000.49 76.93783615844299
4141.11 77.09372930741324
4287.6 76.9205245471374
4438.48 77.18329535398348
4595.21 76.69719200370984
4756.35 76.86386984060738
4924.8 76.8523469047732
5097.66 76.79859496254663
5277.83 77.26520671017045
5463.87 77.1370196812542
5657.23 77.12382581517772
5856.45 77.28868763936208
6062.99 77.27583126515951
6276.86 77.22957342530553
6498.05 77.42844723008938
6726.56 77.23600379268872
6963.87 77.19070313095163
7209.96 77.01885217235233
7464.84 76.79974726611978
7727.05 76.89794097621248
7999.51 76.95212369574728
8282.23 77.15160801725003
8573.73 77.06544251065863
8876.95 77.10601217182646
9188.96 77.11085223744632
9514.16 77.00480237411281
9849.61 76.86450346587283
10196.8 76.69602908577416
10555.7 76.41913243931306
10927.7 76.0627512460363
11313.0 75.68386827348641
11712.9 75.45781679757992
12126.0 75.30911529991013
12553.7 75.25746569324906
12996.1 75.16648524151874
13454.6 75.03030402834261
13929.2 75.00190226115205
14419.9 74.92714618243102
14928.2 74.7946425668874
15455.6 74.59336869478557
16000.5 74.41690781415743
16564.5 74.14598215813346
17148.9 73.66669372813706
17752.4 73.54312931076237
18379.4 73.57934314054395
19026.9 73.38863209522685
19697.8 73.08312681538203
19999.5 72.98376788356526
