Freq,On Axis,Listening Window,Sound Power,Early Reflections,Early Reflections DI,Sound Power DI,DI offset
22.4,44.5,50.83290788471368,55.13527786589049,55.13326439169248,35.6996434930212,35.69763001882319,40
23.0,44.599999999999994,49.386011900687976,52.80964004758985,52.64499489558537,36.741017005102606,36.576371853098124,40
23.6,46.19999999999999,49.8739667899045,52.74358341272014,52.45466612809125,37.41930066181325,37.13038337718436,40
24.0,47.19999999999999,50.00989778628869,52.3559631727442,52.01578758919274,37.99411019709595,37.65393461354449,40
25.0,46.900000000000006,48.98922313119766,50.8583035683009,50.51691480051437,38.47230833068329,38.130919562896764,40
25.8,47.30000000000001,48.920975067474956,50.20190896425373,49.94268514689074,38.97828992058422,38.71906610322122,40
26.5,46.80000000000001,47.951553577873966,48.70458123571035,48.55047715496923,39.40107642290474,39.246972342163616,40
27.2,44.69999999999999,45.45348025421316,45.63632835695796,45.615771091373176,39.837709162839985,39.8171518972552,40
28.0,44.80000000000001,45.31073313967104,44.958722856960975,45.089728209850364,40.22100492982068,40.35201028271007,40
29.0,45.099999999999994,45.356014422057,44.50343956774091,44.797924213895385,40.558090208161616,40.85257485431609,40
30.0,45.69999999999999,45.735831293518345,44.47782638433702,44.910321184698034,40.82551010882031,41.258004909181324,40
30.7,46.80000000000001,46.56980760546705,44.98851872807637,45.55505994035258,41.01474766511447,41.581288877390676,40
31.5,48.80000000000001,48.49350544779372,46.634519685887255,47.317230367529476,41.17627508026425,41.85898576190647,40
32.5,51.599999999999994,51.15741485272781,49.1211419903762,49.86517590776384,41.29223894496397,42.03627286235161,40
33.5,54.599999999999994,54.0652627456075,51.95185950313146,52.72576805997127,41.339494685636225,42.11340324247604,40
34.5,57.900000000000006,57.30961398617973,55.22417209297231,56.00770165240863,41.3019123337711,42.08544189320742,40
35.5,60.5,59.84859645641541,57.865941991783615,58.595835968310695,41.25276048810471,41.98265446463179,40
36.5,62.19999999999999,61.58098639887976,59.72708392536933,60.40479304934121,41.17619334953855,41.85390247351043,40
37.5,64.1,63.465354081792384,61.85821426560415,62.402279706800584,41.0630743749918,41.60713981618824,40
38.7,65.9,65.28838989936938,63.94157661259433,64.37163379135433,40.91675610801505,41.346813286775046,40
40.0,67.6,66.98233372311736,65.97503877039556,66.27439822491189,40.70793549820547,41.00729495272181,40
41.2,69.4,68.96323435070695,68.31532827556418,68.47011875156154,40.49311559914541,40.64790607514277,40
42.5,71.0,70.66288604869112,70.36714474788813,70.42400378872846,40.238882259962665,40.29574130080299,40
43.7,72.20000000000002,72.03472269789381,72.0523066117495,72.04731783888,39.98740485901381,39.98241608614431,40
45.0,73.5,73.53120665936108,73.74921775007431,73.73890435182597,39.79230230753511,39.78198890928677,40
46.2,74.70000000000002,74.86188878736792,75.11730060312179,75.19184878235546,39.67004000501245,39.744588184246126,40
47.5,76.19999999999999,76.43116745795464,76.50185998497001,76.70170263371583,39.72946482423882,39.92930747298463,40
48.7,77.5,77.83973455375137,77.55311982849636,77.8991710962409,39.940563457510464,40.286614725255006,40
50.0,78.69999999999999,78.9558407452121,78.2982316675447,78.79522260140996,40.16061814380214,40.6576090776674,40
51.5,79.9,80.12065200629371,79.04688370855766,79.70777692006237,40.41287508623134,41.07376829773605,40
53.0,81.0,81.22118932973251,79.77125156191357,80.56698166605332,40.65420766367919,41.44993776781894,40
54.5,82.0,82.10992454751263,80.38537433913214,81.29141686496766,40.818507682544976,41.72455020838049,40
56.0,83.0,82.96623009303525,80.97781915174602,81.96761921005849,40.99861088297676,41.98841094128923,40
58.0,83.9,83.822852566573,81.6490064727177,82.70670828566065,41.11614428091235,42.1738460938553,40
60.0,84.9,84.77600519926987,82.49810630261841,83.59726354860445,41.17874165066543,42.277898896651465,40
61.5,85.80000000000001,85.56863110765224,83.21500497151617,84.34587210895711,41.22275899869513,42.35362613613607,40
63.0,86.4,86.13372327087225,83.77241893927057,84.89147855306065,41.2422447178116,42.36130433160169,40
65.0,86.9,86.67881233969996,84.31633893374091,85.42374217286127,41.25507016683869,42.36247340595905,40
67.0,87.4,87.1672451359317,84.89499709890598,85.94514969564139,41.2220954402903,42.27224803702572,40
69.0,87.9,87.63489679801371,85.47101589360246,86.46578824060856,41.16910855740515,42.16388090441126,40
71.0,88.30000000000001,88.06762173277522,86.0663681714736,86.97474787313958,41.092873859635645,42.001253561301624,40
73.0,88.9,88.6651006536639,86.81335243055116,87.66784427060591,40.99725638305799,41.851748223112736,40
75.0,89.3,89.18470905369679,87.4974087916946,88.2859676360022,40.898741417694595,41.687300262002196,40
77.5,89.70000000000002,89.65918743811886,88.0540692897886,88.82759286741282,40.831594570706045,41.60511814833026,40
80.0,90.2,90.13513664106821,88.48435875400074,89.30627756188461,40.8288590791836,41.65077788706748,40
82.5,90.5,90.4460186532139,88.70586672692349,89.57750739265136,40.86851126056254,41.74015192629041,40
85.0,90.80000000000001,90.72319152961714,88.87767043007149,89.80421318812445,40.91897834149269,41.84552109954565,40
87.5,91.0,90.85686156553042,88.92938228560244,89.89395291309035,40.96290865244008,41.92747927992798,40
90.0,91.0,90.83562068408571,88.83292088611317,89.81826759886604,41.01735308521967,42.00269979797254,40
92.5,90.80000000000001,90.66846270750857,88.6193519931987,89.63443406026838,41.03402864724019,42.04911071430986,40
95.0,90.6,90.41379491760637,88.29162968081083,89.3465231746848,41.06727174292156,42.12216523679554,40
97.5,90.4,90.18181507072445,87.97856213319969,89.07635134093348,41.10546372979097,42.203252937524766,40
100.0,90.1,89.93719687299989,87.55706922500649,88.75515825718603,41.182038615813866,42.380127647993405,40
103.0,90.1,89.89515038890593,87.04372827759939,88.51221516722028,41.382935221685656,42.85142211130655,40
106.0,90.1,89.80383740838879,85.58700943695993,87.87112931287987,41.932708095508914,44.216827971428856,40
109.0,90.1,89.65502917746159,85.73373885964611,87.73661097010226,41.91841820735932,43.921290317815476,40
112.0,90.3,89.94566925739211,87.4237806105032,88.59417406148276,41.35149519590935,42.52188864688891,40
115.0,90.4,90.0840577188125,87.96788061526205,88.92919135517562,41.154866363636884,42.116177103550456,40
118.0,90.5,90.26063752019827,88.26289124892487,89.17387369148028,41.08676382871799,41.9977462712734,40
122.0,90.6,90.31606108256487,88.4065188648357,89.28293302243794,41.03312806012693,41.90954221772917,40
125.0,90.5,90.28127710423243,88.38481868048044,89.25990852007364,41.02136858415879,41.896458423751994,40
128.0,90.5,90.28127710423243,88.39360182759185,89.26271018320585,41.018566921026576,41.88767527664058,40
132.0,90.4,90.20431892369504,88.28885043431815,89.18281026902366,41.02150865467138,41.91546848937689,40
136.0,90.3,90.0699738260637,88.12773128355548,89.05868510292056,41.01128872314314,41.942242542508225,40
140.0,90.2,90.04727259632452,87.92808299092059,88.96703171927733,41.08024087704719,42.11918960540393,40
145.0,90.1,89.99053496374991,87.62952081446645,88.82122857106717,41.16930639268274,42.36101414928346,40
150.0,90.0,89.82445814420116,87.34192064563543,88.61477252437015,41.209685619831006,42.48253749856573,40
155.0,89.9,89.72445814420117,87.23366425551362,88.50202613789045,41.22243200631071,42.49079388868755,40
160.0,89.9,89.74727259632452,87.20952025462111,88.46760199181678,41.27967060450774,42.53775234170341,40
165.0,90.0,89.79203842311864,87.19500964203527,88.48872479988485,41.30331362323379,42.59702878108337,40
170.0,90.0,89.82647038441901,87.11891161400875,88.48380004876567,41.34267033565334,42.70755877041026,40
175.0,90.1,89.8381528844336,86.86681070059387,88.379905976814,41.458246907619596,42.971342183839724,40
180.0,90.0,89.76090170960879,86.30212593930203,88.08751192577668,41.67338978383211,43.45877577030676,40
185.0,89.79999999999998,89.50708482926707,85.8431884023971,87.73336544148759,41.77371938777948,43.66389642686997,40
190.0,89.6,89.25228863317659,85.72882089303545,87.50284437353949,41.7494442596371,43.52346774014114,40
195.0,89.3,88.95228863317658,85.4949790265843,87.23536953523846,41.71691909793812,43.457309606592275,40
200.0,89.1,88.78703592431401,85.29797580109592,87.06081276172056,41.726223162593456,43.489060123218096,40
206.0,89.1,88.75228863317659,85.24178099716563,87.02338240222662,41.728906230949974,43.510507636010956,40
212.0,89.1,88.80708482926707,85.35561016434673,87.09698711245072,41.71009771681635,43.45147466492034,40
218.0,89.1,88.79584860777308,85.39969020981705,87.13365294895793,41.66219565881515,43.39615839795603,40
224.0,89.1,88.88405159795619,85.37244193215243,87.16602185101254,41.71802974694364,43.51160966580376,40
230.0,89.3,89.02948833002333,85.29900226354121,87.21294835283373,41.81653997718959,43.730486066482115,40
236.0,89.4,89.09962886293752,85.18409435092771,87.20289819011629,41.896730672821235,43.91553451200981,40
240.0,89.5,89.14727842678016,85.20072550622527,87.2323264072593,41.91495201952087,43.94655292055489,40
250.0,89.4,89.09022401933255,85.1206848792458,87.1518470308706,41.938376988461954,43.96953914008675,40
258.0,89.0,88.70096904162394,84.70253534125199,86.74809795190691,41.95287108971702,43.99843370037195,40
265.0,88.5,88.18862984188473,84.2070699805935,86.25083841303024,41.937791428854496,43.98155986129123,40
272.0,88.30000000000001,88.00284559139567,84.21801863245724,86.1643347806407,41.83851081075497,43.784826958938424,40
280.0,88.6,88.27191670523487,84.6047081511378,86.49188640575224,41.78003029948263,43.66720855409707,40
290.0,89.2,88.86182231625851,85.15062429240146,87.05766965822623,41.80415265803228,43.71119802385705,40
300.0,89.79999999999998,89.50525881131581,85.78368467791566,87.72419274036429,41.781066070951525,43.72157413340015,40
307.0,90.2,89.88222199120555,86.1284717391444,88.11639905023873,41.76582294096683,43.75375025206115,40
315.0,90.1,89.86005441916038,86.18147831094248,88.12847075419327,41.731583664967104,43.6785761082179,40
325.0,89.9,89.6775608004176,86.03915911615819,87.95344966708322,41.724111133334375,43.63840168425941,40
335.0,89.70000000000002,89.39234999311512,85.54987234593197,87.56579028325473,41.82655970986039,43.842477647183145,40
345.0,89.4,89.08323490989785,84.96902467703532,87.16040449333761,41.922830416560245,44.11421023286253,40
355.0,89.2,88.98054346303088,84.8210926019758,87.01080698405916,41.969736478971726,44.15945086105508,40
365.0,89.3,88.99234999311511,84.85492327806524,87.00500701680254,41.987342976312576,44.13742671504987,40
375.0,89.4,89.0447306126224,84.60629378266273,86.88949531153618,42.15523530108622,44.43843682995967,40
387.0,89.70000000000002,89.25989495490118,84.9758947503445,87.14022460405415,42.11967035084703,44.28400020455669,40
400.0,90.0,89.58745748439131,85.40525569472186,87.51206269364066,42.07539479075065,44.18220178966945,40
412.0,90.2,89.67795629897248,85.02791099902231,87.41307048766836,42.26488581130411,44.650045299950165,40
425.0,90.1,89.5796662346678,85.00194483957196,87.31886457049006,42.260801664177734,44.577721395095836,40
437.0,89.9,89.50857465254614,85.34654490329024,87.40162049594792,42.10695415659822,44.16202974925591,40
450.0,89.79999999999998,89.29074903797587,84.87128250654015,87.1075952967249,42.183153741250976,44.41946653143572,40
462.0,89.4,88.91070283478886,84.57026188793476,86.78331331968312,42.12738951510575,44.3404409468541,40
475.0,88.8,88.27178847706605,84.0202909156622,86.1758278965518,42.09596058051426,44.25149756140385,40
487.0,87.7,87.20733325923764,83.0062414563159,85.22431805298862,41.98301520624902,44.20109180292174,40
500.0,86.3,85.79091657946418,81.67064544940342,83.75888864327824,42.03202793618594,44.12027113006076,40
515.0,84.79999999999998,84.29663206422124,80.24174722487216,82.3156527201858,41.98097934403545,44.054884839349086,40
530.0,84.1,83.44821817867424,79.32534315233983,81.50259494314774,41.9456232355265,44.12287502633441,40
545.0,84.1,83.45337196253544,78.84678065891791,81.20756070558869,42.24581125694675,44.606591303617535,40
560.0,84.79999999999998,84.24560065168329,79.46024093470406,81.8970491946686,42.34855145701469,44.78535971697923,40
580.0,86.19999999999999,85.57080287284975,80.13231942272658,82.81117432787872,42.75962854497104,45.43848345012317,40
600.0,87.5,86.85287164871099,81.1217377700479,83.96565000494205,42.88722164376894,45.73113387866309,40
615.0,88.30000000000001,87.79316103123908,81.75065985605592,84.66126051588407,43.131900515355014,46.04250117518316,40
630.0,88.6,87.91089113704285,81.61738527658116,84.68469810416885,43.22619303287401,46.29350586046169,40
650.0,88.2,87.47257188631605,81.16587586714473,84.215904022129,43.25666786418705,46.30669601917131,40
670.0,88.0,87.25866989040425,80.87559868467598,83.96946832399017,43.28920156641408,46.38307120572827,40
690.0,88.1,87.39571475474916,80.96551454499314,84.0879812980193,43.30773345672986,46.43020020975602,40
710.0,88.5,87.72374152956809,81.14404376092565,84.3652498288629,43.35849170070519,46.57969776864243,40
730.0,88.8,87.97025746508116,81.1924856345989,84.34430904141072,43.62594842367044,46.777771830482266,40
750.0,88.8,87.99172224871992,80.91454205335248,84.10032342706883,43.891398821651094,47.07718019536745,40
775.0,88.4,87.56617064944896,80.29194613622744,83.4537111798397,44.11245946960926,47.274224513221526,40
800.0,87.8,86.96495548943199,79.47637805615199,82.60152183223016,44.363433657201824,47.48857743328,40
825.0,87.29999999999998,86.50962227864089,78.96771297637687,81.98544784373846,44.524174434902434,47.54190930226402,40
850.0,86.9,86.13249422893193,78.63641518627183,81.59842024239015,44.534073986541785,47.4960790426601,40
875.0,86.8,85.96243948034333,78.4002988683028,81.24842218456175,44.71401729578159,47.56214061204054,40
900.0,86.7,85.88410928534009,78.12649194635843,81.01736214500801,44.86674714033208,47.75761733898166,40
925.0,86.8,85.84103489550776,77.91585803648636,80.89955686648878,44.94147802901898,47.925176859021406,40
950.0,87.0,85.94921689341687,77.73955272258323,80.88333253783875,45.06588435557812,48.20966417083365,40
975.0,87.29999999999998,86.17979427289477,77.70227276627818,81.07117199725867,45.108622275636094,48.47752150661658,40
1000.0,87.6,86.56355937270361,77.90308206928364,81.53315275605605,45.030406616647554,48.66047730341997,40
1030.0,88.1,86.90852467183669,78.19780922275552,81.92299991073591,44.98552476110078,48.710715449081164,40
1060.0,88.4,87.18787771745974,78.43663994984557,82.28144442834201,44.90643328911773,48.75123776761417,40
1090.0,88.6,87.27317086790046,78.3996078415054,82.40001650966981,44.87315435823065,48.87356302639506,40
1120.0,88.6,87.28047263339012,78.35279058935339,82.48368510521307,44.79678752817705,48.92768204403673,40
1150.0,88.6,87.28317084421198,78.27683728093248,82.48737572479278,44.795795119419196,49.0063335632795,40
1180.0,88.30000000000001,86.97528399169573,77.99194408100891,82.24318270298087,44.73210128871486,48.98333991068682,40
1220.0,88.0,86.61071863728417,77.63193754922885,81.9425413424423,44.66817729484187,48.978781088055314,40
1250.0,87.7,86.2359862999752,77.1870183051904,81.56467161724142,44.67131468273378,49.04896799478479,40
1280.0,87.4,85.95303727339083,76.88459004664243,81.22109870836233,44.7319385650285,49.068447226748404,40
1320.0,87.20000000000002,85.8190396266388,76.82588603010504,81.14461089511612,44.67442873152268,48.99315359653376,40
1360.0,87.20000000000002,85.84646121191778,76.96646629967864,81.23194263695532,44.61451857496246,48.87999491223914,40
1400.0,87.6,86.12954328333379,77.2521033220865,81.58724335425063,44.54229992908316,48.87743996124729,40
1450.0,87.9,86.32117068730678,77.42413247949818,81.82094432157447,44.5002263657323,48.89703820780859,40
1500.0,88.1,86.4436042530419,77.5624536621378,82.02947060320426,44.41413364983764,48.8811505909041,40
1550.0,88.2,86.4674964009194,77.55738170126224,82.11420681988783,44.353289581031575,48.91011469965716,40
1600.0,88.1,86.20929073881251,77.35925263692953,81.83683566518621,44.3724550736263,48.85003810188299,40
1650.0,87.9,86.01497972521088,77.4143164938087,81.75024470853796,44.264735016672915,48.60066323140218,40
1700.0,87.4,85.55070178602618,77.39071683477454,81.60123043216981,43.94947135385637,48.159984951251644,40
1750.0,86.8,85.03260973418512,77.16832987491671,81.29148535911489,43.74112437507023,47.86427985926841,40
1800.0,86.6,84.98128916316813,77.28296668591264,81.41789066689127,43.56339849627686,47.69832247725549,40
1850.0,86.6,85.12662088234173,77.58293862803431,81.86610577244626,43.260515109895465,47.54368225430741,40
1900.0,87.0,85.5777690946855,77.97171161190329,82.30398986879344,43.273779225892056,47.606057482782205,40
1950.0,87.5,86.18165890250954,78.4785811918351,82.800456188541,43.381202713968534,47.703077710674435,40
2000.0,87.9,86.57022597039665,78.76938909720953,83.03143677858579,43.538789191810864,47.80083687318712,40
2060.0,88.1,86.69839514182277,78.74393671906651,82.94361702371098,43.75477811811179,47.95445842275626,40
2120.0,88.0,86.50748533528008,78.50028454113163,82.61206572026981,43.89541961501027,48.007200794148446,40
2180.0,87.8,86.39165481954278,78.42801991257109,82.6055036711144,43.786151148428374,47.96363490697169,40
2240.0,87.4,86.22762743444937,78.11589006745974,82.39369610202627,43.833931332423106,48.11173736698963,40
2300.0,87.4,86.4306335305458,78.36071843037861,82.75641863489412,43.67421489565169,48.069915100167194,40
2360.0,87.5,86.7259941393866,78.58789377271982,83.02517846267887,43.700815676707734,48.13810036666678,40
2400.0,87.5,86.70023455569745,78.67969492696676,83.14498538835194,43.55524916734551,48.02053962873069,40
2500.0,87.8,87.02541402184985,79.02872789690454,83.412690078596,43.612723943253854,47.99668612494531,40
2580.0,87.8,87.22185706446813,79.43159368451157,83.76130962585164,43.46054743861649,47.790263379956556,40
2650.0,87.8,87.47830769992024,79.96124317351078,84.16679298463752,43.31151471528271,47.517064526409456,40
2720.0,88.2,87.85770972439558,80.43434472311993,84.62067190319681,43.23703782119877,47.42336500127564,40
2800.0,88.30000000000001,87.87118783553206,80.44954579718022,84.5598801658547,43.31130766967736,47.421642038351834,40
2900.0,88.4,88.10192200978383,80.64866323694145,84.84269438540929,43.259227624374546,47.45325877284239,40
3000.0,88.2,87.84779533326224,80.13134684018188,84.3700538809941,43.477741452268134,47.716448493080364,40
3070.0,87.9,87.68517486196323,79.78603793938824,84.10682321045323,43.578351651510005,47.899136922574996,40
3150.0,87.8,87.74645198056643,79.61112847136248,84.04671194882306,43.699740031743374,48.13532350920396,40
3250.0,87.8,87.72345400345895,79.36029291642207,83.92962768855577,43.793826314903185,48.363161087036886,40
3350.0,87.9,87.94575859799284,79.5220286791129,84.05716255640411,43.88859604158873,48.42372991887993,40
3450.0,87.9,88.00357510385982,79.52451796079444,83.98094954303076,44.022625560829056,48.479057143065376,40
3550.0,87.9,87.67719500951395,79.06221065920872,83.49546398787092,44.18173102164303,48.614984350305235,40
3650.0,87.9,87.70848676911982,79.11171222063628,83.46852755508729,44.239959214032524,48.59677454848354,40
3750.0,87.8,88.1266573781064,79.5583709285904,83.8840963247862,44.2425610533202,48.568286449515995,40
3870.0,87.9,88.62308001082572,80.26074351664869,84.44252117910028,44.180558831725435,48.36233649417703,40
4000.0,87.8,88.437930084444,80.25049518488848,84.30727329005931,44.13065679438469,48.18743489955553,40
4120.0,87.9,88.10767261304309,79.84273319157906,83.89318240614497,44.21449020689812,48.264939421464035,40
4250.0,88.4,88.2596550394259,79.72933288970289,83.93547030734815,44.32418473207774,48.530322149723006,40
4370.0,88.30000000000001,87.89621046523072,79.18311099709854,83.5345086204346,44.36170184479613,48.713099468132185,40
4500.0,88.2,87.49932758977393,78.7065188394373,83.13946740458454,44.35986018518939,48.79280875033663,40
