Freq "Listening Window"
20.5078 48.931855547642
21.9727 50.919266308475
23.4375 55.831424454270675
24.9023 58.3217226864145
26.3672 61.26395279877575
27.832 63.99678677369087
29.2969 65.95344508183443
30.7617 67.97861005937881
32.2266 69.75834984452538
33.6914 71.41960540411253
35.1562 73.07165232264005
36.6211 74.45745015249574
38.0859 75.71333860136397
39.5508 76.85477202179658
41.0156 77.87620652666368
42.4805 78.84597785081678
43.9453 79.59688669173293
45.4102 80.40557090072117
46.875 81.06828256634991
48.3398 81.64917823748608
51.2695 82.7186760495321
52.7344 83.20721523648754
54.1992 83.68605178699502
55.6641 84.1560550913889
58.5938 84.8349395923822
60.0586 85.14891905204219
62.9883 85.7044940164251
64.4531 85.94368428051388
67.3828 86.3243639647688
68.8477 86.5395797250654
71.7773 86.95302745310234
74.707 87.303209733517
77.6367 87.50067091621472
79.1016 87.55823397858863
82.0312 87.65200027753782
84.9609 87.80533071027979
87.8906 87.77383125115229
90.8203 87.9930589044238
95.2148 87.84876786536456
98.1445 87.61427755085676
101.074 87.47288666579799
105.469 87.77253458159262
108.398 87.81082960975087
112.793 87.85341583183171
117.188 87.72725337424629
120.117 87.8251632461978
124.512 87.60845950192176
128.906 87.08553573857677
133.301 87.07902983038475
139.16 86.98705752524363
143.555 86.7435239635402
147.949 86.76323519188838
153.809 86.78505543829083
159.668 86.76722307604216
165.527 86.66675289410564
171.387 86.50196326649434
177.246 86.57365422354803
183.105 86.2829782316386
188.965 86.10408115491738
196.289 86.31163068000018
203.613 86.20862847303367
210.938 86.32908480737211
218.262 86.10258403921382
225.586 86.13522749428371
232.91 86.29617953467363
241.699 86.0552185726735
250.488 86.12576393768448
259.277 86.46609231097254
268.066 86.0403664977029
276.855 86.25235711442365
287.109 86.178275564488
297.363 86.22065206630144
307.617 86.43042877539888
319.336 86.33986099390496
329.59 85.92688006655561
341.309 85.97459830389194
353.027 86.06130474363052
366.211 85.89937446850972
379.395 86.53911060971075
392.578 86.00317333522261
405.762 86.03067177925887
420.41 86.26720383532266
435.059 85.76928205310496
451.172 86.33566489750835
465.82 86.1978851019732
483.398 86.15097335581672
499.512 85.90633157470936
517.09 85.86584360789142
536.133 85.92297600339683
555.176 87.68595328809933
574.219 88.19392690802546
594.727 87.19384498369071
615.234 86.61671781452624
637.207 86.17090027628784
659.18 85.5524836247356
682.617 84.65283249860835
707.52 84.38501903592287
732.422 86.12918196063187
757.324 86.32573682122126
785.156 86.84971552943355
811.523 86.10317419188274
840.82 85.96998559235077
870.117 86.03402627353886
900.879 86.31407190349357
933.105 86.028851195296
965.332 86.72952440759498
1000.49 85.76201348064431
1035.64 85.44453231289471
1072.27 84.81038994909376
1108.89 84.83481482440662
1148.44 84.75156427860101
1189.45 85.04017669049281
1230.47 85.24622992597956
1274.41 86.12250223366904
1319.82 87.34919579770332
1366.7 87.90671049126657
1413.57 87.78423812138432
1463.38 87.30729131454602
1516.11 86.68546068425852
1568.85 85.81086485533915
1624.51 86.45399838687655
1681.64 88.01414105557997
1741.7 88.18494280004668
1803.22 88.02954919741508
1866.21 87.51473252724884
1932.13 86.76136973459342
1999.51 86.97438880894174
2069.82 87.56124253319831
2143.07 87.67083074318874
2219.24 87.09762001239902
2296.88 86.35749691350404
2378.91 86.42675775044279
2462.4 87.70234007158078
2548.83 87.63725928849546
2639.65 86.4949600359181
2731.93 85.36224968668198
2828.61 85.33536760643908
2928.22 86.0343827019847
3030.76 86.17525883950324
3137.7 85.87430539092861
3249.02 85.00718261722658
3363.28 84.74581358429265
3481.93 84.84176732857085
3604.98 84.70472086191268
3732.42 84.93029900228768
3864.26 84.10270538515422
4000.49 82.84555657800692
4141.11 83.01897472882803
4287.6 82.77494291219163
4438.48 82.96494007488904
4595.21 82.60868416336642
4756.35 82.4819263519848
4924.8 83.28876324165395
5097.66 83.36466503112992
5277.83 83.04281700594159
5463.87 83.67159780431595
5657.23 84.16560659006412
5856.45 83.34146846699997
6062.99 84.27953008065961
6276.86 84.09468040093621
6498.05 84.68834148024474
6726.56 85.37127617122671
6963.87 84.98059243918648
7209.96 85.94331769330206
7464.84 86.39258843210293
7727.05 86.68563315153261
7999.51 86.74748975862802
8282.23 86.5810580592378
8573.73 86.63661983490198
8876.95 85.97315392957107
9188.96 84.86143507089305
9514.16 83.77993457100304
9849.61 82.78654522932077
10196.8 82.64657908344658
10555.7 83.25964553197092
10927.7 84.00687928667581
11313.0 84.9363132390324
11712.9 85.70657893939155
12126.0 86.12432531049105
12553.7 86.09220564379495
12996.1 85.78582340553577
13454.6 85.44991515815643
13929.2 85.25546347852047
14419.9 85.20645969635207
14928.2 84.87384111536998
15455.6 84.41582044033773
16000.5 83.59880252130135
16564.5 82.71181026392894
17148.9 81.82216266343046
17752.4 80.61157954798138
18379.4 79.14421319317337
19026.9 77.8142566099183
19697.8 76.3343496723407
19999.5 75.68335690407079
