Freq,Floor Bounce,Ceiling Bounce,Front Wall Bounce,Side Wall Bounce,Rear Wall Bounce,Total Early Reflection
22.4,4.316045155029627,10.130472777137328,2.7544237951476873,0.6876766782692698,3.8126956772905203,5.6748449944332435
23.0,7.653445265892998,10.53858119222403,5.900487718956043,4.12487217327768,6.659359799057825,7.5213744698194205
23.6,13.82115962436552,10.2946013003708,9.516316886758176,9.023298642619892,10.785091809273837,11.053117849341959
24.0,19.167648362444538,12.056038850029694,11.098638381284246,13.239157074306547,14.701666742688275,15.108074054536615
25.0,22.009153095319476,14.04275089076171,12.569470390354553,16.52569861896791,17.564632829111787,17.842910269035855
25.8,24.285739156489683,15.683472572458982,14.526736865339416,20.027836073668198,20.28136589127425,20.342092482935755
26.5,26.216279400836413,16.95754077983264,15.38907398792557,21.09449497838662,20.812997456332795,21.771907603928014
27.2,28.32022160616296,16.427282793386098,13.715540290058556,16.494932652921364,18.24111961277245,22.345200281670742
28.0,29.92324058002984,15.596811800136493,14.369900322937895,15.766394264100057,17.572402511241023,23.58323008878162
29.0,30.743021031075443,14.599648288754395,15.515791398166186,15.487715509276853,16.59513088719899,24.255606827605874
30.0,28.06781424026559,14.2345547712425,17.14555477319874,16.24623151726604,15.695757948640932,22.032924012688966
30.7,25.305179815366472,17.822355120441898,19.06016044231606,19.039042417623904,18.213541706880335,20.9814657170551
31.5,24.253225912733257,21.520586930893927,20.850764999426133,21.4431176807922,20.792014430012898,21.98248152184385
32.5,24.051136188338802,25.537491648605027,23.062210792141343,23.431981896963322,23.35622404677585,23.984377983308406
33.5,27.37928732607432,29.266872518488896,26.128901603945963,25.67030767186742,25.706211911722875,27.06336681989572
34.5,30.751769211042244,32.74010271092209,29.059497946239304,27.9365709901426,27.98883721439958,30.10705213355672
35.5,33.7567153621151,35.86775267851803,31.890205818643352,30.894590003273464,30.726733835996015,33.09329093745126
36.5,35.77397173071407,35.23331023801674,34.735084416250714,32.78046592092383,33.44077294476418,34.53209362276405
37.5,37.03819571547214,36.00131827952114,37.88690335378138,34.84928893313622,36.009532192039416,36.47970435705838
38.7,37.801318279521126,37.443148261094365,40.70152605330142,37.35082909137523,38.372507078856245,38.529555219561246
40.0,39.43647412390416,39.944157749348506,41.16201052900092,39.56958363818171,39.32465214113935,39.94223678866675
41.2,40.80473530118576,42.25927347220548,41.836860197389996,42.071601859166805,40.60341547009179,41.56714324476954
42.5,42.70265450340341,44.48796963813817,43.2898527512331,44.62917709310551,42.46446844634832,43.60746623899996
43.7,44.620219564043225,46.54805930397737,45.05837734600436,46.85538817429199,44.37044103856388,45.61158250998207
45.0,46.00464358834793,48.39179815677409,46.51419659744977,47.54344421053625,45.13340635450015,46.86867135252291
46.2,47.1098662867233,50.057598821275405,47.993468523204115,46.89905732129995,45.26795228443319,47.757434295885076
47.5,48.61172846437378,51.49689984743688,49.64194438143821,47.52952102113514,45.53883261009656,49.01236308968845
48.7,51.267695213052974,52.93162277988927,50.638717577216795,50.678415176202265,47.38670723576391,50.91908077738984
50.0,53.63752777300027,53.96493035341095,52.319430591016555,55.132722833158965,50.37802216227996,53.368456658241655
51.5,55.42188682922213,54.86585727595255,54.63129800243311,54.91525135660996,51.28775723723936,54.44113709534298
53.0,56.749357664782735,56.440662562913275,56.87782646182683,55.45931802706065,52.71235797655345,55.88659874065186
54.5,58.17314211136083,58.67387961222818,58.7051213996848,57.15081380820189,55.24797326145014,57.76610622995473
56.0,59.771508007869386,60.500767494455616,60.28405704585225,58.796880147422115,57.28807657129133,59.47644427066831
58.0,61.668450838054326,62.17150800786938,61.80888636216346,60.34847925552961,59.306347743443226,61.18577451352256
60.0,63.40076749445562,63.738211298887435,63.42378910228501,62.0209083306828,61.20610180894593,62.86255398527891
61.5,65.07001488257477,65.10228461396021,65.11542884970297,63.776093311982976,63.111428016653775,64.51219667927371
63.0,66.50306957104252,66.40228461396019,66.53783437493726,65.45226959352628,64.79309188021676,65.99181372170169
65.0,67.83663575667187,67.63663575667186,67.8795323593661,66.9875189417038,66.38808044783647,67.3826402697173
67.0,69.23513059177982,68.97071732495408,69.28080941118424,68.38708788487361,68.07631069309078,68.81591672009843
69.0,70.63513059177983,70.23663575667186,70.72046532703956,69.94486977614955,69.8156305795257,70.28550676759797
71.0,72.0669218511605,71.37001488257476,72.1187186515055,71.6009209770721,71.58708270211703,71.75865344490218
73.0,73.4,72.47001488257477,73.40165212437171,73.12018505541587,73.32129325015552,73.15639537773953
75.0,74.69999999999999,73.60306957104252,74.64313939533781,74.5,74.74763607232319,74.45873711799686
77.5,75.93358982687998,74.70306957104252,75.8147553152921,75.7201850554159,75.97064248150286,75.6527386009344
80.0,77.03358982687998,75.60306957104251,76.82977995082831,76.92018505541589,77.14955096723756,76.74152408673882
82.5,77.96692185116049,76.50306957104252,77.7297799508283,77.82018505541589,78.09364312038578,77.65838533430608
85.0,78.73358982687998,77.40306957104251,78.47198631358856,78.54027672897047,78.88734504580246,78.4372097538112
87.5,79.43358982687997,78.10306957104251,79.17198631358856,79.16027588070904,79.57736688964171,79.11872499693942
90.0,80.03358982687998,78.70306957104252,79.74346508697897,79.72018505541588,80.22592474042764,79.71576412886704
92.5,80.56692185116049,79.36845083805433,80.28585448910238,80.2201850554159,80.80758727324155,80.27635749075058
95.0,80.9669218511605,79.90306957104251,80.65742449135816,80.6,81.11631938658617,80.66846791982248
97.5,81.2,80.40306957104252,81.0,80.84027672897047,81.22858446351626,80.94461600812151
100.0,81.5,80.86845083805433,81.2861845050195,81.04119983124485,81.11873128519662,81.16828349500067
103.0,81.7,81.20306957104252,81.51442746339745,81.16305327425582,81.05424921147345,81.33371178807334
106.0,81.93358982687997,81.50306957104252,81.74313939533783,81.28526041028545,80.89552183028849,81.48704155614027
109.0,82.1,81.66845083805433,81.84313939533783,81.36670626616768,80.70641036161295,81.56267930954223
112.0,82.13358982687997,81.70306957104253,81.90065786069425,81.40920611180408,80.51884678092296,81.5678043895286
115.0,82.1,81.60306957104252,81.87166275391891,81.30920611180409,80.2693904650428,81.47542436902984
118.0,82.0,81.43513059177982,81.87166275391891,81.28751894170378,80.10425535193784,81.38909990613992
122.0,81.93358982687997,81.36845083805434,81.77166275391892,81.20920611180408,80.09917276796867,81.32202342710394
125.0,81.7669218511605,81.10306957104252,81.64313939533781,81.08751894170379,80.09698645129993,81.17817455469279
128.0,81.6,80.90306957104252,81.47166275391892,80.9467367724147,80.12955656387544,81.04062856585742
132.0,81.43358982687998,80.60306957104251,81.31508314243885,80.74673677241469,80.12245081919326,80.87066200490784
136.0,81.23358982687998,80.40306957104252,81.11508314243883,80.50598456990744,80.04238624500813,80.68323200261497
140.0,81.00076749445562,80.17150800786939,80.97297191737704,80.32757995317387,79.88484930179663,80.49429207072353
145.0,80.90076749445562,79.93821129888742,80.7874892989204,80.02757995317387,79.63255580155452,80.28604558625511
150.0,80.70076749445562,79.70690501035459,80.58748929892042,79.75226959352628,79.2647583160586,80.03762797831013
155.0,80.40076749445561,79.50690501035459,80.40229476693692,79.4944829039731,78.90169651372457,79.7800408319962
160.0,80.26845083805432,79.34044167945491,80.23175513861906,79.2568801862013,78.50169651372458,79.56996741480114
165.0,80.06845083805433,79.10690501035458,80.07525122642457,79.03820413572707,78.26987853378934,79.36538379133151
170.0,79.93663575667185,78.97609175449222,79.94675150375355,78.83820413572707,78.15546292206542,79.22469043261471
175.0,79.80306957104251,78.84283030471974,79.86204375999246,78.63820413572708,78.05716603208585,79.09625711144679
180.0,79.70306957104252,78.61227178315619,79.73537086618987,78.53820413572706,78.10691859242567,78.98963184235814
185.0,79.63821129888743,78.57609175449223,79.71998423401443,78.41856144673369,78.27294945516101,78.97051366588495
190.0,79.57609175449221,78.41227178315619,79.70914589305829,78.2416304846358,78.39621298638704,78.91459336114397
195.0,79.5457671943847,78.05667255930051,79.68539130564125,77.90177156553219,78.19470064809627,78.74689623136064
200.0,79.64576719438469,77.93752777300027,79.7549176038529,77.64561850576126,77.81870399668723,78.66337654580863
206.0,79.68219967332303,77.84898359150841,79.77602210108667,77.27638445891927,77.33887340608561,78.53034170051288
212.0,79.97609175449222,77.98219812790056,79.92940676691627,77.24049770711906,76.40243374329711,78.54093123474627
218.0,80.07609175449221,78.28219812790056,80.1392427572199,77.72772497838042,75.49220086603216,78.65739304871046
224.0,80.0122717831562,78.6096325668162,80.21363940606881,77.7330507897238,75.2555259743218,78.70173285140098
230.0,79.98219967332304,78.59897445130925,80.20126136965905,77.70524571781294,74.77966717662065,78.64243690521931
236.0,79.91916705502754,78.40963256681621,80.24548235428293,77.58916450384231,74.82031036125288,78.58596872213623
240.0,79.82349685065981,78.22179738688897,80.22049951134703,77.39612341671483,74.62835356729333,78.4703153790459
250.0,79.9234968506598,78.22179738688897,80.27602210108665,77.32946279047815,74.45155588567161,78.48998501115798
258.0,80.01592692226706,78.5950645803583,80.28539130564124,77.40292143562195,74.3396566191723,78.59347444747893
265.0,80.14576719438469,79.0096325668162,80.33924275721992,77.71563814594207,74.12071353922283,78.76299541860273
272.0,80.1760917544922,79.42758719283593,80.39366590096782,78.07457085345679,74.17842791171054,78.93915051323106
280.0,80.07609175449221,79.68982856673472,80.34865957364795,78.13558189513115,74.45738977241956,78.98987337664578
290.0,79.97609175449222,79.78982856673473,80.31998423401444,78.13558189513115,74.70401873996116,78.99830333840156
300.0,79.87609175449221,79.75260953202218,80.21998423401445,78.03558189513116,74.81116874237709,78.92915582487545
307.0,79.7457671943847,79.55260953202217,80.17525122642458,77.96229091028928,74.75702750885927,78.82064027713933
315.0,79.48219967332304,79.35260953202217,80.01998423401444,77.8429811493985,74.52536462162114,78.62819335410639
325.0,79.18219967332304,79.15260953202218,79.83537086618986,77.78463808338924,74.31839796413901,78.43186515220106
335.0,78.98982856673473,78.91916705502754,79.71998423401443,77.64488034310517,74.09704404049724,78.25814317869725
345.0,78.69897445130925,78.48982856673472,79.60914589305827,77.33061143097007,73.7835426087788,77.98120719306827
355.0,78.67082970284298,78.09897445130926,79.55491760385289,77.09823976858218,73.2402620151669,77.79303672448914
365.0,78.73752777300027,77.93752777300027,79.63924275721992,77.15847190092309,72.73290079384682,77.77777126172751
375.0,78.87082970284297,77.88219812790055,79.73924275721993,77.27079476481823,72.56207668499917,77.83999197878293
387.0,78.8096325668162,77.82179738688895,79.78336396340043,77.29823976858218,72.31585079393132,77.81677022813537
400.0,78.4950645803583,77.46194867563764,79.71363940606881,77.05084410495871,71.9915286960133,77.58311809177312
412.0,78.08382334167594,77.22179738688894,79.5600593685791,76.73856044740174,71.03772200817053,77.28071369818545
425.0,77.95866027600835,77.00265450340339,79.4351604799582,76.50737481554312,70.21317459175901,77.08759162722296
437.0,77.90942248426019,76.792378988098,79.3351604799582,76.34446240195555,69.8890070307007,76.95871640019374
450.0,78.06878033996792,76.8672655885961,79.41363940606881,76.52529552561597,69.77364748586747,77.06726013489357
462.0,78.25521969308379,77.16726558859611,79.57848478147017,76.94340895570863,70.16336858565211,77.3175799816238
475.0,78.44898359150842,77.692378988098,79.86035311823197,77.44340895570863,70.69003018700424,77.6762000212514
487.0,78.6096325668162,78.63546263134683,80.14574459001024,78.09131511707565,71.7207198143499,78.17371127119182
500.0,78.43546263134682,78.83546263134681,80.34574459001024,78.40499945157856,72.16656267769426,78.32825511381752
515.0,78.10982855556756,78.46194867563766,80.37848478147016,77.95390777736931,71.81113420181845,78.08344384720556
530.0,77.82875610128313,78.35062128010364,80.37848478147016,77.92772497838043,71.73322890529363,77.99509055465762
545.0,77.52602452356692,77.785387104659,80.19817545090703,77.41255582673209,71.11108100351947,77.6241317589159
560.0,77.29389595883674,77.10330383828929,79.91941403242198,76.70680832883387,69.61865214271951,77.14532152713201
580.0,76.77100612011482,76.62602452356691,79.51068966302631,76.15465481762568,68.26057370344256,76.64315647420608
600.0,76.28573603864206,76.4491520399883,79.25821708819498,75.95271843178536,68.43268221603182,76.38120857739003
615.0,76.33855083142048,76.62457993687899,79.10287628300401,75.86293983447521,69.10264742581393,76.37591091063081
630.0,76.85647994661606,76.85098823501218,78.97640057047573,75.581982077163,69.13587615690446,76.43991972224521
650.0,77.11627783177747,76.52457993687898,79.15968554741491,75.26186047179027,69.34747892753259,76.45425305464516
670.0,77.31627783177747,76.90432912249857,79.43443179205896,75.34849062455747,69.18496307753836,76.68898100048604
690.0,77.66588846059688,77.40432912249857,79.63443179205895,75.40462186377204,69.36411044936779,76.96720007912606
710.0,78.31916705502753,77.80432912249856,79.78664191481758,75.5392349803619,69.38763588130314,77.29031198145022
730.0,78.81227178315618,77.59484664455461,79.7351604799582,75.45966900257464,69.07727481580342,77.33793261357991
750.0,79.0457671943847,76.97625435142638,79.6106896630263,75.45373010360203,67.96040355405518,77.20825952244097
775.0,79.34044167945491,76.1269682029423,79.59485407749126,75.64045651751542,67.4632979383389,77.16368426983294
800.0,79.9053180676647,75.58888863538651,79.90826714771634,76.03728695027627,67.33920942837838,77.44357813888237
825.0,80.4053180676647,75.94852015458807,80.01106138014495,75.81832250811809,66.70228497091328,77.66767100327996
850.0,80.86845083805433,76.41719474435358,80.25378373474547,75.82285948454422,66.77049609614987,77.99274809482006
875.0,82.03513059177983,77.06268190818898,80.65378373474547,76.15809842435779,67.54545533213147,78.73714875308508
900.0,82.47001488257477,77.34066681957172,80.85378373474546,76.12394990989901,67.8123800660361,79.02594071838362
925.0,82.27001488257477,77.38573603864207,81.00470702014275,76.23272060479835,68.34025794199046,79.01223759333519
950.0,82.37449351030438,76.60091389014042,80.89942293182199,76.34710962033078,69.18896015499118,78.95324335036466
975.0,83.1760917544922,77.17245249207645,80.77455785944568,76.41970493846868,68.41787662088439,79.34753530557842
1000.0,82.62761355743555,76.40921140720404,80.32076211162324,75.93645903738712,68.0722066521538,78.81028756645034
1030.0,81.94680047887707,76.55906263657509,80.15366387780146,75.96536180055963,67.44258016237237,78.45699807574897
1060.0,81.11406839527002,76.48161208533422,79.90343598990846,75.6403727603803,67.65821445449927,77.97963241863125
1090.0,80.60943953665227,75.0944886893229,79.2495669347549,74.57834699456919,66.66794431904808,77.24037311899647
1120.0,80.42952165428781,73.97641629732153,78.94956693475488,74.0347496227005,66.27832981850152,76.87456694755403
1150.0,80.19430925610405,74.21832544184971,79.02683455312959,74.5220413312885,65.57242661381187,76.86367778601746
1180.0,80.41595200332334,76.01152326304965,79.41363940606881,75.46304558559422,65.47738523364225,77.42015433811365
1220.0,80.4447529719088,77.54680047887706,79.8136394060688,76.37945873356645,65.9503300706066,77.93522207313674
1250.0,80.31664590330462,78.24680047887706,79.92683455312961,76.25654071663814,66.56836778109148,78.0543142305963
1280.0,80.68161208533421,78.92022160616295,80.02049951134704,76.20603794982318,66.70881770125077,78.34910393909124
1320.0,80.62812233674838,79.05522334988609,79.99366590096783,75.68308447912565,64.74869762526401,78.27186213167516
1360.0,79.73452415393479,78.55099006382058,79.7600593685791,75.38730954718184,61.89809333991394,77.72976475497029
1400.0,78.36023655467065,78.29430925610406,79.57640057047573,74.12623406003934,61.604515122899556,77.06010398522938
1450.0,78.30799265215589,77.63758968889495,79.5643876597268,73.13023841412758,59.265807267755235,76.7694559561245
1500.0,77.838581192224,76.81406839527003,79.31791536668759,71.88714732115898,58.78797065904715,76.24233520459322
1550.0,77.40123572626639,76.19393259456331,79.25012869190411,71.55005801178054,59.18167039953522,75.92971009509836
1600.0,76.178578322151,75.23819571547216,79.0501286919041,71.73631661645163,59.71365385306845,75.34264573442618
1650.0,74.31916705502753,74.55550427028119,78.73871757721683,72.05260192838996,61.41745130734688,74.70715015775534
1700.0,73.39046060092039,74.01711090628747,78.75990168395998,72.74188139716867,61.472033618096205,74.54579662029573
1750.0,72.27100612011482,72.47654672910747,78.90470702014275,73.04634473329135,60.56996278741114,74.26746304349297
1800.0,71.75638566828012,70.77275625338727,79.202876283004,73.54159336718865,60.58177918128098,74.27840772317205
1850.0,70.37605289976871,70.42129830443604,79.07091054784846,72.84312832371145,60.33227325451725,73.90892348724108
1900.0,69.60410916638598,71.20724699916734,79.35620560145522,72.94946760576832,59.90214113533095,74.12478501906098
1950.0,70.49393446629902,73.30231994589776,79.39597469427743,73.08370371062918,58.41196819840111,74.49157039913405
2000.0,72.01552947870444,74.26966078457042,79.3729339976448,73.07913904123029,59.18638321847189,74.78097697085137
2060.0,72.99733929915024,74.01406839527003,79.05630329962469,71.63389152839187,58.962385122713144,74.50141922048951
2120.0,73.32404759789095,73.9988909786879,78.9899856038755,72.36654744965068,58.9154055519965,74.59043472424757
2180.0,73.29360996840495,74.60969604679374,77.67593826617012,72.74582914158746,61.29694121304718,74.11547010672987
2240.0,73.05050718524296,73.36320526104171,76.59343966349465,71.04751075167623,59.68401417158209,73.06109432344135
2300.0,73.22952165428782,70.85556835660302,76.00959781022785,70.27458834392282,57.57552468644879,72.27046140379898
2360.0,74.17757950460711,71.35962034200111,76.60958104007872,71.33072438213713,58.034797856952295,73.00484776027596
2400.0,75.44588560685648,71.51430637862282,77.45147189760023,70.67604694785095,59.3319996499138,73.70568646868418
2500.0,77.05405093453075,72.39037884047718,78.01859694944146,72.14423446357628,59.252564780406416,74.732780391512
2580.0,77.78691806020399,72.5093573839858,78.55404741240618,72.72400094500298,58.29996667920997,75.28857929216595
2650.0,78.4595618344865,73.22762437426567,78.73303623537664,72.81730632207874,59.72268403256231,75.70380969435342
2720.0,78.87789079450555,74.4558878131556,79.03288615678966,72.63133001035565,60.896137203296334,76.12198922324473
2800.0,78.17928732607432,74.34786829224299,79.11633924270139,72.23010658849154,62.0133886496336,75.86270316940964
2900.0,77.97001488257477,73.73921320342698,78.77607854562373,72.0747036624042,62.48944895075914,75.55470414664586
3000.0,78.170829702843,74.05771722551388,78.61425686701165,71.45080050222336,62.587416629119474,75.55202048817054
3070.0,78.66839968904115,74.54132986207625,79.01580832039758,72.89143733340362,63.27810781911171,76.0928836855632
3150.0,79.54511556931757,75.6044481370906,79.63675229407058,72.93077232615755,64.49054027440684,76.82733873502782
3250.0,80.10464358834795,74.31554761008255,79.69381910258096,74.74746812781059,64.9979918865107,77.08659813396145
3350.0,80.4369601259437,74.58456243414706,80.30030337196953,75.30524503406848,65.01811965472291,77.53710501605897
3450.0,80.21152326304966,73.9429303948179,80.0919162801227,75.13091360679111,62.84165418999663,77.26621857258334
