Freq "Sound Power"
20.5078 62.02718718192328
21.9727 63.84555640898701
23.4375 64.78013646402421
24.9023 65.51628493817661
26.3672 66.2893381636914
27.832 67.10009103934033
29.2969 67.81793938468263
30.7617 68.6297112236079
32.2266 69.071287039182
33.6914 69.46124016152785
35.1562 70.51951150427259
36.6211 70.77379871149199
38.0859 71.21780379535709
39.5508 71.86179964808399
41.0156 72.33769465075434
42.4805 72.74628026334207
43.9453 73.40636659123614
45.4102 73.92887294710935
46.875 74.34366334808588
48.3398 74.66800601486953
51.2695 75.5350287729921
52.7344 75.98836521666381
54.1992 76.35717746916961
55.6641 76.6114489485103
58.5938 77.46333003948317
60.0586 77.829804678417
62.9883 78.40307709321961
64.4531 78.72366652863538
67.3828 79.2258245016488
68.8477 79.51896179092965
71.7773 80.14761491553736
74.707 80.75115040811711
77.6367 81.26838864717044
79.1016 81.49535446032694
82.0312 81.92337428188851
84.9609 82.32762487376363
87.8906 83.0276162993663
90.8203 83.22126016739999
95.2148 83.85267967216834
98.1445 84.21754838181657
101.074 84.52541110723479
105.469 85.07796947916593
108.398 85.42967224537301
112.793 85.87676952304962
117.188 86.19421888772253
120.117 86.40264906401156
124.512 86.68202812017937
128.906 86.95400678044132
133.301 87.20000865960328
139.16 87.39103193643815
143.555 87.49749313977826
147.949 87.54954240641234
153.809 87.63045434985106
159.668 87.69293811079085
165.527 87.82528656095877
171.387 87.73407521357778
177.246 87.52082023313766
183.105 87.3345260186413
188.965 87.21008574185143
196.289 87.05477858997718
203.613 86.80173071452852
210.938 86.57338700550794
218.262 86.39515118591083
225.586 86.23258875594946
232.91 85.94160453524105
241.699 85.4644619138288
250.488 85.14518894281315
259.277 85.11167225342636
268.066 84.58233891336526
276.855 84.4225133613598
287.109 84.80829156127304
297.363 85.11863375184002
307.617 84.56836745538175
319.336 83.85687061520652
329.59 83.52761244270103
341.309 83.18845540838619
353.027 83.00885042025233
366.211 82.96458939081005
379.395 82.92601184359114
392.578 82.51638941541297
405.762 82.18473908129653
420.41 82.22631477984477
435.059 81.52138484317211
451.172 81.29838587009607
465.82 81.29645426221587
483.398 81.35126840336602
499.512 81.16767429635891
517.09 80.49368525829175
536.133 80.13270246797266
555.176 80.14326694246891
574.219 80.07171085472245
594.727 79.41497180861028
615.234 79.36537016798631
637.207 79.85800397509757
659.18 79.39293615594997
682.617 79.38906980574679
707.52 78.89097081353319
732.422 79.2065062739095
757.324 78.87177237160878
785.156 78.46251029466771
811.523 77.6309832199775
840.82 79.51803522492018
870.117 80.91571935000239
900.879 80.82826136035801
933.105 81.3225989516837
965.332 80.99744217482045
1000.49 81.02631357607554
1035.64 80.82239096218643
1072.27 81.08081270894637
1108.89 81.17430142125282
1148.44 81.51299433702683
1189.45 81.52964648202904
1230.47 81.66643799847094
1274.41 81.66807514574059
1319.82 81.29309725135181
1366.7 81.36143966918276
1413.57 80.3432227645617
1463.38 79.57600672750843
1516.11 79.73425997586148
1568.85 79.31447402967605
1624.51 79.22089203982499
1681.64 78.91046951376462
1741.7 79.1978985811512
1803.22 79.34827624919599
1866.21 79.05736812163472
1932.13 79.17219966071754
1999.51 79.54065658095209
2069.82 79.86267103459966
2143.07 80.27711800068701
2219.24 80.16648991834293
2296.88 80.91638403906956
2378.91 81.14648470194176
2462.4 81.7044587808321
2548.83 81.69889809749681
2639.65 81.42414052937046
2731.93 80.69010894373501
2828.61 81.12040150645853
2928.22 81.53783502328828
3030.76 81.55102037775968
3137.7 81.44578237546737
3249.02 81.57012298217619
3363.28 81.53970026544995
3481.93 81.81547028148736
3604.98 81.97275153750421
3732.42 82.15951486099355
3864.26 82.29566158056485
4000.49 81.96170269699665
4141.11 81.96230744831492
4287.6 81.95067593928897
4438.48 81.8799752323856
4595.21 81.56275680779522
4756.35 81.95467198560083
4924.8 82.19186033535355
5097.66 81.93432706189485
5277.83 81.97984733842914
5463.87 81.67537084448767
5657.23 81.34151205442157
5856.45 81.04324312420502
6062.99 81.13082434943658
6276.86 80.53017076044618
6498.05 80.29813696686807
6726.56 80.28505813801544
6963.87 79.9645198293166
7209.96 80.01683787743669
7464.84 79.91026805961796
7727.05 79.75158132077004
7999.51 79.36820866853628
8282.23 79.39093103750226
8573.73 79.58640423378408
8876.95 79.49077329370132
9188.96 79.26908525336218
9514.16 78.99468651834395
9849.61 78.80635221698734
10196.8 78.59672271996403
10555.7 78.39696341525406
10927.7 78.22696121293153
11313.0 77.74272089963206
11712.9 77.47006026797617
12126.0 77.17651450732255
12553.7 77.1768598822231
12996.1 78.03527662722048
13454.6 78.66258749257388
13929.2 79.86913725571289
14419.9 81.74809176521858
14928.2 83.67617973352657
15455.6 84.05811080368171
16000.5 82.40390364974644
16564.5 79.21585204149183
17148.9 76.42775022040004
17752.4 74.07279377834475
18379.4 72.35401453290028
19026.9 71.189155919138
19697.8 70.47307790960978
19999.5 70.19077517188474
