Freq "Total Early Reflection"
22.4 10.5654224201716
23.0 11.602672921361986
23.6 12.435344771784528
24.0 14.328862576011048
25.0 16.132019969975588
25.8 17.529196726996545
26.5 18.757461834305886
27.2 21.606083101466723
28.0 24.561772399163416
29.0 27.658882422449906
30.0 31.532714375295896
30.7 34.18475283785632
31.5 36.825671324552175
32.5 41.653808288080214
33.5 46.84392729300863
34.5 48.38408001393323
35.5 50.7235217594031
36.5 52.331204227540965
37.5 53.28068122800089
38.7 52.31661690079338
40.0 51.60838463606309
41.2 52.20492632943811
42.5 53.84859298639114
43.7 56.15807857664153
45.0 58.25229697900855
46.2 58.257456325510745
47.5 58.98311651249104
48.7 61.25771938535196
50.0 63.973870023626205
51.5 62.958247561202484
53.0 63.55335726512203
54.5 64.4063837069266
56.0 65.50689047383518
58.0 67.01750862272216
60.0 68.09719386947633
61.5 68.90071948115444
63.0 69.7141573751646
65.0 70.52915538007399
67.0 71.25453523768256
69.0 71.73969838970363
71.0 71.97057290807686
73.0 72.3371216798018
75.0 72.88813912258335
77.5 73.51582911896874
80.0 73.93358883621686
82.5 74.12751670494332
85.0 74.32387061466646
87.5 74.51699689312498
90.0 74.61989540245604
92.5 74.5609606096592
95.0 74.44667641422417
97.5 74.34895533417668
100.0 74.18953597125245
103.0 73.86955059910322
106.0 73.6433679544901
109.0 73.46916855039613
112.0 73.2388046946274
115.0 72.94137478670068
118.0 72.63260923415751
122.0 72.37110345322013
125.0 72.10687344466335
128.0 71.80417363415371
132.0 71.57512658395443
136.0 71.32991636408885
140.0 71.07986395920037
145.0 70.93139383348877
150.0 70.59950187783318
155.0 70.25961583924934
160.0 69.99946431033153
165.0 69.93769630107076
170.0 69.74182434610388
175.0 69.62749155708165
180.0 69.52807357120166
185.0 69.58211057110633
190.0 69.57558269421449
195.0 69.55474932837738
200.0 69.30267264380625
206.0 69.09200024819584
212.0 68.94866802285385
218.0 68.85588670583084
224.0 68.83283933199223
230.0 68.83155788527364
236.0 68.83886712014449
240.0 68.76418551306173
250.0 68.81094091191086
258.0 68.94740756021933
265.0 69.09403440660331
272.0 69.25280430021023
280.0 69.47025622503703
290.0 69.52117448955867
300.0 69.36288218751388
307.0 69.15502502519459
315.0 69.01594417038008
325.0 68.90020289976619
335.0 69.05204503692525
345.0 69.57806451853331
355.0 69.74182979981897
365.0 69.77834951081718
375.0 69.63774972285202
387.0 69.2421831065562
400.0 68.66126568334504
412.0 68.38399953431274
425.0 68.29656742185861
437.0 68.23021458881506
450.0 68.2999017354179
462.0 68.6046879614088
475.0 68.82999331333941
487.0 69.02984916507971
500.0 68.95264300474128
515.0 68.57417032997809
530.0 68.18326540950646
545.0 67.75059251439187
560.0 67.28171418812347
580.0 67.3289156745481
600.0 67.66599985806042
615.0 68.1159553536459
630.0 67.78287626839813
650.0 67.4292081416263
670.0 67.7303312843725
690.0 68.21602808912431
710.0 68.806922366294
730.0 69.25734817198456
750.0 69.3647593413405
775.0 69.23476731410994
800.0 68.90475219821869
825.0 68.5531061384391
850.0 68.41216473153032
875.0 68.10070064181103
900.0 67.2307385475132
925.0 67.11266439294205
950.0 66.71921074075159
975.0 67.27944873613187
1000.0 68.19824641870746
1030.0 67.7699140014525
1060.0 67.31029508441111
1090.0 66.87957032238178
1120.0 66.54028481990626
1150.0 65.98102291660733
1180.0 65.81211712650081
1220.0 65.38528723321721
1250.0 65.11876259857729
1280.0 65.28243152750662
1320.0 64.96675532675746
1360.0 65.07381886773348
1400.0 65.00757242356919
1450.0 65.23639231114952
1500.0 64.6249699711995
1550.0 63.93677084507917
1600.0 63.48237559370121
1650.0 63.049148812792964
1700.0 63.608492707593044
1750.0 63.50456263348386
1800.0 63.62907748370729
1850.0 63.38859317485198
1900.0 63.21317132731369
1950.0 63.40914238349639
2000.0 63.30542173563603
2060.0 62.93509461923429
2120.0 62.749000907532576
2180.0 63.02905218450927
2240.0 62.909948057219594
2300.0 62.38477080537979
2360.0 62.412350049738336
2400.0 62.940429854651725
2500.0 62.90380954362193
2580.0 62.92351120427131
2650.0 62.58986913452584
2720.0 63.02328041747603
2800.0 63.57407988688588
2900.0 63.74112301493341
3000.0 64.24050215972541
3070.0 64.55929429732677
3150.0 64.97518244550828
3250.0 65.0078548714557
3350.0 64.92667636103064
3450.0 64.26115121639883
3550.0 64.04881477243373
3650.0 63.92064092789951
3750.0 63.48066130915588
3870.0 63.428400615568435
4000.0 62.67993311409829
4120.0 62.5950400081111
4250.0 63.2687054398089
4370.0 64.19839004862298
4500.0 64.66545025391875
4620.0 64.89997359357228
4750.0 65.24312082934064
4870.0 64.80282578004788
5000.0 63.527342336376705
5150.0 62.99160383446892
5300.0 62.85413327608087
5450.0 63.310381450007924
5600.0 63.75504443523113
5800.0 64.25239000562239
6000.0 64.54576823828172
6150.0 64.08577346158992
6300.0 63.54540251027383
6500.0 63.54598244176158
6700.0 64.67927426455219
6900.0 65.14922213555825
7100.0 65.26015926868256
7300.0 65.54704488110895
7500.0 65.61021235403871
7750.0 64.40345552917357
8000.0 63.83255035902934
8250.0 63.793239120325836
8500.0 64.63281002400643
8750.0 65.1561083118937
9000.0 64.98551873971509
9250.0 64.70520769641917
9500.0 64.43781430301352
9750.0 64.50045940092703
10000.0 64.6327204591951
10300.0 64.46625670578776
10600.0 64.16211216757767
10900.0 64.5150712690702
11200.0 65.45250480195686
11500.0 65.91873755624512
11800.0 65.95779732965421
12200.0 66.14206014779084
12500.0 65.35820514488525
12800.0 65.17505102000828
13200.0 64.92923244921356
13600.0 64.14769525863096
14000.0 64.63379950834445
14500.0 63.458141711243016
15000.0 64.19311803661905
15500.0 63.63287545296858
16000.0 64.2880522306853
16500.0 64.70076095480626
17000.0 65.08390903928091
17500.0 64.76701610546867
18000.0 65.09818886458133
18500.0 66.19701619731843
19000.0 64.39379501689977
19500.0 62.69151830542094
