Freq "Estimated In-Room Response"
22.4 27.143642363945233
23.0 27.930370229646726
23.6 35.6467328230698
24.0 38.94260551055301
25.0 39.799443290094715
25.8 40.03487997087548
26.5 39.6324609166994
27.2 38.880910199464736
28.0 38.410338475100176
29.0 37.98095823330287
30.0 37.484823157782145
30.7 37.38549706875175
31.5 38.00552464987591
32.5 39.632298262780054
33.5 42.81965077755659
34.5 46.79634638799247
35.5 51.39118985062892
36.5 54.98723969409228
37.5 58.027074346173904
38.7 60.703432692433395
40.0 63.19314292215445
41.2 65.88878815004824
42.5 68.58899708313554
43.7 71.17214518659912
45.0 73.53761434901166
46.2 75.52117397720637
47.5 77.26354281445565
48.7 78.79125029897303
50.0 80.19209584142921
51.5 81.42484806495334
53.0 82.52965033016672
54.5 83.47378710462735
56.0 84.26701276419394
58.0 84.8608727245657
60.0 85.20913088636688
61.5 85.44944826342207
63.0 85.66440540500898
65.0 85.83984811961426
67.0 86.00017214178838
69.0 86.19291281429655
71.0 86.40889151191526
73.0 86.66229381678322
75.0 86.98352702122185
77.5 87.1748918270656
80.0 87.37747644078843
82.5 87.513024170706
85.0 87.60046657327933
87.5 87.60179858511442
90.0 87.48019228498052
92.5 87.2035186564829
95.0 86.78068434070677
97.5 86.40122531555475
100.0 86.16050309389152
103.0 86.13617522924615
106.0 86.35758577922489
109.0 86.6129294457554
112.0 86.8937799932525
115.0 87.0912704635248
118.0 87.24164073807485
122.0 87.27066548114298
125.0 87.16400272110255
128.0 87.05741979560896
132.0 86.94611322516414
136.0 86.81771575590096
140.0 86.61539778000616
145.0 86.30483570621897
150.0 85.96678344921256
155.0 86.00204201198576
160.0 86.38875791342662
165.0 86.64474188989188
170.0 86.65227522652445
175.0 86.5710755187891
180.0 86.37069297596183
185.0 86.0497913102032
190.0 85.67274929119355
195.0 85.45133525525354
200.0 85.29154921762753
206.0 84.90746662292223
212.0 84.56106145867817
218.0 85.10829473418939
224.0 86.15368091920317
230.0 86.60119883345347
236.0 86.71369168039587
240.0 86.65190385641395
250.0 86.53708450080208
258.0 86.31874015535792
265.0 86.15271620541562
272.0 86.04834996483454
280.0 86.03144326777259
290.0 86.03793953932798
300.0 86.01467009822836
307.0 85.89850213130016
315.0 85.72046235751647
325.0 85.61322221719091
335.0 85.52341329122483
345.0 85.35110964552393
355.0 85.1264670461922
365.0 85.02540365122387
375.0 85.17376277971961
387.0 85.35253040773593
400.0 85.28047505689956
412.0 84.88331939510586
425.0 84.2144372324821
437.0 83.51156168499841
450.0 82.91982903440238
462.0 82.58135692623654
475.0 82.42617406120088
487.0 82.46476171093704
500.0 82.64685094428701
515.0 82.61129773373388
530.0 82.62687795558008
545.0 82.72770546958286
560.0 82.32389007326105
580.0 81.64613378064038
600.0 81.24871864059169
615.0 81.12894892490644
630.0 81.03904101061816
650.0 80.9899709831905
670.0 81.14460752983108
690.0 81.52810305452012
710.0 82.06794362770734
730.0 82.14301417206994
750.0 81.63041004778803
775.0 80.41044808250487
800.0 79.33977768502926
825.0 79.44007329976229
850.0 80.0884141480755
875.0 80.74476629064137
900.0 81.36105653621563
925.0 81.83418945249832
950.0 82.08231357689546
975.0 82.09691122748765
1000.0 82.01891224985629
1030.0 82.09568165237974
1060.0 82.0914837163552
1090.0 82.03850042320468
1120.0 81.91651645499805
1150.0 81.77713652733395
1180.0 81.85567214593378
1220.0 81.84150808343686
1250.0 81.50268904854035
1280.0 81.14294461368684
1320.0 81.074185023536
1360.0 81.22449609122908
1400.0 81.18842979163601
1450.0 80.89881479197244
1500.0 80.3507925964633
1550.0 79.85340488102297
1600.0 80.08146454531528
1650.0 80.2563236790371
1700.0 79.90136824432905
1750.0 79.61030865205431
1800.0 79.36167360789432
1850.0 79.12495177851467
1900.0 79.25612434145319
1950.0 79.6333743045912
2000.0 79.87283566557713
2060.0 79.88201178619444
2120.0 79.89937637582585
2180.0 79.68657003748255
2240.0 79.64032229858803
2300.0 79.37999587389992
2360.0 78.58255829081725
2400.0 78.66200384227118
2500.0 79.10278277580132
2580.0 79.01411481274442
2650.0 79.22313592820335
2720.0 79.41919332728061
2800.0 79.74895307103056
2900.0 79.8216156280349
3000.0 79.42145458765695
3070.0 79.64131310689999
3150.0 80.20003522048665
3250.0 79.95635987606477
3350.0 79.39169103112056
3450.0 79.34096772556329
3550.0 80.00267165397868
3650.0 80.27078455735064
3750.0 80.00590074601764
3870.0 80.08628583289801
4000.0 79.78977814831562
4120.0 79.6856463385856
4250.0 79.67851808693985
4370.0 79.47062518167753
4500.0 79.87894506314522
4620.0 79.61871685798219
4750.0 79.10431187766393
4870.0 79.31370468442833
5000.0 79.53730080627093
5150.0 79.43552254699185
5300.0 79.12075228639337
5450.0 79.28712687554325
5600.0 79.89664421486984
5800.0 79.66718569274481
6000.0 79.16649710953145
6150.0 79.40541972026925
6300.0 79.4878285248555
6500.0 79.24749063816327
6700.0 79.64836276170365
6900.0 80.2477610292373
7100.0 79.75561558234656
7300.0 78.9033587048489
7500.0 78.72661928550183
7750.0 78.3950985050174
8000.0 78.81475762123924
8250.0 79.60100327483308
8500.0 80.46120479852375
8750.0 80.34179100971954
9000.0 81.48930204967334
9250.0 81.9717985660166
9500.0 80.98822970373453
9750.0 80.37241810611981
10000.0 81.59780450014988
10300.0 83.03189034395288
10600.0 82.74051201700969
10900.0 81.58827373542165
11200.0 80.65264760754843
11500.0 81.01147847083251
11800.0 79.75013568830003
12200.0 77.77800293148421
12500.0 77.46697810490684
12800.0 77.14695697171972
13200.0 76.88327732405995
13600.0 79.83779899668279
14000.0 81.88307507417933
14500.0 81.71935092671532
15000.0 80.70060860010578
15500.0 78.02615241652437
16000.0 73.33935704223369
16500.0 75.02966208702358
17000.0 75.69839995210137
17500.0 76.37546314977818
18000.0 74.59338794152477
18500.0 65.29306175167655
19000.0 59.818724090547434
19500.0 63.58545767108656
