Freq "Listening Window"
20.507813 59.023160727305
21.972656 59.119599273341606
23.4375 61.13166472841954
24.902344 62.123957637089475
26.367188 63.418136806753225
27.832031 65.13768447668681
29.296875 66.49862232016544
30.761719 67.67020751455543
32.226563 68.92441154320409
33.691406 70.2801904739942
35.15625 71.55585217425133
36.621094 72.77308790558939
38.085938 73.96079924948565
39.550781 75.01367088416976
41.015625 76.13483821609087
42.480469 77.15100911583677
43.945313 78.11296802946524
45.410156 79.0025507133687
46.875 79.81540751124717
48.339844 80.55139151954208
51.269531 81.72253939190973
52.734375 82.15647671041025
54.199219 82.475830385321
55.664063 82.72154417214865
58.59375 83.00187225382449
60.058594 83.0526323452761
62.988281 83.05156708629936
64.453125 83.02057720576633
67.382813 83.07064177465634
68.847656 83.06934104162664
71.777344 82.97292094697998
74.707031 82.92373307419739
77.636719 82.89123180136114
79.101563 82.82878871622252
82.03125 82.69928613158011
84.960938 82.65320989761457
87.890625 82.57994777914128
90.820313 82.48827944542677
95.214844 82.4867110845898
98.144531 82.49383909608893
101.07422 82.44504663879404
105.46875 82.35087591937746
108.39844 82.3286407475039
112.79297 82.37151403004248
117.1875 82.40602262612346
120.11719 82.35408906523767
124.51172 82.30795361692121
128.90625 82.26063172868743
133.30078 82.42872072490339
139.16016 82.45123099249079
143.55469 82.23355740532806
147.94922 82.09690080168662
153.80859 82.13268207949376
159.66797 82.29016750253531
165.52734 82.29850897293726
171.38672 82.3073642368329
177.24609 82.02930103570559
183.10547 81.89346679201094
188.96484 82.04506349219928
196.28906 82.3288759248622
203.61328 82.05575496774112
210.9375 81.79605748334588
218.26172 81.87437118575068
225.58594 81.79174864591523
232.91016 82.2306048179198
241.69922 81.73371963852803
250.48828 82.11748558470342
259.27734 82.14810287843876
268.06641 81.78882486971129
276.85547 81.29782975138758
287.10938 81.6081542008144
297.36328 81.6002298196664
307.61719 81.10604360546189
319.33594 80.89811916157744
329.58984 80.91139577879703
341.30859 80.90751479758774
353.02734 80.91298712499821
366.21094 80.76328316489436
379.39453 81.69685247497804
392.57813 81.71124276794751
405.76172 81.02522543041461
420.41016 81.2358306624914
435.05859 81.387978479141
451.17188 80.73592634331185
465.82031 81.32643883660218
483.39844 81.24726806475887
499.51172 80.9391737970524
517.08984 80.84650278015494
536.13281 80.79660816119812
555.17578 81.56344519655165
574.21875 82.31647805095862
594.72656 81.2793271371261
615.23438 81.31800282802733
637.20703 81.14987013832584
659.17969 81.50542576976476
682.61719 81.18553563937355
707.51953 81.7569718017907
732.42188 81.57364492163929
757.32422 81.56991032424337
785.15625 81.26988611531033
811.52344 80.89605185725019
840.82031 81.03554846678037
870.11719 80.86135470364255
900.87891 81.22392203259302
933.10547 81.72480987133021
965.33203 81.37662879067925
1000.4883 81.20828098979104
1035.6445 81.02122608375062
1072.2656 81.28373469147789
1108.8867 81.6791625351343
1148.4375 81.97554378137794
1189.4531 82.33773670054745
1230.4688 82.37069478012194
1274.4141 82.49217329898242
1319.8242 82.16376639669187
1366.6992 82.1757540436896
1413.5742 82.08548792329701
1463.3789 82.50710316447757
1516.1133 82.12448957674754
1568.8477 81.6492550426026
1624.5117 81.55048903448402
1681.6406 81.49809152013718
1741.6992 81.5904433221343
1803.2227 81.13931537300739
1866.2109 80.46939209901383
1932.1289 80.62939528736776
1999.5117 81.13858840860324
2069.8242 80.93355408143005
2143.0664 80.04068938699344
2219.2383 80.28297690436503
2296.875 80.99462821214034
2378.9063 80.61175224321309
2462.4023 80.58529573208716
2548.8281 80.71808970805718
2639.6484 80.53823217725208
2731.9336 80.74479040180599
2828.6133 81.16304587941622
2928.2227 80.21198303651327
3030.7617 80.43741459753406
3137.6953 80.82788286264297
3249.0234 80.56433653555443
3363.2813 80.59397766609125
3481.9336 80.67988616621635
3604.9805 80.74711207679907
3732.4219 80.16717796443534
3864.2578 80.56745090561115
4000.4883 80.26486011030595
4141.1133 80.10745669868386
4287.5977 79.92272032763235
4438.4766 80.00842105384649
4595.2148 79.53000889441768
4756.3477 79.9485143927256
4924.8047 79.43940786785343
5097.6563 79.6821622691435
5277.832 79.92243336567464
5463.8672 79.89363318304746
5657.2266 80.32912257654209
5856.4453 80.45536434170779
6062.9883 80.19087922642011
6276.8555 80.48971893448305
6498.0469 80.32202607017602
6726.5625 80.64628461597869
6963.8672 80.45470234446911
7209.9609 80.45827525329439
7464.8438 80.63034904219366
7727.0508 80.49488456559479
7999.5117 80.64906147664658
8282.2266 80.81849773148376
8573.7305 80.79436069849136
8876.9531 80.66073447200145
9188.9648 80.5930757398084
9514.1602 80.51488007604766
9849.6094 80.50967349500615
10196.777 80.44989750638635
10555.664 80.56796899725914
10927.734 80.51062528553796
11312.988 80.5215394409296
11712.891 80.38147845927682
12125.977 80.34667404222454
12553.711 80.24311980497582
12996.094 80.15876282390509
13454.59 80.04070561779226
13929.199 79.78534025977733
14419.922 79.35251425379663
14928.223 79.17450008453295
15455.566 79.22750470117559
16000.488 79.2339896035383
16564.453 79.23222097991578
17148.926 79.23695319282368
17752.441 79.39716006853804
18379.395 79.52206763092049
19026.855 79.41929723670897
19697.754 79.35184332528995
19999.512 79.66728882593362
