Freq "Sound Power"
20.507813 60.8236785254458
21.972656 62.27917533241869
23.4375 63.97173834583917
24.902344 65.05712609353586
26.367188 66.83738340062357
27.832031 67.80050197495991
29.296875 68.92991911575994
30.761719 70.02304499212794
32.226563 71.11471414765039
33.691406 72.26161143405994
35.15625 73.36158438155404
36.621094 74.39693771806026
38.085938 75.43266327437841
39.550781 76.3746234604799
41.015625 77.37273326033754
42.480469 78.28892182258512
43.945313 79.14086328511071
45.410156 79.93752255881166
46.875 80.66366625925612
48.339844 81.3289969938106
51.269531 82.36529779675494
52.734375 82.74265547563397
54.199219 83.01695137065131
55.664063 83.21334624848713
58.59375 83.40204126231392
60.058594 83.4155938749826
62.988281 83.33983770079634
64.453125 83.29073000659369
67.382813 83.29017410030906
68.847656 83.27077677831136
71.777344 83.15174067797524
74.707031 83.07848923172209
77.636719 83.01630177743755
79.101563 82.93902179824933
82.03125 82.78219145518781
84.960938 82.71588944048062
87.890625 82.61575387294788
90.820313 82.49742669049884
95.214844 82.46888374591946
98.144531 82.43829140430925
101.07422 82.38464144766031
105.46875 82.30936760376736
108.39844 82.23922128764451
112.79297 82.22416641033614
117.1875 82.20216259752397
120.11719 82.16583709590684
124.51172 82.10735602214784
128.90625 81.92937738923149
133.30078 81.93077831301366
139.16016 81.99294812503331
143.55469 81.860353408145
147.94922 81.68868636637285
153.80859 81.62834096040746
159.66797 81.72752643702233
165.52734 81.61289122367813
171.38672 81.66374523461947
177.24609 81.43953264039901
183.10547 81.18611369933025
188.96484 81.16326038046125
196.28906 81.41687332348444
203.61328 81.14451370106609
210.9375 80.84860239429777
218.26172 80.75916868303617
225.58594 80.48314943724596
232.91016 80.91278621528126
241.69922 80.54770547993797
250.48828 80.595479492004
259.27734 80.66122558176976
268.06641 80.61451564389935
276.85547 80.02733174028434
287.10938 79.8863014065059
297.36328 80.1413953944408
307.61719 79.52164417432051
319.33594 79.45896142716607
329.58984 79.13100370877832
341.30859 79.32823231186877
353.02734 79.28058523288807
366.21094 78.67683604535823
379.39453 78.5467975067588
392.57813 78.65409572821086
405.76172 78.47365059004413
420.41016 78.36376048522324
435.05859 78.27824716373324
451.17188 78.06749477532752
465.82031 77.84944105276722
483.39844 77.89768288769132
499.51172 77.72565587696113
517.08984 77.76540692131539
536.13281 77.52470733995565
555.17578 77.6025082063093
574.21875 77.9543418415273
594.72656 77.5897374643189
615.23438 77.46882795268982
637.20703 77.26224740469739
659.17969 77.30971385273698
682.61719 76.77334323708715
707.51953 77.0691895094384
732.42188 76.64281115588385
757.32422 76.71685221352887
785.15625 76.19293849312939
811.52344 75.94809518575015
840.82031 75.99116671083635
870.11719 75.63004231021864
900.87891 75.89398524795462
933.10547 76.13774020077366
965.33203 75.905299572484
1000.4883 75.78925975443677
1035.6445 75.67164419067707
1072.2656 75.61844169332375
1108.8867 75.83154384754799
1148.4375 75.92838463755542
1189.4531 76.06185111135174
1230.4688 76.15318132853128
1274.4141 76.17993428567603
1319.8242 75.9934112552741
1366.6992 76.07785872916126
1413.5742 76.08778799709052
1463.3789 76.10758580965394
1516.1133 75.79073455489849
1568.8477 75.28218298192097
1624.5117 75.13593877852337
1681.6406 75.21866574165335
1741.6992 75.16874000655753
1803.2227 74.82486308456794
1866.2109 74.5158353353411
1932.1289 74.56804896608979
1999.5117 74.7903121305851
2069.8242 74.72516287937525
2143.0664 74.27024308064968
2219.2383 74.33469701493507
2296.875 74.97789210729765
2378.9063 74.9806723134971
2462.4023 75.06375160302862
2548.8281 75.18936980274255
2639.6484 75.25233791611915
2731.9336 75.60696978766822
2828.6133 75.86073269014527
2928.2227 75.52106280553325
3030.7617 75.52845666090239
3137.6953 75.79978251783893
3249.0234 75.59801104157036
3363.2813 75.20290428821843
3481.9336 75.17668987428637
3604.9805 75.22665792275711
3732.4219 75.00060412434047
3864.2578 75.01997199499387
4000.4883 74.76628975369692
4141.1133 74.46198345989941
4287.5977 74.22796739305473
4438.4766 74.1879294736902
4595.2148 74.0190716231568
4756.3477 74.21828053014985
4924.8047 74.2079224764789
5097.6563 74.29619335482377
5277.832 74.17925286964866
5463.8672 74.1546329428375
5657.2266 74.07030239363252
5856.4453 73.9252102807992
6062.9883 73.9663916628836
6276.8555 73.83036616940852
6498.0469 73.55815237025605
6726.5625 73.61760307830737
6963.8672 73.24299078682559
7209.9609 73.04787824718589
7464.8438 72.88578397395322
7727.0508 72.62841628270205
7999.5117 72.64830455103045
8282.2266 72.71824335865485
8573.7305 72.62031612199246
8876.9531 72.48403165923392
9188.9648 72.38530886260796
9514.1602 72.24571909928581
9849.6094 72.04180121022593
10196.777 71.89305714580483
10555.664 71.80918359327602
10927.734 71.59910146533146
11312.988 71.45848138648914
11712.891 71.22983034110025
12125.977 71.0322940739632
12553.711 70.76529782359789
12996.094 70.56950573819243
13454.59 70.43222715218131
13929.199 70.2315703913144
14419.922 69.80228168793042
14928.223 69.5808895177197
15455.566 69.51729530692036
16000.488 69.56110731735153
16564.453 69.52863910354496
17148.926 69.53116674229099
17752.441 69.53320592629504
18379.395 69.58346408294054
19026.855 69.49591674101228
19697.754 69.3466543933567
19999.512 69.50621869008195
