Freq "Ceiling Bounce"
22.4 47.66845083805433
23.0 47.86845083805432
23.6 48.03663575667186
24.0 48.20306957104251
25.0 48.368450838054336
25.8 48.50306957104252
26.5 48.603069571042504
27.2 48.76845083805433
28.0 48.868450838054336
29.0 48.968450838054345
30.0 49.06845083805431
30.7 49.16845083805433
31.5 49.203069571042526
32.5 49.26845083805433
33.5 49.36845083805432
34.5 49.40306957104253
35.5 49.46845083805433
36.5 49.50306957104252
37.5 49.568450838054325
38.7 49.568450838054325
40.0 49.60306957104252
41.2 49.60306957104252
42.5 49.66845083805432
43.7 49.66845083805432
45.0 49.70306957104251
46.2 49.70306957104251
47.5 49.76845083805433
48.7 49.76845083805433
50.0 49.76845083805433
51.5 49.80306957104252
53.0 49.80306957104252
54.5 49.80306957104252
56.0 49.80306957104252
58.0 49.80306957104252
60.0 49.80306957104252
61.5 49.80306957104252
63.0 49.80306957104252
65.0 49.868450838054336
67.0 49.868450838054336
69.0 49.868450838054336
71.0 49.868450838054336
73.0 49.868450838054336
75.0 49.868450838054336
77.5 49.868450838054336
80.0 49.868450838054336
82.5 49.868450838054336
85.0 49.868450838054336
87.5 49.868450838054336
90.0 49.868450838054336
92.5 49.868450838054336
95.0 49.868450838054336
97.5 49.868450838054336
100.0 49.868450838054336
103.0 49.903069571042515
106.0 49.903069571042515
109.0 49.903069571042515
112.0 49.9404416794549
115.0 49.9404416794549
118.0 49.9404416794549
122.0 49.9404416794549
125.0 49.906905010354585
128.0 49.840441679454905
132.0 49.840441679454905
136.0 49.77150800786938
140.0 49.70306957104251
145.0 49.63663575667187
150.0 49.568450838054325
155.0 49.53435140868502
160.0 49.50076749445562
165.0 49.4669218511605
170.0 49.4669218511605
175.0 49.50000000000001
180.0 49.50000000000001
185.0 49.50000000000001
190.0 49.6
195.0 49.6
200.0 49.6
206.0 49.63358982687998
212.0 49.699999999999996
218.0 49.73358982687997
224.0 49.73358982687997
230.0 49.7669218511605
236.0 49.79999999999999
240.0 49.833589826879965
250.0 49.833589826879965
258.0 49.76769521305294
265.0 49.73358982687997
272.0 49.70076749445561
280.0 49.667695213052944
290.0 49.53513059177984
300.0 49.43513059177982
307.0 49.27001488257478
315.0 49.10306957104252
325.0 48.83821129888742
335.0 48.63821129888742
345.0 48.406905010354585
355.0 48.142830304719745
365.0 47.91227178315618
375.0 47.712271783156176
387.0 47.612271783156196
400.0 47.612271783156196
412.0 47.612271783156196
425.0 47.74576719438469
437.0 47.94576719438471
450.0 48.109866286723296
462.0 48.309866286723285
475.0 48.44044167945491
487.0 48.540441679454894
500.0 48.640441679454916
515.0 48.540441679454894
530.0 48.47609175449221
545.0 48.345767194384685
560.0 48.11592692226706
580.0 47.95260953202217
600.0 47.76096514237182
615.0 47.59897445130925
630.0 47.537527773000285
650.0 47.509632566816215
670.0 47.58219812790055
690.0 47.682198127900556
710.0 47.82179738688895
730.0 47.98219812790055
750.0 48.08219812790055
775.0 48.18219812790054
800.0 48.27082970284298
825.0 48.27082970284298
850.0 48.22349685065981
875.0 48.152609532022176
900.0 48.0457671943847
925.0 47.840441679454905
950.0 47.736635756671866
975.0 47.56845083805434
1000.0 47.46845083805433
1030.0 47.30306957104252
1060.0 47.20306957104251
1090.0 47.10690501035459
1120.0 47.042830304719736
1150.0 46.97928732607432
1180.0 46.95667255930051
1220.0 46.904735301185745
1250.0 46.91627783177746
1280.0 46.82934077441656
1320.0 46.84391724861636
1360.0 46.834697733608984
1400.0 46.852955367877776
1450.0 46.97269145322594
1500.0 47.02602452356691
1550.0 47.1033038382893
1600.0 47.24852015458806
1650.0 47.42643297742507
1700.0 47.62643297742509
1750.0 47.82643297742508
1800.0 47.95906263657508
1850.0 48.013956520882736
1900.0 48.013956520882736
1950.0 47.85865724017871
2000.0 47.61457895753309
2060.0 47.094488689322894
2120.0 46.51832544184973
2180.0 45.842582736630156
2240.0 45.04258273663016
2300.0 44.185387104658965
2360.0 43.32602452356691
2400.0 42.41904449785343
2500.0 41.55131759580825
2580.0 40.75038609828258
2650.0 40.10840017459456
2720.0 39.555570108650265
2800.0 39.1838312020838
2900.0 38.88441160460031
3000.0 38.74092027673276
3070.0 38.580160641799075
3150.0 38.580160641799075
3250.0 38.58919570255869
3350.0 38.67787805979312
3450.0 38.88205840444085
3550.0 39.225532891160164
3650.0 39.60780688674014
3750.0 40.12364704950976
3870.0 40.70724699916733
4000.0 41.290462216100586
4120.0 41.777830805945705
4250.0 42.11007799780291
4370.0 42.4148352363348
4500.0 42.66966078457043
4620.0 42.90724699916735
4750.0 43.10330511748405
4870.0 43.300913890140414
5000.0 43.55291140018435
5150.0 43.84053501177822
5300.0 44.120818945540556
5450.0 44.451317595808256
5600.0 44.72154865751023
5800.0 44.92457993687898
6000.0 45.119044497853416
6150.0 45.226432977425084
6300.0 45.30330383828929
6500.0 45.214578957533085
6700.0 45.11457895753309
6900.0 44.91457895753309
7100.0 44.7586572401787
7300.0 44.5586572401787
7500.0 44.4361070797735
7750.0 44.280984905506806
8000.0 44.25906263657509
8250.0 44.304739495505466
8500.0 44.40473949550546
8750.0 44.6509882350122
9000.0 44.850988235012174
9250.0 45.05098823501219
9500.0 45.25098823501218
9750.0 45.4509882350122
10000.0 45.597809843818574
10300.0 45.69780984381857
10600.0 45.750988235012194
10900.0 45.69780984381857
11200.0 45.6509882350122
11500.0 45.55098823501219
11800.0 45.4509882350122
12200.0 45.35098823501219
12500.0 45.25098823501218
12800.0 45.150988235012186
13200.0 45.01904449785342
13600.0 44.95098823501218
14000.0 44.850988235012174
14500.0 44.750988235012194
15000.0 44.6509882350122
15500.0 44.550988235012206
16000.0 44.39780984381856
16500.0 44.250988235012194
17000.0 44.097809843818574
17500.0 43.89780984381857
18000.0 43.69780984381857
18500.0 43.49780984381858
19000.0 43.29780984381856
19500.0 43.05098823501219
