Freq "Side Wall Bounce"
22.4 47.276965984479766
23.0 47.447416862542575
23.6 47.637524058282985
24.0 47.807234419759915
25.0 47.97719458847187
25.8 48.10699669178917
26.5 48.227140810710885
27.2 48.34764702720387
28.0 48.46736424416091
29.0 48.58699754005058
30.0 48.6673642441609
30.7 48.72714081071087
31.5 48.81742815448661
32.5 48.89677841410374
33.5 48.947647027203864
34.5 49.017428154486616
35.5 49.05751682533384
36.5 49.10699669178917
37.5 49.12714081071086
38.7 49.19677841410374
40.0 49.217428154486605
41.2 49.23752405828299
42.5 49.286997540050585
43.7 49.296778414103734
45.0 49.31742815448663
46.2 49.32714081071088
47.5 49.34764702720387
48.7 49.377194588471845
50.0 49.38699754005061
51.5 49.39677841410376
53.0 49.40723441975991
54.5 49.41742815448662
56.0 49.41742815448662
58.0 49.427140810710874
60.0 49.427140810710874
61.5 49.43752405828298
63.0 49.43752405828298
65.0 49.44741686254256
67.0 49.45728718316581
69.0 49.486997540050574
71.0 49.486997540050574
73.0 49.486997540050574
75.0 49.49677841410375
77.5 49.486997540050574
80.0 49.486997540050574
82.5 49.45751682533385
85.0 49.46714033770812
87.5 49.44741686254256
90.0 49.43752405828298
92.5 49.43752405828298
95.0 49.44741686254256
97.5 49.45751682533385
100.0 49.49677841410375
103.0 49.50699669178916
106.0 49.54718132402929
109.0 49.60722372051837
112.0 49.677417977176866
115.0 49.71833414005133
118.0 49.7375134334032
122.0 49.78792064232497
125.0 49.79792695524538
128.0 49.77789122121998
132.0 49.76760415143658
136.0 49.75705217937347
140.0 49.71650087011245
145.0 49.66598387054895
150.0 49.62598429473095
155.0 49.59608504880084
160.0 49.556133317740695
165.0 49.54626037136644
170.0 49.51695919940281
175.0 49.51695919940281
180.0 49.51695919940281
185.0 49.49768871723406
190.0 49.50790485585832
195.0 49.53727735715247
200.0 49.54694577274092
206.0 49.556817162864014
212.0 49.56712978503726
218.0 49.59608504880084
224.0 49.63659042809291
230.0 49.63659042809291
236.0 49.66598387054895
240.0 49.66598387054895
250.0 49.645799882831675
258.0 49.59608504880084
265.0 49.586074486260806
272.0 49.55636302092825
280.0 49.48653603767904
290.0 49.40699669178917
300.0 49.27880549140446
307.0 49.12065682626014
315.0 48.92065682626012
325.0 48.71252881244521
335.0 48.455266784890405
345.0 48.21828351699322
355.0 47.94055014189326
365.0 47.74055014189327
375.0 47.57324729736343
387.0 47.455497729672935
400.0 47.37835016232906
412.0 47.398156292741625
425.0 47.49815629274162
437.0 47.63808182396361
450.0 47.78091095573698
462.0 47.94947815552022
475.0 48.09026517758276
487.0 48.20278671257133
500.0 48.24739375058237
515.0 48.19257041397288
530.0 48.08824256457226
545.0 47.95095557717047
560.0 47.7902787876067
580.0 47.642624474340955
600.0 47.46658711439691
615.0 47.34667167807624
630.0 47.27048022040865
650.0 47.24684376051177
670.0 47.32205782022687
690.0 47.40025660422963
710.0 47.48334173882946
730.0 47.58334173882948
750.0 47.676896973049146
775.0 47.71592054739708
800.0 47.73522008929651
825.0 47.67839878666832
850.0 47.55255828686223
875.0 47.40893079464134
900.0 47.24644041541223
925.0 47.079544049336796
950.0 46.9410634405781
975.0 46.77664533200194
1000.0 46.67664533200195
1030.0 46.59938704729702
1060.0 46.56399175187199
1090.0 46.54843909005147
1120.0 46.60073782540682
1150.0 46.62754942158194
1180.0 46.678135799131105
1220.0 46.724309212176344
1250.0 46.74761390246933
1280.0 46.77854472782102
1320.0 46.74005167456976
1360.0 46.73797331661296
1400.0 46.71419074551536
1450.0 46.652650225329204
1500.0 46.57659234817395
1550.0 46.56477559879277
1600.0 46.5058676587307
1650.0 46.46587073766086
1700.0 46.42073497395997
1750.0 46.38725940823699
1800.0 46.33005746935532
1850.0 46.257621543366334
1900.0 46.17286354762553
1950.0 46.059161201459766
2000.0 45.919023009545235
2060.0 45.770020374025556
2120.0 45.584008703385
2180.0 45.37284566300912
2240.0 45.145715212969016
2300.0 44.92246686937468
2360.0 44.69479374000216
2400.0 44.494717364639605
2500.0 44.28479421226702
2580.0 44.104300252201064
2650.0 43.97216572709849
2720.0 43.84189899514886
2800.0 43.740952807952105
2900.0 43.65410202418351
3000.0 43.60625722041781
3070.0 43.599958450648096
3150.0 43.610461235468215
3250.0 43.676258283270165
3350.0 43.72153694395414
3450.0 43.80220984696275
3550.0 43.874341915949664
3650.0 43.94971245267909
3750.0 43.994771988481126
3870.0 44.0481028343952
4000.0 44.052721593525256
4120.0 44.00425096142008
4250.0 43.938848098237095
4370.0 43.87033164669922
4500.0 43.784480540303925
4620.0 43.70452003546206
4750.0 43.69902074873446
4870.0 43.69598921649858
5000.0 43.769703136744575
5150.0 43.88837471272286
5300.0 44.065995471572485
5450.0 44.30948255919274
5600.0 44.52800472904807
5800.0 44.768425874111166
6000.0 45.012723625787366
6150.0 45.21755149328539
6300.0 45.37746433455718
6500.0 45.463375893334366
6700.0 45.49062496047973
6900.0 45.48950670049084
7100.0 45.443795776149166
7300.0 45.33716480310752
7500.0 45.21177623109856
7750.0 45.06420318330327
8000.0 44.90013610156368
8250.0 44.71660969135926
8500.0 44.51804875754453
8750.0 44.34424152607021
9000.0 44.14409836601535
9250.0 43.954995641831964
9500.0 43.79020037693986
9750.0 43.66864099870062
10000.0 43.54558920378414
10300.0 43.46179730396286
10600.0 43.35920601178628
10900.0 43.331673133584154
11200.0 43.2699815287694
11500.0 43.26179730396286
11800.0 43.234341625007666
12200.0 43.19598878663873
12500.0 43.14558920378415
12800.0 43.089137381993346
13200.0 43.00556510529348
13600.0 42.945589203784145
14000.0 42.84558920378414
14500.0 42.73127645407721
15000.0 42.602940032852764
15500.0 42.47437036063119
16000.0 42.32423159564902
16500.0 42.14558920378415
17000.0 41.982163990564665
17500.0 41.82684383386108
18000.0 41.6055651052935
18500.0 41.40556510529348
19000.0 41.20294003285276
19500.0 40.97437036063119
