Freq "Front Wall Bounce"
22.4 24.573595718458336
23.0 25.17359571845833
23.6 25.758980627615017
24.0 26.258980627615017
25.0 26.730273015856568
25.8 27.17359571845833
26.5 27.67359571845833
27.2 28.101374378437242
28.0 28.573595718458336
29.0 29.101374378437214
30.0 29.64498487097677
30.7 30.27294654806306
31.5 31.044984870976776
32.5 31.901374378437197
33.5 32.901374378437225
34.5 34.044984870976776
35.5 35.27294654806306
36.5 36.572946548063044
37.5 37.97294654806302
38.7 39.444984870976754
40.0 40.87294654806303
41.2 42.316184287698434
42.5 43.77294654806303
43.7 45.244984870976765
45.0 46.67294654806304
46.2 48.14498487097677
47.5 49.544984870976776
48.7 50.944984870976754
50.0 52.34498487097676
51.5 53.70137437843722
53.0 55.044984870976776
54.5 56.37359571845835
56.0 57.65898062761502
58.0 58.90137437843721
60.0 60.073595718458336
61.5 61.273595718458324
63.0 62.34498487097676
65.0 63.43027301585656
67.0 64.43027301585656
69.0 65.33027301585655
71.0 66.14498487097677
73.0 66.93027301585657
75.0 67.63027301585655
77.5 68.23027301585655
80.0 68.74498487097677
82.5 69.23027301585655
85.0 69.63027301585656
87.5 70.00267917233813
90.0 70.30267917233813
92.5 70.54498487097676
95.0 70.80267917233813
97.5 70.91748464035464
100.0 70.94498487097678
103.0 70.90267917233814
106.0 70.77425990953714
109.0 70.74498487097677
112.0 70.64498487097677
115.0 70.64498487097677
118.0 70.54498487097676
122.0 70.37425990953713
125.0 70.14498487097677
128.0 69.84498487097676
132.0 69.60267917233813
136.0 69.51748464035464
140.0 69.51748464035464
145.0 69.41748464035464
150.0 69.21748464035463
155.0 68.91748464035464
160.0 68.76194137717127
165.0 68.86194137717126
170.0 69.01748464035464
175.0 68.96194137717126
180.0 68.81748464035465
185.0 68.76194137717127
190.0 68.96194137717126
195.0 69.20563350695096
200.0 69.15056073960758
206.0 69.124335766476
212.0 69.524335766476
218.0 69.98047703341322
224.0 70.25056073960758
230.0 70.6505607396076
236.0 71.15056073960758
240.0 71.30885577438555
250.0 71.18047703341324
258.0 71.12433576647601
265.0 70.59605832806405
272.0 69.524335766476
280.0 68.88047703341323
290.0 68.124335766476
300.0 67.05443263063763
307.0 66.45443263063763
315.0 66.324335766476
325.0 67.25443263063764
335.0 68.25443263063764
345.0 68.324335766476
355.0 68.40885577438554
365.0 68.50885577438554
375.0 68.43517410743216
387.0 68.62008486715393
400.0 68.92008486715395
412.0 69.22008486715393
425.0 69.40885577438553
437.0 69.37010747727061
450.0 69.36067222770065
462.0 69.1664046965312
475.0 68.73042822770331
487.0 68.20640572306787
500.0 68.80640572306788
515.0 69.7138623003812
530.0 69.58277178614344
545.0 68.36640469653119
560.0 66.79487524033752
580.0 65.45035035337591
600.0 64.82587953644403
615.0 64.8018317882353
630.0 64.84962166547668
650.0 65.16605200729957
670.0 65.6734069616127
690.0 65.74202442654732
710.0 65.82587953644403
730.0 65.67892599143171
750.0 65.30366205269289
775.0 64.90366205269288
800.0 65.40862847148107
825.0 65.87260190464022
850.0 66.3528236080069
875.0 66.33310524010531
900.0 66.64675721654639
925.0 66.80183178823529
950.0 65.80748601483093
975.0 67.1623792617246
1000.0 68.31601258271165
1030.0 68.30675981791319
1060.0 67.9214927103814
1090.0 67.79486548066697
1120.0 67.95282360800691
1150.0 67.86531856532184
1180.0 67.65252297813532
1220.0 68.48195611862296
1250.0 69.71336532432476
1280.0 69.46189436674666
1320.0 67.13596564785891
1360.0 64.58433996937197
1400.0 65.24457107158186
1450.0 65.68209300495042
1500.0 65.9592624161464
1550.0 65.51194129346085
1600.0 65.74710803602095
1650.0 65.719774846238
1700.0 67.0487791712661
1750.0 67.194330157172
1800.0 67.43419269315082
1850.0 67.43431383224035
1900.0 67.92901029744512
1950.0 68.44692619990865
2000.0 68.0584834811537
2060.0 66.53592306298881
2120.0 64.66770951409899
2180.0 64.37434599509135
2240.0 65.78673717398736
2300.0 67.10366205269288
2360.0 66.74867294827081
2400.0 67.0288387023376
2500.0 66.89137884601882
2580.0 66.88277744085599
2650.0 66.5724113593013
2720.0 66.21721233129756
2800.0 65.87938783532125
2900.0 65.6473766882573
3000.0 65.57110861566767
3070.0 65.09731095708545
3150.0 65.66795826794748
3250.0 66.19177928152718
3350.0 66.10201412157079
3450.0 66.55461657222577
3550.0 66.94764389369185
3650.0 65.77620667524998
3750.0 65.16327706951594
3870.0 64.85846672062334
4000.0 64.76402096157418
4120.0 64.01514913759607
4250.0 64.48746126114231
4370.0 65.38607671039406
4500.0 65.93538092222579
4620.0 65.97078293469647
4750.0 66.27418307022279
4870.0 65.6100694565701
5000.0 64.70835464211085
5150.0 64.82352251430694
5300.0 64.81890314058049
5450.0 64.83220428812305
5600.0 65.71719378964204
5800.0 66.19624374921551
6000.0 66.69406461982709
6150.0 67.1130725405731
6300.0 66.41113203534755
6500.0 65.799031868507
6700.0 65.98245202719261
6900.0 66.08183334003539
7100.0 66.69231602008753
7300.0 66.59377171473936
7500.0 66.3441437569276
7750.0 66.33309383323538
8000.0 66.40056565432842
8250.0 66.73974752896378
8500.0 66.81215305181817
8750.0 67.58411007622439
9000.0 67.33589481416271
9250.0 66.3570657624741
9500.0 66.91754257910205
9750.0 67.69926265658097
10000.0 68.144993499295
10300.0 66.59790227605846
10600.0 65.34371612324385
10900.0 65.33739352753966
11200.0 68.33626751550206
11500.0 68.14587988752974
11800.0 65.62076856957395
12200.0 64.56228388642229
12500.0 64.88934062012333
12800.0 66.93253249472066
13200.0 66.21519367075413
13600.0 66.47873978547595
14000.0 60.525872007085184
14500.0 62.071298607944044
15000.0 65.41776690792615
15500.0 61.747723137867965
16000.0 62.151932903083974
16500.0 63.93171699754129
17000.0 60.98289779892315
17500.0 63.47827908714217
18000.0 65.68714741582609
18500.0 61.20249088245457
19000.0 59.02408979703068
19500.0 54.27197662697853
