Freq "On Axis"
22.4 3.1037974683544576
23.0 5.003797468354435
23.6 7.003797468354492
24.0 8.903797468354469
25.0 10.803797468354446
25.8 12.70379746835448
26.5 14.403797468354469
27.2 16.003797468354463
28.0 17.503797468354435
29.0 18.90379746835447
30.0 20.303797468354446
30.7 21.90379746835447
31.5 23.603797468354458
32.5 25.70379746835448
33.5 27.90379746835447
34.5 30.303797468354446
35.5 32.70379746835448
36.5 35.00379746835446
37.5 37.303797468354446
38.7 39.40379746835447
40.0 41.50379746835446
41.2 43.40379746835447
42.5 45.303797468354446
43.7 47.10379746835446
45.0 48.90379746835447
46.2 50.70379746835448
47.5 52.40379746835447
48.7 54.00379746835446
50.0 55.60379746835446
51.5 57.20379746835448
53.0 58.70379746835445
54.5 60.203797468354466
56.0 61.60379746835446
58.0 63.00379746835446
60.0 64.30379746835446
61.5 65.40379746835447
63.0 66.50379746835446
65.0 67.60379746835446
67.0 68.50379746835446
69.0 69.40379746835447
71.0 70.20379746835447
73.0 70.90379746835447
75.0 71.70379746835447
77.5 72.30379746835445
80.0 72.90379746835447
82.5 73.40379746835447
85.0 74.00379746835446
87.5 74.40379746835447
90.0 74.90379746835447
92.5 75.30379746835446
95.0 75.60379746835446
97.5 75.90379746835447
100.0 76.10379746835446
103.0 76.40379746835447
106.0 76.50379746835446
109.0 76.70379746835447
112.0 76.90379746835447
115.0 77.00379746835446
118.0 77.10379746835446
122.0 77.20379746835448
125.0 77.30379746835445
128.0 77.40379746835447
132.0 77.50379746835446
136.0 77.60379746835446
140.0 77.70379746835447
145.0 77.70379746835447
150.0 77.70379746835447
155.0 77.70379746835447
160.0 77.70379746835447
165.0 77.80379746835446
170.0 77.80379746835446
175.0 77.90379746835447
180.0 78.00379746835446
185.0 78.10379746835446
190.0 78.10379746835446
195.0 78.20379746835447
200.0 78.20379746835447
206.0 78.20379746835447
212.0 78.20379746835447
218.0 78.20379746835447
224.0 78.10379746835446
230.0 78.10379746835446
236.0 78.00379746835446
240.0 78.00379746835446
250.0 77.90379746835447
258.0 77.90379746835447
265.0 77.90379746835447
272.0 77.90379746835447
280.0 77.80379746835446
290.0 77.80379746835446
300.0 77.80379746835446
307.0 77.90379746835447
315.0 77.90379746835447
325.0 78.00379746835446
335.0 78.10379746835446
345.0 78.10379746835446
355.0 78.10379746835446
365.0 78.10379746835446
375.0 78.10379746835446
387.0 78.10379746835446
400.0 78.10379746835446
412.0 78.10379746835446
425.0 78.00379746835446
437.0 78.00379746835446
450.0 78.00379746835446
462.0 78.00379746835446
475.0 78.00379746835446
487.0 78.10379746835446
500.0 78.10379746835446
515.0 78.10379746835446
530.0 78.10379746835446
545.0 78.00379746835446
560.0 77.90379746835447
580.0 77.90379746835447
600.0 77.90379746835447
615.0 78.00379746835446
630.0 78.00379746835446
650.0 77.90379746835447
670.0 77.70379746835447
690.0 77.50379746835446
710.0 77.30379746835445
730.0 77.10379746835446
750.0 77.10379746835446
775.0 77.00379746835446
800.0 76.80379746835446
825.0 76.50379746835446
850.0 76.30379746835446
875.0 76.00379746835446
900.0 75.90379746835447
925.0 75.80379746835447
950.0 75.60379746835446
975.0 75.40379746835447
1000.0 75.20379746835447
1030.0 75.20379746835447
1060.0 75.30379746835446
1090.0 75.20379746835447
1120.0 75.00379746835446
1150.0 75.40379746835447
1180.0 76.10379746835446
1220.0 76.60379746835446
1250.0 76.70379746835447
1280.0 76.70379746835447
1320.0 76.90379746835447
1360.0 77.10379746835446
1400.0 77.10379746835446
1450.0 77.20379746835448
1500.0 77.30379746835445
1550.0 77.50379746835446
1600.0 77.50379746835446
1650.0 77.50379746835446
1700.0 77.40379746835447
1750.0 77.20379746835448
1800.0 77.10379746835446
1850.0 77.00379746835446
1900.0 77.10379746835446
1950.0 77.10379746835446
2000.0 77.00379746835446
2060.0 76.90379746835447
2120.0 76.80379746835446
2180.0 76.80379746835446
2240.0 76.80379746835446
2300.0 76.80379746835446
2360.0 76.80379746835446
2400.0 76.80379746835446
2500.0 76.70379746835447
2580.0 76.70379746835447
2650.0 76.50379746835446
2720.0 76.40379746835447
2800.0 76.40379746835447
2900.0 76.40379746835447
3000.0 76.50379746835446
3070.0 76.50379746835446
3150.0 76.50379746835446
3250.0 76.50379746835446
3350.0 76.50379746835446
3450.0 76.50379746835446
3550.0 76.40379746835447
3650.0 76.30379746835446
3750.0 76.10379746835446
3870.0 75.90379746835447
4000.0 75.80379746835447
4120.0 75.60379746835446
4250.0 75.20379746835447
4370.0 74.70379746835448
4500.0 74.10379746835446
4620.0 73.60379746835446
4750.0 73.40379746835447
4870.0 73.40379746835447
5000.0 73.70379746835445
5150.0 74.10379746835446
5300.0 74.40379746835447
5450.0 74.50379746835446
5600.0 74.40379746835447
5800.0 74.50379746835446
6000.0 74.90379746835447
6150.0 75.30379746835446
6300.0 75.50379746835446
6500.0 75.60379746835446
6700.0 75.40379746835447
6900.0 75.30379746835446
7100.0 75.10379746835446
7300.0 75.10379746835446
7500.0 75.00379746835446
7750.0 74.90379746835447
8000.0 74.50379746835446
8250.0 74.10379746835446
8500.0 73.60379746835446
8750.0 72.90379746835447
9000.0 72.30379746835445
9250.0 72.00379746835446
9500.0 72.20379746835448
9750.0 72.40379746835447
10000.0 72.40379746835447
10300.0 72.40379746835447
10600.0 72.40379746835447
10900.0 72.50379746835446
11200.0 72.50379746835446
11500.0 72.30379746835445
11800.0 71.50379746835446
12200.0 70.30379746835446
12500.0 69.00379746835446
12800.0 68.10379746835446
13200.0 67.90379746835447
13600.0 68.20379746835447
14000.0 68.70379746835445
14500.0 69.00379746835446
15000.0 69.00379746835446
15500.0 69.00379746835446
16000.0 68.80379746835446
16500.0 67.80379746835446
17000.0 66.20379746835445
17500.0 64.80379746835445
18000.0 63.90379746835447
18500.0 63.10379746835446
19000.0 62.303797468354446
19500.0 61.10379746835446
