Freq,On Axis,Listening Window,Sound Power,Early Reflections,Early Reflections DI,Sound Power DI,DI offset
22.4,13.700000000000003,15.744102716188323,14.466223760884631,14.887330062375142,10.85677265381318,11.277878955303692,10
23.0,14.399999999999991,15.99777785528947,14.84657508642691,15.224560526912754,10.773217328376717,11.15120276886256,10
23.6,14.999999999999986,16.35367133027701,15.31251706701697,15.665079464108018,10.688591866168991,11.04115426326004,10
24.0,15.700000000000003,16.773450502284035,15.837716223545343,16.165805258483616,10.60764524380042,10.935734278738693,10
25.0,16.299999999999997,17.199106712244813,16.35357626617106,16.661772672868707,10.537334039376105,10.845530446073752,10
25.8,16.999999999999986,17.667175171631143,16.875012205339786,17.160394899218588,10.506780272412556,10.792162966291357,10
26.5,17.60000000000001,18.097613256231924,17.41264426268141,17.677586394817197,10.420026861414726,10.684968993550513,10
27.2,18.200000000000003,18.538689358458797,17.97567473321662,18.207083736476065,10.331605621982732,10.563014625242175,10
28.0,18.799999999999997,19.051168841955203,18.539109179958743,18.750216046173264,10.300952795781939,10.51205966199646,10
29.0,19.39999999999999,19.570028226338295,19.128765633363443,19.31862380966551,10.251404416672784,10.441262592974851,10
30.0,19.999999999999986,20.12746977869638,19.71419242586707,19.89424727827584,10.233222500420538,10.413277352829311,10
30.7,20.60000000000001,20.64454303746841,20.291861473137445,20.44925870818885,10.19528432927956,10.352681564330965,10
31.5,21.299999999999997,21.344543037468398,21.02094670802613,21.173750479391273,10.170792558077125,10.323596329442267,10
32.5,21.89999999999999,21.92556324670106,21.632965630806623,21.7630585789977,10.16250466770336,10.292597615894437,10
33.5,22.299999999999997,22.318920432740683,22.061966511892606,22.18142765765988,10.137492775080801,10.256953920848076,10
34.5,22.799999999999997,22.818920432740683,22.610153035635832,22.708817179246537,10.110103253494145,10.20876739710485,10
35.5,23.39999999999999,23.372181510653476,23.16330298083811,23.26316960753725,10.109011903116226,10.208878529815365,10
36.5,23.999999999999986,23.924488830269198,23.72795261127827,23.813420794911863,10.111068035357334,10.196536218990929,10
37.5,24.499999999999986,24.46707635676914,24.26768571479444,24.34510595050874,10.121970406260402,10.199390641974702,10
38.7,24.999999999999986,24.98721740192569,24.80609034747964,24.862989317413096,10.124228084512595,10.181127054446051,10
40.0,25.60000000000001,25.53870077164548,25.343954745123696,25.413250157463565,10.125450614181915,10.194746026521784,10
41.2,26.10000000000001,26.036647441229306,25.853796654259256,25.91620616890539,10.120441272323916,10.18285078697005,10
42.5,26.60000000000001,26.579506870119687,26.368846825000546,26.439491927252234,10.140014942867452,10.210660045119141,10
43.7,27.10000000000001,27.080032942343664,26.89890742731528,26.951389079889466,10.128643862454197,10.181125515028384,10
45.0,27.799999999999997,27.713266839628673,27.52348250291199,27.575952072064197,10.137314767564476,10.189784336716684,10
46.2,28.299999999999997,28.191310104110826,27.983883596511006,28.049213841674018,10.142096262436809,10.20742650759982,10
47.5,28.700000000000003,28.61377695707033,28.3975872888969,28.46864465851813,10.145132298552198,10.216189668173428,10
48.7,29.200000000000003,29.09078539622918,28.869201117433292,28.940679681169414,10.150105715059766,10.221584278795888,10
50.0,29.700000000000003,29.590785396229194,29.371032604612353,29.444296655552918,10.146488740676276,10.219752791616841,10
51.5,30.200000000000003,30.06971018796763,29.850960990520377,29.934183803447752,10.135526384519878,10.218749197447252,10
53.0,30.700000000000003,30.56971018796763,30.335810553332095,30.41074177595641,10.15896841201122,10.233899634635534,10
54.5,31.200000000000003,31.024197793009137,30.80664035820601,30.877455149038795,10.146742643970342,10.217557434803126,10
56.0,31.799999999999997,31.58076315484847,31.370223760950083,31.447264316400123,10.133498838448347,10.210539393898387,10
58.0,32.3,32.08076315484847,31.881138935254654,31.957884900513534,10.122878254334935,10.199624219593815,10
60.0,32.7,32.5017849235051,32.3021454867655,32.37848094287385,10.123303980631249,10.199639436739602,10
61.5,33.10000000000001,32.90178492350509,32.748301763488044,32.82221985847369,10.079565065031403,10.153483160017046,10
63.0,33.60000000000001,33.379769914197254,33.22397168692878,33.28822697479066,10.091542939406594,10.155798227268477,10
65.0,34.10000000000001,33.85764273882687,33.7210422990584,33.778096400027465,10.079546338799403,10.136600439768472,10
67.0,34.60000000000001,34.335909772777725,34.199564982414074,34.255732961576385,10.08017681120134,10.136344790363651,10
69.0,35.10000000000001,34.902319945897744,34.753349173491515,34.807762943106795,10.09455700279095,10.14897077240623,10
71.0,35.60000000000001,35.40231994589776,35.283078976201324,35.33282437731752,10.069495568580237,10.119240969696435,10
73.0,36.000000000000014,35.80231994589775,35.706057132925395,35.74963368796941,10.052686257928343,10.096262812972356,10
75.0,36.39999999999999,36.267695213052946,36.16969817224056,36.21021277245059,10.057482440602357,10.097997040812388,10
77.5,36.89999999999999,36.76769521305296,36.66574631241642,36.7069025632825,10.060792649770463,10.101948900636543,10
80.0,37.3,37.23461706421344,37.14477067182328,37.1933453790063,10.041271685207136,10.089846392390157,10
82.5,37.89999999999999,37.78977136039704,37.6877179396551,37.73404293499182,10.05572842540522,10.102053420741939,10
85.0,38.3,38.2784901971291,38.175606970504205,38.226430679594486,10.052059517534616,10.102883226624897,10
87.5,38.8,38.734097562922116,38.59475357417645,38.6684861613214,10.06561140160072,10.139343988745665,10
90.0,39.2,39.17797591781378,39.025062093430904,39.09517959236483,10.082796325448953,10.152913824382878,10
92.5,39.60000000000001,39.622931102480635,39.459781003722185,39.54424954895792,10.078681553522713,10.16315009875845,10
95.0,40.2,40.15634471847234,39.95945825657,40.056106416354396,10.100238302117944,10.196886461902338,10
97.5,40.60000000000001,40.57797591781379,40.39112124187656,40.49876744902821,10.07920846878558,10.186854675937226,10
100.0,41.000000000000014,40.977975917813794,40.774155054985954,40.89182220462436,10.086153713189432,10.20382086282784,10
103.0,41.5,41.45634471847234,41.19195551149723,41.32735235057072,10.128992367901617,10.26438920697511,10
106.0,42.0,41.88925841531061,41.65162605590564,41.78504358671762,10.104214828592987,10.23763235940497,10
109.0,42.499999999999986,42.41122549985842,42.101195781486766,42.25711495276825,10.15411054709017,10.310029718371652,10
112.0,43.0,42.88925841531061,42.53266998342771,42.723803584424175,10.165454830886432,10.356588431882898,10
115.0,43.39999999999999,43.37797591781377,43.00023697918401,43.20452251971028,10.17345339810349,10.377738938629761,10
118.0,44.0,43.93358982687997,43.55353037763659,43.76618992492057,10.1673999019594,10.380059449243376,10
122.0,44.5,44.47797591781378,44.12101108196876,44.33916525392665,10.138810663887128,10.35696483584502,10
125.0,44.999999999999986,45.04472895057721,44.71307607191888,44.92163796444849,10.123090986128716,10.331652878658332,10
128.0,45.5,45.54472895057722,45.33518347936274,45.49254519198146,10.05218375859576,10.209545471214483,10
132.0,46.10000000000001,46.16743744105683,46.03591577464745,46.15730784507251,10.010129595984324,10.131521666409384,10
136.0,46.60000000000001,46.73384370232101,46.666935974350025,46.74376685934644,9.990076842974574,10.066907727970985,10
140.0,47.2,47.26743744105683,47.280178612776524,47.32375640408006,9.94368103697677,9.987258828280304,10
145.0,47.8,47.844728950577206,47.93910642347008,47.93152095831638,9.913207992260823,9.905622527107127,10
150.0,48.3,48.4114806859839,48.553690900394585,48.51183566188401,9.899645024099897,9.857789785589318,10
155.0,48.8,48.91148068598392,49.08953310126243,49.01459831707801,9.896882368905906,9.821947584721485,10
160.0,49.39999999999999,49.422422059205175,49.64308903505075,49.555806156727044,9.86661590247813,9.779333024154425,10
165.0,49.89999999999999,49.922422059205175,50.093920050377264,50.010650833532495,9.91177122567268,9.828502008827911,10
170.0,50.3,50.344728950577206,50.475441808472624,50.40971105419172,9.935017896385489,9.869287142104582,10
175.0,50.8,50.8,50.866262349697834,50.84406917318533,9.955930826814665,9.933737650302163,10
180.0,51.2,51.2,51.172848201754064,51.18093585266388,10.019064147336124,10.027151798245939,10
185.0,51.5,51.566921851160515,51.49667534571715,51.540584675706896,10.02633717545362,10.070246505443365,10
190.0,51.89999999999999,51.89999999999999,51.83175895084794,51.87136300054907,10.028636999450924,10.06824104915205,10
195.0,52.2,52.2,52.19299314461199,52.22765342372513,9.972346576274873,10.007006855388013,10
200.0,52.60000000000001,52.60000000000001,52.573853163863845,52.59353018777628,10.006469812223727,10.026146836136164,10
206.0,52.89999999999999,52.922422059205175,52.968946715777975,52.97073730803142,9.951684751173758,9.9534753434272,10
212.0,53.3,53.3,53.37597273257907,53.353222269698165,9.946777730301832,9.924027267420925,10
218.0,53.60000000000001,53.6447289505772,53.74924071576642,53.722070164824174,9.922658785753029,9.895488234810784,10
224.0,54.0,54.0,54.0819799564611,54.069168503543935,9.930831496456065,9.918020043538903,10
230.0,54.3,54.27797591781378,54.32997791404178,54.33337729043019,9.944598627383584,9.947998003772,10
236.0,54.5,54.47797591781378,54.50944725536665,54.50730437334056,9.97067154447322,9.968528662447127,10
240.0,54.7,54.65583957685776,54.56794330893446,54.61890897469745,10.03693060216031,10.087896267923298,10
250.0,54.8,54.7340975629221,54.55413152758349,54.6305445616603,10.103553001261801,10.179966035338609,10
258.0,54.89999999999999,54.767683478171364,54.437034995888524,54.57985295469351,10.187830523477857,10.33064848228284,10
265.0,54.89999999999999,54.81173585711585,54.34538059842612,54.5586781376811,10.25305771943475,10.466355258689731,10
272.0,54.999999999999986,54.84549447919879,54.26688750031933,54.53329165776333,10.312202821435463,10.578606978879463,10
280.0,54.999999999999986,54.91173585711586,54.27034061746522,54.567949725047555,10.343786132068303,10.641395239650635,10
290.0,55.10000000000001,54.96768347817135,54.28366801394506,54.619982744406215,10.347700733765137,10.684015464226292,10
300.0,55.2,55.112744777990386,54.31318956046405,54.68680138927262,10.42594338871777,10.799555217526333,10
307.0,55.39999999999999,55.22419779300914,54.29360021516145,54.69299595380242,10.531201839206716,10.930597577847692,10
315.0,55.5,55.324197793009134,54.2881600712097,54.706784319351655,10.617413473657479,11.036037721799431,10
325.0,55.5,55.324197793009134,54.26369493634438,54.69509542230848,10.62910237070065,11.060502856664755,10
335.0,55.39999999999999,55.290272570903596,54.190140230144735,54.6230494840929,10.667223086810694,11.100132340758861,10
345.0,55.3,55.14649558882192,54.06177460963343,54.47928690357139,10.667208685250529,11.08472097918849,10
355.0,55.10000000000001,54.96768347817135,53.879216196603835,54.28669898451861,10.680984493652744,11.088467281567517,10
365.0,54.89999999999999,54.767683478171364,53.69295757384684,54.093964007828475,10.673719470342888,11.074725904324524,10
375.0,54.7,54.56768347817136,53.53693195398954,53.945996483474886,10.621686994696475,11.030751524181824,10
387.0,54.60000000000001,54.556344718472346,53.50190589257288,53.959232546793416,10.59711217167893,11.054438825899467,10
400.0,54.60000000000001,54.533589826879975,53.54184985813872,54.01796233303874,10.515627493841237,10.991739968741257,10
412.0,54.60000000000001,54.489258415310616,53.54948741582042,54.04101678671749,10.448241628593124,10.939770999490193,10
425.0,54.60000000000001,54.35712598473215,53.37617503094749,53.893789194034724,10.463336790697426,10.980950953784657,10
437.0,54.5,54.193081642749746,53.07287104230437,53.63792118794778,10.555160454801964,11.120210600445375,10
450.0,54.39999999999999,54.03052879031226,52.77412451750895,53.36796566847073,10.66256312184153,11.256404272803309,10
462.0,54.39999999999999,53.94274968544791,52.621239064444964,53.22966038124045,10.713089304207458,11.321510621002943,10
475.0,54.39999999999999,53.92286512659912,52.57277168610524,53.158887291782904,10.763977834816217,11.350093440493879,10
487.0,54.3,53.822865126599126,52.59164102469039,53.11550631018925,10.70735881640988,11.231224101908737,10
500.0,54.2,53.74621811131925,52.533285202254504,53.00793565787582,10.738282453443432,11.212932909064747,10
515.0,54.10000000000001,53.77548435621877,52.5074525852184,53.0112275589335,10.76425679728527,11.268031771000366,10
530.0,54.10000000000001,53.86063752019827,52.60821159197073,53.14768101050926,10.712956509689008,11.252425928227538,10
545.0,54.3,54.08127710423243,52.869160934523066,53.428286201012526,10.652990903219901,11.212116169709361,10
560.0,54.39999999999999,54.20328449402554,52.92252719071578,53.54579441171079,10.657490082314752,11.280757303309755,10
580.0,54.5,54.17249821587468,52.60464867043537,53.38355365112005,10.78894456475463,11.567849545439316,10
600.0,54.39999999999999,54.0508396479714,52.22077602336225,53.136128750178514,10.914710897792887,11.830063624609153,10
615.0,54.39999999999999,54.00762597670193,51.883427832573716,52.92556167077154,11.082064305930388,12.124198144128215,10
630.0,54.5,54.10762597670194,51.689079651910575,52.886783048823574,11.220842927878365,12.418546324791365,10
650.0,54.7,54.28460174295283,51.72451980996358,53.00668621459211,11.277915528360722,12.560081932989249,10
670.0,54.8,54.40512802007295,51.802235224102944,53.1260456617984,11.27908235827455,12.602892795970007,10
690.0,54.8,54.516061082564875,51.79853049675516,53.19049686436864,11.325564218196234,12.717530585809712,10
710.0,54.89999999999999,54.66063752019828,51.84406008729631,53.29829057005274,11.362346950145536,12.816577432901965,10
730.0,54.999999999999986,54.76063752019827,51.966154637391455,53.38914484604925,11.371492674149025,12.794482882806818,10
750.0,55.10000000000001,54.81752171595781,51.815396088870585,53.33427670697979,11.483245008978017,13.002125627087224,10
775.0,55.2,54.917521715957804,51.644820320609014,53.28755325374122,11.629968462216581,13.27270139534879,10
800.0,55.2,54.917521715957804,51.62891111665165,53.299154884720295,11.618366831237509,13.288610599306153,10
825.0,55.2,54.78757957553714,51.47082246302817,53.18671402136026,11.600865554176877,13.316757112508967,10
850.0,55.3,54.758678228271634,51.306448445436914,53.11499966404898,11.643678564222654,13.45222978283472,10
875.0,55.3,54.767464076788286,51.131826824135814,53.01496903145508,11.752495045333205,13.635637252652472,10
900.0,55.2,54.696939395077905,50.80953614551237,52.80368591722559,11.893253477852312,13.887403249565537,10
925.0,55.2,54.700552179219486,50.57532694773339,52.68712953517435,12.013422644045136,14.125225231486098,10
950.0,55.2,54.827962427049016,50.536866773292346,52.74830519858989,12.079657228459126,14.29109565375667,10
975.0,55.2,54.92441684854832,50.69110716372292,52.906277687930654,12.018139160617665,14.2333096848254,10
1000.0,55.39999999999999,55.11752171595782,50.97735940192909,53.193542586842156,11.923979129115665,14.140162314028728,10
1030.0,55.5,55.305783510926034,51.27189840932482,53.44833957857419,11.857443932351842,14.033885101601214,10
1060.0,55.60000000000001,55.30251655429953,51.10306097972902,53.319028823265924,11.983487731033605,14.199455574570507,10
1090.0,55.8,55.35502917746159,50.95488872698877,53.24856462702691,12.10646455043468,14.400140450472819,10
1120.0,55.89999999999999,55.367464076788295,50.78995142956609,53.15547401636722,12.211990060421073,14.577512647222207,10
1150.0,55.89999999999999,55.367464076788295,50.631715429943625,53.088583004292374,12.27888107249592,14.73574864684467,10
1180.0,56.000000000000014,55.50981212906005,50.76573853426008,53.231552527115454,12.278259601944598,14.744073594799971,10
1220.0,56.000000000000014,55.55013461874148,50.71587441721125,53.21731512442591,12.332819494315572,14.834260201530228,10
1250.0,56.000000000000014,55.48626202445537,50.48723985486947,53.050084284237826,12.436177740217545,14.9990221695859,10
1280.0,55.89999999999999,55.288557327928785,50.05259813243296,52.72557920198524,12.562978125943545,15.235959195495823,10
1320.0,55.89999999999999,55.288557327928785,49.959111308625836,52.70894463947636,12.579612688452428,15.32944601930295,10
1360.0,56.000000000000014,55.367486250737116,50.00072504171085,52.7826562194458,12.584830031291318,15.366761209026265,10
1400.0,56.000000000000014,55.49431723161585,50.07188573099131,52.859660408207134,12.634656823408719,15.42243150062454,10
1450.0,56.2,55.731179302276075,50.260819992240116,53.04189711170049,12.689282190575582,15.47035931003596,10
1500.0,56.39999999999999,55.928860730245006,50.45101564214829,53.25835271771166,12.670508012533347,15.477845088096714,10
1550.0,56.5,55.98882927366144,50.46841959990485,53.33954207727841,12.649287196383028,15.520409673756589,10
1600.0,56.5,55.88855732792878,50.31315382437633,53.23612798705207,12.652429340876708,15.575403503552451,10
1650.0,56.5,55.74881779438691,50.025011379495126,52.978643918283254,12.770173876103655,15.723806414891783,10
1700.0,56.60000000000001,55.828023000232506,49.813613898026816,52.861497242345365,12.96652575788714,16.01440910220569,10
1750.0,57.0,56.370616682173406,50.1935717267874,53.30917865893002,13.061438023243383,16.17704495538601,10
1800.0,57.39999999999999,56.957614950403794,50.90028786239979,53.998871922892235,12.95874302751156,16.057327088004,10
1850.0,58.0,57.275088976190276,51.2847472993347,54.401151246374994,12.873937729815282,15.990341676855579,10
1900.0,58.39999999999999,57.50867702958665,51.407156563240775,54.55397170212771,12.954705327458939,16.101520466345875,10
1950.0,58.7,57.8209434665154,51.477952566558216,54.7100227263964,13.110920740118999,16.342990899957186,10
2000.0,58.89999999999999,58.10275871451634,51.66932746806499,54.92863522425755,13.174123490258793,16.43343124645135,10
2060.0,59.10000000000001,58.45663577229111,52.13230172835682,55.40463606377624,13.05199970851487,16.324334043934286,10
2120.0,59.39999999999999,58.687188005412665,52.43282813276822,55.70728686747091,12.979901137941752,16.254359872644443,10
2180.0,59.7,58.72580778898454,52.40302781735893,55.70053478269381,13.025273006290732,16.322779971625607,10
2240.0,59.89999999999999,58.93982678104652,52.594898945913,55.91833844141014,13.021488339636377,16.344927835133518,10
2300.0,60.10000000000001,59.26621180493173,53.00187587562634,56.30840539927395,12.957806405657777,16.26433592930539,10
2360.0,60.2,59.29576896669127,53.18019540497103,56.474241344044,12.821527622647267,16.11557356172024,10
2400.0,59.999999999999986,59.08738921113817,53.17300437051182,56.443447970184664,12.64394124095351,15.914384840626354,10
2500.0,59.60000000000001,58.66724896460674,52.95105603895398,56.20077765190965,12.466471312697095,15.716192925652763,10
2580.0,59.10000000000001,58.17624496695211,52.60804364343389,55.85510586574418,12.321139101207933,15.568201323518224,10
2650.0,58.60000000000001,57.74655417359703,52.31987590442483,55.58695159895693,12.159602574640104,15.4266782691722,10
2720.0,58.3,57.52485631853712,52.40776415857907,55.68472858062209,11.840127737915026,15.117092159958048,10
2800.0,58.10000000000001,57.358252694148334,52.447470321109066,55.716200009337285,11.642052684811048,14.910782373039268,10
2900.0,57.89999999999999,57.09746837802169,52.259018635465125,55.56041383857878,11.537054539442906,14.838449742556563,10
3000.0,57.7,56.98169829288804,52.14911884599432,55.50263861030213,11.479059682585913,14.832579446893718,10
3070.0,57.499999999999986,56.882285323251736,52.117090696978295,55.50014086578055,11.382144457471185,14.765194626273441,10
3150.0,57.3,56.79096510873049,52.086324477572234,55.49431505444896,11.296650054281528,14.704640631158256,10
3250.0,57.3,56.69544433992981,51.900957561434595,55.32359127426051,11.371853065669299,14.794486778495212,10
