Freq "Listening Window"
22.4 12.139039425049063
23.0 12.39271456415024
23.6 12.74860803913775
24.0 13.168387211144804
25.0 13.594043421105553
25.8 14.062111880491912
26.5 14.492549965092664
27.2 14.933626067319565
28.0 15.446105550815943
29.0 15.964964935199035
30.0 16.52240648755715
30.7 17.03947974632915
31.5 17.739479746329167
32.5 18.32049995556183
33.5 18.71385714160145
34.5 19.213857141601423
35.5 19.767118219514217
36.5 20.319425539129966
37.5 20.86201306562988
38.7 21.38215411078643
40.0 21.93363748050622
41.2 22.431584150090046
42.5 22.974443578980427
43.7 23.474969651204432
45.0 24.108203548489413
46.2 24.586246812971567
47.5 25.008713665931097
48.7 25.48572210508995
50.0 25.98572210508995
51.5 26.46464689682837
53.0 26.96464689682837
54.5 27.41913450186989
56.0 27.97569986370921
58.0 28.47569986370921
60.0 28.89672163236584
61.5 29.296721632365845
63.0 29.774706623057995
65.0 30.25257944768761
67.0 30.730846481638466
69.0 31.297256654758485
71.0 31.7972566547585
73.0 32.197256654758505
75.0 32.662631921913686
77.5 33.162631921913686
80.0 33.62955377307419
82.5 34.184708069257795
85.0 34.67342690598986
87.5 35.12903427178284
90.0 35.57291262667452
92.5 36.01786781134139
95.0 36.55128142733308
97.5 36.97291262667453
100.0 37.372912626674534
103.0 37.85128142733309
106.0 38.28419512417136
109.0 38.80616220871917
112.0 39.28419512417135
115.0 39.772912626674525
118.0 40.32852653574072
122.0 40.872912626674534
125.0 41.43966565943796
128.0 41.93966565943795
132.0 42.56237414991756
136.0 43.12878041118175
140.0 43.66237414991757
145.0 44.23966565943796
150.0 44.80641739484466
155.0 45.30641739484467
160.0 45.81735876806593
165.0 46.317358768065944
170.0 46.73966565943795
175.0 47.19493670886074
180.0 47.59493670886074
185.0 47.96185856002124
190.0 48.294936708860746
195.0 48.59493670886074
200.0 48.99493670886075
206.0 49.31735876806593
212.0 49.69493670886074
218.0 50.039665659437944
224.0 50.394936708860754
230.0 50.67291262667452
236.0 50.872912626674534
240.0 51.0507762857185
250.0 51.12903427178284
258.0 51.16262018703212
265.0 51.20667256597659
272.0 51.24043118805953
280.0 51.3066725659766
290.0 51.36262018703211
300.0 51.507681486851126
307.0 51.61913450186988
315.0 51.719134501869874
325.0 51.719134501869874
335.0 51.68520927976434
345.0 51.54143229768265
355.0 51.36262018703211
365.0 51.16262018703212
375.0 50.962620187032115
387.0 50.9512814273331
400.0 50.92852653574073
412.0 50.88419512417137
425.0 50.75206269359292
437.0 50.58801835161047
450.0 50.425465499173
462.0 50.337686394308676
475.0 50.317801835459875
487.0 50.217801835459866
500.0 50.141154820180006
515.0 50.17042106507952
530.0 50.25557422905902
545.0 50.476213813093196
560.0 50.598221202886265
580.0 50.56743492473541
600.0 50.445776356832155
615.0 50.40256268556267
630.0 50.502562685562665
650.0 50.679538451813585
670.0 50.80006472893369
690.0 50.910997791425615
710.0 51.055574229059005
730.0 51.15557422905903
750.0 51.212458424818536
775.0 51.31245842481856
800.0 51.31245842481856
825.0 51.18251628439788
850.0 51.15361493713239
875.0 51.16240078564903
900.0 51.091876103938674
925.0 51.09548888808024
950.0 51.22289913590977
975.0 51.31935355740906
1000.0 51.51245842481855
1030.0 51.700720219786774
1060.0 51.69745326316027
1090.0 51.74996588632233
1120.0 51.762400785649035
1150.0 51.762400785649035
1180.0 51.90474883792079
1220.0 51.945071327602236
1250.0 51.881198733316126
1280.0 51.68349403678954
1320.0 51.68349403678954
1360.0 51.762422959597885
1400.0 51.88925394047661
1450.0 52.12611601113683
1500.0 52.323797439105775
1550.0 52.38376598252218
1600.0 52.28349403678952
1650.0 52.143754503247635
1700.0 52.222959709093246
1750.0 52.765553391034146
1800.0 53.35255165926452
1850.0 53.670025685051016
1900.0 53.90361373844739
1950.0 54.21588017537614
2000.0 54.49769542337708
2060.0 54.85157248115185
2120.0 55.08212471427339
2180.0 55.120744497845294
2240.0 55.334763489907274
2300.0 55.66114851379247
2360.0 55.690705675551996
2400.0 55.48232591999893
2500.0 55.06218567346747
2580.0 54.57118167581284
2650.0 54.141490882457774
2720.0 53.91979302739787
2800.0 53.753189403009074
2900.0 53.49240508688244
3000.0 53.376635001748795
3070.0 53.27722203211249
3150.0 53.185901817591244
3250.0 53.09038104879055
3350.0 53.46153743401233
3450.0 53.55239186327249
3550.0 53.43495571179429
3650.0 53.50983514165259
3750.0 53.42332331794313
3870.0 53.645093869752586
4000.0 53.93084648163847
4120.0 54.27470662305801
4250.0 54.335208564253264
4370.0 54.272319634753586
4500.0 53.988946000224274
4620.0 53.60448746145312
4750.0 53.49084709293277
4870.0 53.38792558876888
5000.0 53.42000826018442
5150.0 53.25554038662425
5300.0 52.98150833673016
5450.0 52.68394688016066
5600.0 52.62277638074062
5800.0 52.67318131899647
6000.0 52.63774831923426
6150.0 52.4781663003789
6300.0 52.255802942552364
6500.0 52.023801242383385
6700.0 51.97933210526308
6900.0 52.03124557604296
7100.0 52.245547246087696
7300.0 52.426337707861066
7500.0 52.71088602295846
7750.0 53.2701760329405
8000.0 54.03071383798361
8250.0 54.695675771148416
8500.0 55.24717599995155
8750.0 55.76098738157927
9000.0 56.05330584737747
9250.0 56.08919262828674
9500.0 55.823351831269605
9750.0 55.40165249016991
10000.0 54.79766596192195
10300.0 54.26319496809238
10600.0 54.057584311388226
10900.0 53.64729468079639
11200.0 53.306351485082814
11500.0 53.30249284207865
11800.0 52.9243274744811
12200.0 53.04741930800358
12500.0 53.407194295014605
12800.0 53.58464645088914
13200.0 53.738998296720766
13600.0 53.19153730191444
14000.0 51.67188271136584
14500.0 50.541605814444765
15000.0 51.560082507045195
15500.0 53.279370985878785
16000.0 54.41877966246959
16500.0 54.89185179802901
17000.0 54.86970758198677
17500.0 54.46049674154925
18000.0 53.40897567231893
18500.0 51.88993148379599
19000.0 51.71872841511491
19500.0 51.14909744108839
