Freq,On Axis,Listening Window,Sound Power,Early Reflections,Early Reflections DI,Sound Power DI,DI offset
20.5078,75.2554696969697,75.41461954234109,80.04212133709112,78.22063960051238,57.1939799418287,55.37249820524997,60
21.9727,77.2727696969697,77.44955757052267,82.48950699456387,80.61188002726087,56.837677543261805,54.9600505759588,60
23.4375,81.48596969696968,81.63648746061688,86.14777324045004,84.42967661765452,57.206810842962355,55.48871422016684,60
24.9023,86.02466969696968,86.1642464696398,90.04405881770684,88.50830489537105,57.65594157426875,56.120187651932966,60
26.3672,90.20036969696969,90.30521222875636,93.4044956200245,92.12503137631818,58.180180852438184,56.900716608731855,60
27.832,94.10026969696969,94.19780835943504,97.05274891913967,95.85903325655974,58.3387751028753,57.14505944029537,60
29.2969,97.73166969696969,97.82225165048207,100.36272696596924,99.28052070163073,58.54173094885134,57.45952468451283,60
30.7617,100.87346969696969,100.95844181870997,103.26320666743091,102.26839108378525,58.690050734924725,57.695235151279064,60
32.2266,103.10946969696971,103.19104082967247,105.3306032760093,104.39816744085573,58.792873388816744,57.860437553663175,60
33.6914,104.5464696969697,104.61901663392833,106.48456317041416,105.6586869794127,58.96032965451562,58.13445346351416,60
35.1562,105.1864696969697,105.25740144665238,107.00761191361244,106.22884051326932,59.02856093338306,58.249789533039944,60
36.6211,105.66346969696968,105.72963748438426,107.31919986981202,106.60634421792096,59.12329326646329,58.41043761457223,60
38.0859,105.9514696969697,106.0130379288008,107.46728987351541,106.8101400807465,59.20289784805429,58.54574805528539,60
39.5508,106.1394696969697,106.19751716160764,107.53948954299214,106.93024595714459,59.26727120446304,58.65802761861549,60
41.0156,106.23046969696969,106.28818568154807,107.59880895031856,107.00002849339786,59.28815718815021,58.689376731229515,60
42.4805,106.36146969696969,106.41399430147426,107.58530475234168,107.04954676161915,59.36444753985511,58.82868954913258,60
43.9453,106.3894696969697,106.43809802539893,107.53041644468823,107.02960381379906,59.40849421159987,58.9076815807107,60
45.4102,106.46746969696969,106.51368115718543,107.53081884579099,107.06345332833666,59.45022782884877,58.98286231139444,60
46.875,106.53346969696969,106.57675388109999,107.5162878717811,107.08236798518118,59.49438589591881,59.06046600931889,60
48.3398,106.5894696969697,106.63017545131129,107.4930042284872,107.09307532651334,59.537100124797945,59.137171222824094,60
51.2695,106.64346969696969,106.67574283696413,107.37037491186169,107.04626964698777,59.629473189976366,59.305367925102445,60
52.7344,106.69246969696971,106.71973214502941,107.33146356553267,107.04462008423302,59.675112060796394,59.38826857949674,60
54.1992,106.57546969696969,106.60402508980246,107.23380772929612,106.93882884740309,59.665196242399375,59.370217360506345,60
55.6641,106.5594696969697,106.58243602859625,107.11777804338149,106.86738534085426,59.71505068774199,59.46465798521476,60
58.5938,106.55146969696969,106.57471600709408,107.1105734301164,106.85463046380174,59.72008554329234,59.46414257697768,60
60.0586,106.50646969696969,106.5269213004628,107.02324015003416,106.7853799917815,59.741541308681306,59.50368115042865,60
62.9883,106.46846969696969,106.48232525128424,106.88961861907492,106.68968319061685,59.79264206066739,59.592706632209314,60
64.4531,106.4354696969697,106.44665139944928,106.8228572290838,106.63455027985702,59.812101119592256,59.623794170365485,60
67.3828,106.30046969696969,106.3070010026477,106.65112233319314,106.47310595664176,59.833895046005935,59.65587866945455,60
68.8477,106.23546969696969,106.23875176755509,106.55197388763943,106.38819379958751,59.850557967967575,59.68677787991565,60
71.7773,106.2694696969697,106.26744471399826,106.47419746488363,106.35993146612586,59.9075132478724,59.79324724911463,60
74.707,106.3534696969697,106.3484519315239,106.54780440496002,106.43567853842602,59.91277339309788,59.80064752656388,60
77.6367,106.3504696969697,106.33469681437295,106.44908508858742,106.3734780131313,59.96121880124164,59.88561172578552,60
79.1016,106.29746969696969,106.2793809568691,106.37828259251694,106.30955516130257,59.969825795566535,59.901098364352166,60
82.0312,106.2164696969697,106.19510558858737,106.2457352597306,106.19813388804218,59.99697170054519,59.94937032885677,60
84.9609,106.24746969696969,106.21746717043858,106.16315299745307,106.16591242223409,60.051554748204495,60.054314172985514,60
87.8906,106.1004696969697,106.06855467975625,106.0981820925704,106.05156034115379,60.01699433860246,59.97037258718585,60
90.8203,106.11646969696969,106.07631602670406,105.9730508668076,105.99441533442236,60.08190069228171,60.103265159896466,60
95.2148,106.1984696969697,106.14693166005769,105.99562902356429,106.02962345175519,60.117308208302504,60.1513026364934,60
98.1445,106.12246969696969,106.06571968557897,105.86737555004164,105.92250591124227,60.1432137743367,60.198344135537326,60
101.074,105.91046969696967,105.85036679003154,105.71873673047891,105.73440349125755,60.11596329877399,60.131630059552634,60
105.469,106.1514696969697,106.07601335898414,105.7209548625227,105.8406757340073,60.235337624976836,60.35505849646144,60
108.398,106.44646969696969,106.3623306007327,105.92101188291396,106.08306257645486,60.27926802427784,60.441318717818746,60
112.793,106.39346969696969,106.29960758816873,105.80894999824376,105.99206614282943,60.3075414453393,60.490657589924965,60
117.188,106.57846969696968,106.46753970620357,105.75886988188246,106.05390912707274,60.413630579130825,60.708669824321106,60
120.117,106.76846969696969,106.65470744299108,105.87668256892977,106.20673002248799,60.44797742050309,60.778024874061316,60
124.512,106.8144696969697,106.69421329873417,105.915387444566,106.23421796952816,60.45999532920601,60.778825854168176,60
128.906,106.74246969696969,106.61393618516963,105.904461811917,106.18411123749378,60.429824947675854,60.70947437325263,60
133.301,106.77546969696968,106.63523390972516,105.8602840015167,106.17104911121916,60.464184798506,60.774949908208455,60
139.16,106.85246969696968,106.69689240327776,105.76838372241377,106.15267686411201,60.54421553916575,60.928508680863985,60
143.555,106.68746969696969,106.52174077953728,105.64126141443705,105.97329022811937,60.548450551417915,60.88047936510023,60
147.949,106.59846969696969,106.41904629465111,105.47925316268855,105.83039082402787,60.58865547062324,60.93979313196256,60
153.809,106.75846969696968,106.54998983559352,105.30576306296761,105.82812279395958,60.72186704163394,61.24422677262591,60
159.668,106.8534696969697,106.63412009815102,105.309583480828,105.87377298366032,60.7603471144907,61.32453661732302,60
165.527,106.7554696969697,106.52391120483105,105.19179432422845,105.74609224223207,60.777818962598985,61.3321168806026,60
171.387,106.7074696969697,106.45837258213888,104.96584714098884,105.58806543876008,60.870307143378795,61.492525441150036,60
177.246,106.52546969696971,106.26152839879117,104.64665281637022,105.3372826963425,60.92424570244867,61.61487558242095,60
183.105,106.12546969696969,105.84013542313558,104.16061046988037,104.89101261282842,60.94912281030716,61.67952495325521,60
188.965,106.0914696969697,105.7881476847318,103.8813125077193,104.74638289812101,61.041764786610784,61.906835177012496,60
196.289,106.04846969696969,105.72968240833063,103.70094282771562,104.62526186705205,61.104420541278586,62.02873958061501,60
203.613,105.90746969696968,105.54727995773538,103.19945255081649,104.27307497193307,61.274204985802314,62.347827406918896,60
210.938,105.79146969696968,105.41317920070522,102.96966470690168,104.08632981854969,61.32684938215553,62.443514493803534,60
218.262,105.30546969696971,104.91767975160239,102.81966854639019,103.72964669061139,61.188033060991,62.0980112052122,60
225.586,105.8024696969697,105.395810559709,102.92133982661198,104.09449771764103,61.30131284206797,62.47447073309702,60
232.91,105.8054696969697,105.38571642869317,102.55224437103683,103.97708784247865,61.40862858621452,62.83347205765634,60
241.699,105.6904696969697,105.25989880098177,102.41829471361257,103.82318196158604,61.43671683939573,62.841604087369205,60
250.488,105.74446969696969,105.31545894143485,102.50987547324308,103.8868705415992,61.42858839983566,62.80558346819177,60
259.277,106.35246969696969,105.92498568182793,102.77955173306819,104.40378636138811,61.52119932043982,63.145433948759745,60
268.066,106.12546969696969,105.69677387179725,102.65616516909392,104.1730189844966,61.523754887300655,63.040608702703324,60
276.855,106.2434696969697,105.79506030895581,102.69782136764495,104.29141111265172,61.503649196304096,63.09723894131086,60
287.109,106.3864696969697,105.92094653375176,102.72507668831058,104.39528601861011,61.52566051514165,63.19586984544118,60
297.363,107.31646969696969,106.8613474753835,103.04574237482171,105.13614819638602,61.72519927899748,63.81560510056178,60
307.617,107.5284696969697,107.06585847927647,103.06202081451514,105.28536554904909,61.78049293022738,64.00383766476133,60
319.336,107.91846969696968,107.44343706456623,103.11041488539692,105.53455282242426,61.908884242141966,64.3330221791693,60
329.59,107.6564696969697,107.19238896864894,103.09396159211504,105.48242585402478,61.70996311462416,64.0984273765339,60
341.309,107.24746969696969,106.76088421633476,102.65610260706852,104.92590674847482,61.83497746785994,64.10478160926624,60
353.027,106.83546969696968,106.35666523355331,102.25914878410985,104.62802213887932,61.728643094674,64.09751644944346,60
366.211,106.7874696969697,106.27866003386873,101.96123041318734,104.34780591874932,61.930854115119416,64.3174296206814,60
379.395,107.41646969696968,106.94152232738136,102.37815596543663,105.01875164979046,61.922770677590904,64.56336636194473,60
392.578,106.92046969696969,106.51736870056072,102.66121276017847,104.88054144859174,61.63682725196898,63.85615594038225,60
405.762,107.5554696969697,107.04516566774063,102.79290822470253,105.0939750008769,61.95119066686374,64.2522574430381,60
420.41,107.05346969696967,106.6315188501372,102.48923907681726,104.84843880021951,61.783080049917686,64.14227977331994,60
435.059,106.52746969696969,106.09828206747602,102.10979863593475,104.28376895227147,61.81451311520455,63.98848343154127,60
451.172,106.6194696969697,106.20294422204634,102.36177556360299,104.37838372511976,61.82456049692658,63.84116865844335,60
465.82,106.97146969696969,106.47746203376647,101.91660122931029,104.28000532835826,62.197456705408214,64.56086080445618,60
483.398,106.8024696969697,106.20809513745367,101.72958897363397,104.20982103041172,61.99827410704195,64.4785061638197,60
499.512,107.22446969696969,106.62601977210416,101.70405111254288,104.33742436050301,62.28859541160115,64.92196865956127,60
517.09,107.11346969696967,106.71205907196111,102.16815788362302,104.60940050836254,62.10265856359857,64.54390118833808,60
536.133,106.97746969696969,106.57566982159412,101.78697380736197,104.34136773346229,62.23430208813183,64.78869601423214,60
555.176,106.8474696969697,106.27509713056003,101.3444050283947,104.00965893814009,62.265438192419936,64.93069210216532,60
574.219,107.6834696969697,107.16247592978509,101.95714492215932,104.70742755910325,62.45504837068184,65.20533100762577,60
594.727,107.61946969696969,107.14622897334314,101.72937387192755,104.60309869596132,62.54313027738182,65.41685510141559,60
615.234,106.7544696969697,106.28576425330624,101.10284622692473,104.0559405013453,62.229823751960936,65.18291802638151,60
637.207,107.69646969696969,107.0856543158008,101.43466001536655,104.46361983797475,62.62203447782605,65.65099430043425,60
659.18,106.84546969696969,106.3704786903127,100.84466354896543,103.9721433633791,62.39833532693359,65.52581514134727,60
682.617,106.81346969696969,106.35335528880195,100.764897891017,103.81988467917586,62.53347060962609,65.58845739778495,60
707.52,107.10146969696969,106.47403695815248,100.39953339015258,103.78212396370141,62.69191299445107,66.0745035679999,60
732.422,106.4904696969697,106.1045600671786,100.45897700739796,103.57674220956108,62.52781785761752,65.64558305978063,60
757.324,106.1384696969697,105.66728923821029,99.91981786705442,102.98625142176891,62.681037816441375,65.74747137115587,60
785.156,106.66846969696968,106.30802743786836,100.25156149205819,103.65857071148584,62.649456726382525,66.05646594581017,60
811.523,107.15546969696969,106.32044855585474,100.18126280770304,103.33150853897253,62.98894001688221,66.1391857481517,60
840.82,106.8634696969697,106.15870519765978,100.13007898149647,103.35175150286841,62.806953694791375,66.02862621616332,60
870.117,107.44346969696969,106.56307325514122,100.73310421172584,103.89163035340638,62.671442901734835,65.82996904341537,60
900.879,106.97246969696968,106.46714266940131,100.16168774948498,103.50031544289556,62.96682722650576,66.30545491991633,60
933.105,107.45246969696969,106.76807774360822,100.655097417387,104.04897967402545,62.71909806958277,66.11298032622122,60
965.332,107.4284696969697,106.64061841246814,100.01908832934609,103.41949367760503,63.22112473486311,66.62153008312205,60
1000.49,107.28546969696968,106.93434685006386,100.35276660493506,103.66182099466741,63.27252585539645,66.5815802451288,60
1035.64,106.4994696969697,106.79440397306513,100.2397692236049,103.52678658818763,63.2676173848775,66.55463474946023,60
1072.27,106.42646969696969,106.28026643708978,99.99556830619244,103.16797929129986,63.11228714578992,66.28469813089734,60
1108.89,106.87246969696969,106.37673334040623,100.05992540300826,103.39216094426722,62.984572396139015,66.31680793739797,60
1148.44,106.57746969696969,106.49853274977163,100.16971849017469,103.37241727580947,63.12611547396216,66.32881425959694,60
1189.45,107.24046969696971,106.49903922626103,100.11103533023302,103.36072898511664,63.138310241144396,66.38800389602801,60
1230.47,107.41346969696968,106.74489122640841,100.36612581128468,103.67270185713099,63.072189369277424,66.37876541512374,60
1274.41,107.6294696969697,106.83758268499038,100.39144218815716,103.8420742578273,62.995508427163074,66.44614049683322,60
1319.82,108.26846969696969,107.53886192873875,100.85526920399107,104.28632344483191,63.25253848390685,66.68359272474768,60
1366.7,107.6774696969697,107.72438575870652,100.96291761931843,104.33827084669039,63.386114912016126,66.76146813938809,60
1413.57,107.28646969696969,107.50896021506023,100.73825147372106,104.24428615387629,63.26467406118394,66.77070874133916,60
1463.38,107.12846969696969,107.249226690874,100.104960704413,103.52552323860432,63.723703452269675,67.144265986461,60
1516.11,106.7074696969697,106.98914231747557,100.00294194838281,103.33644822091817,63.6526940965574,66.98620036909276,60
1568.85,105.83446969696969,106.54427063001913,100.06050515659017,103.40745154232022,63.13681908769891,66.48376547342896,60
1624.51,105.66746969696969,106.15274120867228,99.87089028020301,103.25795812628917,62.894783082383114,66.28185092846927,60
1681.64,106.31046969696969,106.27493964007267,100.36784218119504,103.60957031263487,62.6653693274378,65.90709745887763,60
1741.7,106.8744696969697,106.82423509517776,100.62181294031917,104.12564429372298,62.69859080145477,66.20242215485858,60
1803.22,107.3504696969697,107.22850275997837,100.83689214260846,104.44800823818359,62.78049452179478,66.3916106173699,60
1866.21,107.09846969696969,106.92748314277551,100.53003987162067,104.0973911229202,62.830092019855314,66.39744327115484,60
1932.13,106.61646969696969,106.31021135725182,100.10506092843141,103.64528227379205,62.66492908345977,66.2051504288204,60
1999.51,106.51546969696969,105.79948820846647,99.95217321291912,103.52217225926633,62.277315949200144,65.84731499554735,60
2069.82,106.4954696969697,105.81298849201363,99.81085020278162,103.45678652166089,62.35620197035274,66.00213828923201,60
2143.07,106.6774696969697,105.78262957175372,99.48655969136487,103.27697821333652,62.5056513584172,66.29606988038884,60
2219.24,106.00646969696969,105.40474824375096,99.00172318415149,102.77714299618901,62.627605247561945,66.40302505959947,60
2296.88,105.16446969696969,105.52019574339309,99.00888828285348,102.67339898589924,62.84679675749385,66.51130746053961,60
2378.91,105.61046969696969,105.41974707591517,99.2296779128559,102.78197284901438,62.63777422690079,66.19006916305926,60
2462.4,107.66146969696968,106.4963154370034,100.2595420318668,104.10526421132067,62.39105122568273,66.2367734051366,60
2548.83,107.29746969696967,106.81350600168481,100.62857922064578,104.6080039114261,62.20550209025872,66.18492678103904,60
2639.65,105.79346969696971,106.49517173138629,100.3207926744216,104.144077087204,62.3510946441823,66.1743790569647,60
2731.93,104.99546969696969,105.66198970096347,99.57967387746157,103.34092475511818,62.32106494584529,66.0823158235019,60
2828.61,106.0054696969697,105.7111059477707,99.46831254133325,103.31633746328473,62.39476848448598,66.24279340643746,60
2928.22,106.5974696969697,106.1318017306306,99.61523467784265,103.6078269327255,62.5239747979051,66.51656705278795,60
3030.76,106.84346969696969,106.12649919472088,99.43436892185498,103.482356248326,62.64414294639488,66.6921302728659,60
3137.7,105.8864696969697,105.75303379849268,99.10801583465357,103.11937412028425,62.63365967820843,66.64501796383911,60
3249.02,105.4634696969697,105.37233463450961,98.7283468143791,102.63966481889038,62.73266981561923,66.64398782013052,60
3363.28,105.81546969696969,105.49389795821963,98.58726449066789,102.63277013115967,62.86112782705996,66.90663346755174,60
3481.93,106.4694696969697,105.85643850227247,98.75251923194364,102.79823899712223,63.05819950515024,67.10391927032883,60
3604.98,106.6504696969697,105.72158228186103,98.72753689692217,102.80644931214457,62.91513296971647,66.99404538493886,60
3732.42,107.25046969696967,106.00073537177688,98.76667536720831,102.92575832744419,63.0749770443327,67.23406000456858,60
3864.26,106.1774696969697,105.74243143416157,98.46137427708913,102.66273454893405,63.07969688522752,67.28105715707244,60
4000.49,105.93046969696971,105.3582298588621,98.22679304960249,102.43796361203059,62.92026624683152,67.13143680925961,60
4141.11,106.61346969696969,105.74371010222957,98.22387965994417,102.51164740607126,63.23206269615831,67.5198304422854,60
4287.6,106.6364696969697,105.97544564314882,98.28652279567788,102.47568668094227,63.49975896220654,67.68892284747093,60
4438.48,106.5894696969697,105.8135033207233,98.19714985949408,102.48649011163786,63.327013209085436,67.61635346122922,60
4595.21,106.08946969696969,105.7273968235078,98.18977741659734,102.52177318452064,63.20562363898716,67.53761940691047,60
4756.35,107.20846969696969,106.05577524427275,98.33748232526081,102.57325655874968,63.482518685523075,67.71829291901194,60
4924.8,107.10946969696968,105.83421276217227,98.07393980065544,102.37031414535754,63.46389861681473,67.76027296151683,60
5097.66,106.54846969696968,105.6863650017597,97.7682360283389,102.13998791148626,63.54637709027344,67.91812897342079,60
5277.83,107.0054696969697,106.08811710623439,98.20922494672726,102.50552621750609,63.582590888728305,67.87889215950713,60
5463.87,106.73246969696967,106.11317559659062,98.20242335227226,102.5119194383303,63.60125615826033,67.91075224431836,60
5657.23,107.36346969696969,106.39284180631978,98.45515614407105,102.81341509776345,63.579426708556326,67.93768566224873,60
5856.45,106.93146969696969,105.79404735998975,98.13378376103836,102.3550978915818,63.43894946840794,67.66026359895139,60
6062.99,107.02946969696968,106.08459333317802,98.31547829270168,102.47681562502795,63.60777770815007,67.76911504047634,60
6276.86,107.04146969696968,106.15266549097345,97.92731675800434,102.17508567351337,63.97757981746008,68.22534873296911,60
6498.05,107.15846969696969,106.03863059160494,97.84517694462495,102.08086596332501,63.95776462827993,68.19345364697999,60
6726.56,107.3644696969697,106.02577617242238,97.81663286124211,102.13721354447927,63.88856262794312,68.20914331118027,60
6963.87,106.90746969696968,106.11394383306443,97.71103012616645,102.08048188518896,64.03346194787547,68.40291370689798,60
