Freq "On Axis"
20.5078 75.2554696969697
21.9727 77.2727696969697
23.4375 81.48596969696968
24.9023 86.02466969696968
26.3672 90.20036969696969
27.832 94.10026969696969
29.2969 97.73166969696969
30.7617 100.87346969696969
32.2266 103.10946969696971
33.6914 104.5464696969697
35.1562 105.1864696969697
36.6211 105.66346969696968
38.0859 105.9514696969697
39.5508 106.1394696969697
41.0156 106.23046969696969
42.4805 106.36146969696969
43.9453 106.3894696969697
45.4102 106.46746969696969
46.875 106.53346969696969
48.3398 106.5894696969697
51.2695 106.64346969696969
52.7344 106.69246969696971
54.1992 106.57546969696969
55.6641 106.5594696969697
58.5938 106.55146969696969
60.0586 106.50646969696969
62.9883 106.46846969696969
64.4531 106.4354696969697
67.3828 106.30046969696969
68.8477 106.23546969696969
71.7773 106.2694696969697
74.707 106.3534696969697
77.6367 106.3504696969697
79.1016 106.29746969696969
82.0312 106.2164696969697
84.9609 106.24746969696969
87.8906 106.1004696969697
90.8203 106.11646969696969
95.2148 106.1984696969697
98.1445 106.12246969696969
101.074 105.91046969696967
105.469 106.1514696969697
108.398 106.44646969696969
112.793 106.39346969696969
117.188 106.57846969696968
120.117 106.76846969696969
124.512 106.8144696969697
128.906 106.74246969696969
133.301 106.77546969696968
139.16 106.85246969696968
143.555 106.68746969696969
147.949 106.59846969696969
153.809 106.75846969696968
159.668 106.8534696969697
165.527 106.7554696969697
171.387 106.7074696969697
177.246 106.52546969696971
183.105 106.12546969696969
188.965 106.0914696969697
196.289 106.04846969696969
203.613 105.90746969696968
210.938 105.79146969696968
218.262 105.30546969696971
225.586 105.8024696969697
232.91 105.8054696969697
241.699 105.6904696969697
250.488 105.74446969696969
259.277 106.35246969696969
268.066 106.12546969696969
276.855 106.2434696969697
287.109 106.3864696969697
297.363 107.31646969696969
307.617 107.5284696969697
319.336 107.91846969696968
329.59 107.6564696969697
341.309 107.24746969696969
353.027 106.83546969696968
366.211 106.7874696969697
379.395 107.41646969696968
392.578 106.92046969696969
405.762 107.5554696969697
420.41 107.05346969696967
435.059 106.52746969696969
451.172 106.6194696969697
465.82 106.97146969696969
483.398 106.8024696969697
499.512 107.22446969696969
517.09 107.11346969696967
536.133 106.97746969696969
555.176 106.8474696969697
574.219 107.6834696969697
594.727 107.61946969696969
615.234 106.7544696969697
637.207 107.69646969696969
659.18 106.84546969696969
682.617 106.81346969696969
707.52 107.10146969696969
732.422 106.4904696969697
757.324 106.1384696969697
785.156 106.66846969696968
811.523 107.15546969696969
840.82 106.8634696969697
870.117 107.44346969696969
900.879 106.97246969696968
933.105 107.45246969696969
965.332 107.4284696969697
1000.49 107.28546969696968
1035.64 106.4994696969697
1072.27 106.42646969696969
1108.89 106.87246969696969
1148.44 106.57746969696969
1189.45 107.24046969696971
1230.47 107.41346969696968
1274.41 107.6294696969697
1319.82 108.26846969696969
1366.7 107.6774696969697
1413.57 107.28646969696969
1463.38 107.12846969696969
1516.11 106.7074696969697
1568.85 105.83446969696969
1624.51 105.66746969696969
1681.64 106.31046969696969
1741.7 106.8744696969697
1803.22 107.3504696969697
1866.21 107.09846969696969
1932.13 106.61646969696969
1999.51 106.51546969696969
2069.82 106.4954696969697
2143.07 106.6774696969697
2219.24 106.00646969696969
2296.88 105.16446969696969
2378.91 105.61046969696969
2462.4 107.66146969696968
2548.83 107.29746969696967
2639.65 105.79346969696971
2731.93 104.99546969696969
2828.61 106.0054696969697
2928.22 106.5974696969697
3030.76 106.84346969696969
3137.7 105.8864696969697
3249.02 105.4634696969697
3363.28 105.81546969696969
3481.93 106.4694696969697
3604.98 106.6504696969697
3732.42 107.25046969696967
3864.26 106.1774696969697
4000.49 105.93046969696971
4141.11 106.61346969696969
4287.6 106.6364696969697
4438.48 106.5894696969697
4595.21 106.08946969696969
4756.35 107.20846969696969
4924.8 107.10946969696968
5097.66 106.54846969696968
5277.83 107.0054696969697
5463.87 106.73246969696967
5657.23 107.36346969696969
5856.45 106.93146969696969
6062.99 107.02946969696968
6276.86 107.04146969696968
6498.05 107.15846969696969
6726.56 107.3644696969697
6963.87 106.90746969696968
7209.96 107.16046969696967
7464.84 107.1514696969697
7727.05 107.00646969696967
7999.51 107.03546969696968
8282.23 106.9034696969697
8573.73 107.0004696969697
8876.95 106.90446969696968
9188.96 106.68446969696969
9514.16 106.68446969696969
9849.61 106.6354696969697
10196.8 106.4364696969697
10555.7 106.45946969696969
10927.7 106.59046969696969
11313.0 106.37046969696969
11712.9 106.2374696969697
12126.0 105.8744696969697
12553.7 105.7844696969697
12996.1 106.43246969696969
13454.6 106.72246969696971
13929.2 106.25346969696969
14419.9 106.0194696969697
14928.2 105.48846969696969
15455.6 104.7074696969697
16000.5 104.88446969696969
16564.5 105.0484696969697
17148.9 104.57146969696969
17752.4 103.99446969696969
18379.4 103.97146969696968
19026.9 103.7164696969697
19697.8 103.31646969696968
19999.5 103.41646969696968
