Freq "Sound Power"
22.4 21.466677569885775
23.0 23.295731055312444
23.6 25.11438781964705
24.0 26.940218504633663
25.0 28.740218504633617
25.8 30.507657361663092
26.5 32.29573105531247
27.2 34.06137713217794
28.0 35.808951171470994
29.0 37.567441304731005
30.0 39.286833213596594
30.7 41.00895117147101
31.5 42.74021850463362
32.5 44.43806974867482
33.5 46.15455376486568
34.5 47.843513496593175
35.5 49.53184430416488
36.5 51.22310615214724
37.5 52.90407198321745
38.7 54.59096730927635
40.0 56.27828156991083
41.2 57.9772315757389
42.5 59.65297410169822
43.7 61.32007271871055
45.0 62.93525788854609
46.2 64.52456535491861
47.5 66.0544631186369
48.7 67.50592509741136
50.0 68.86394311667927
51.5 70.11998959992896
53.0 71.28170322865294
54.5 72.34223665405929
56.0 73.32884847148046
58.0 74.23267105319773
60.0 75.04847504772033
61.5 75.81216975030105
63.0 76.50780139226472
65.0 77.17744648773649
67.0 77.77214533004519
69.0 78.35251232719475
71.0 78.89695635835002
73.0 79.37655862713495
75.0 79.87823518322399
77.5 80.32106264289901
80.0 80.75056736000592
82.5 81.17108662365345
85.0 81.57398283847698
87.5 81.92798850240685
90.0 82.23444397666826
92.5 82.52271430194966
95.0 82.7150988645443
97.5 82.85627416584639
100.0 82.92119723909578
103.0 82.88465977876331
106.0 82.8067639811789
109.0 82.66454016994192
112.0 82.52168421497495
115.0 82.37987642788661
118.0 82.21008268058391
122.0 82.11057605798166
125.0 82.05289946636229
128.0 82.07462863694752
132.0 82.14112221018739
136.0 82.2545878964157
140.0 82.35069722320748
145.0 82.44798605329429
150.0 82.50183000078884
155.0 82.47952261215659
160.0 82.3825599559015
165.0 82.17737921196684
170.0 81.89781918114649
175.0 81.54700643980141
180.0 81.18371446306347
185.0 80.8175744297592
190.0 80.47335796873989
195.0 80.17149518507284
200.0 79.93532478214887
206.0 79.79706923234107
212.0 79.71375350605628
218.0 79.68702408534965
224.0 79.69411294346214
230.0 79.69529242148351
236.0 79.70649292061975
240.0 79.68012801692966
250.0 79.61492585213793
258.0 79.48852938662759
265.0 79.31576476450118
272.0 79.10237101636167
280.0 78.87575529056778
290.0 78.63827917988968
300.0 78.3907778047037
307.0 78.17292678505375
315.0 77.95629496299773
325.0 77.74958751379758
335.0 77.56238764298797
345.0 77.3991243681472
355.0 77.24633090132946
365.0 77.0821385858627
375.0 76.93665929765135
387.0 76.7651823939091
400.0 76.56181269476767
412.0 76.34317960089419
425.0 76.100541757971
437.0 75.85610760020839
450.0 75.61853490049252
462.0 75.36865917976108
475.0 75.1561303483596
487.0 74.97634608770964
500.0 74.80113737424283
515.0 74.67822493764126
530.0 74.56640327847389
545.0 74.51400221607838
560.0 74.48340811646014
580.0 74.48489812732667
600.0 74.51494301760839
615.0 74.5683371451254
630.0 74.64432249084572
650.0 74.7681587321918
670.0 74.88013359512337
690.0 75.04216264907123
710.0 75.18205932220565
730.0 75.29258616280286
750.0 75.35372768322028
775.0 75.31831654164745
800.0 75.17738495232399
825.0 74.90589205019779
850.0 74.58319168977636
875.0 74.24643517117832
900.0 73.92092179595508
925.0 73.61053969124596
950.0 73.32178986868433
975.0 73.08621118911029
1000.0 72.87777698551392
1030.0 72.69582500661507
1060.0 72.57900357471472
1090.0 72.4654908005043
1120.0 72.38639151411886
1150.0 72.35977085774805
1180.0 72.36134488772171
1220.0 72.36130480784723
1250.0 72.39934487359717
1280.0 72.44875067968863
1320.0 72.4687798825213
1360.0 72.5025742399065
1400.0 72.52136774883618
1450.0 72.56169584577265
1500.0 72.5833796682678
1550.0 72.55503373982998
1600.0 72.4955177927287
1650.0 72.40900406412666
1700.0 72.28189681150351
1750.0 72.15155097007252
1800.0 72.02889262397021
1850.0 71.93569390537385
1900.0 71.876533722027
1950.0 71.83822358575398
2000.0 71.86341326104787
2060.0 71.92706859595353
2120.0 72.00878665824428
2180.0 72.12392600714652
2240.0 72.26517411915809
2300.0 72.42750928895278
2360.0 72.58119983947061
2400.0 72.71429258208093
2500.0 72.79867062456461
2580.0 72.80349937758606
2650.0 72.78347363498807
2720.0 72.69670237140397
2800.0 72.60836069731386
2900.0 72.49730378133462
3000.0 72.40912398771337
3070.0 72.27567462174153
3150.0 72.1762151190299
3250.0 72.01206929986982
3350.0 71.87163615097327
3450.0 71.7650196609808
3550.0 71.64114819198524
3650.0 71.55243963531547
3750.0 71.46649888851131
3870.0 71.42697417745748
4000.0 71.40186221771317
4120.0 71.39242218655897
4250.0 71.39595808769542
4370.0 71.40680364307056
4500.0 71.40467009571864
4620.0 71.41264780142558
4750.0 71.43392691715194
4870.0 71.41361411714384
5000.0 71.37611903673411
5150.0 71.32211531483328
5300.0 71.23859707672028
5450.0 71.14567692506036
5600.0 71.02824844800351
5800.0 70.90147970459357
6000.0 70.79664769069498
6150.0 70.65485701060999
6300.0 70.52876761532954
6500.0 70.36389238441976
6700.0 70.24061994702662
6900.0 70.14344529381516
7100.0 70.04747969718395
7300.0 70.0021400333106
7500.0 69.97967292778164
7750.0 70.02292089588083
8000.0 70.08703258808433
8250.0 70.21828388576378
8500.0 70.38848196431097
8750.0 70.57445206303127
9000.0 70.7235401179399
9250.0 70.85335070663652
9500.0 70.87003232755819
9750.0 70.85459716187218
10000.0 70.69167001535234
10300.0 70.39630366044224
10600.0 70.02585098670241
10900.0 69.60526425235734
11200.0 69.19138298819385
11500.0 68.87242156955867
11800.0 68.62549057399568
12200.0 68.56318092588933
12500.0 68.69530773636251
12800.0 69.03703615299185
13200.0 69.48498286997462
13600.0 69.96691313167412
14000.0 70.26271666563183
14500.0 70.28745162602519
15000.0 69.85875718850919
15500.0 68.80920817525627
16000.0 66.97035206662655
16500.0 64.26125968441106
17000.0 60.812682151896894
17500.0 56.76713134772109
18000.0 52.34491493926345
18500.0 47.72336113723037
19000.0 43.0848879067909
19500.0 38.62393920573595
