Freq,On Axis,Listening Window,Sound Power,Early Reflections,Early Reflections DI,Sound Power DI,DI offset
22.4,38.19999999999999,34.113811887670835,40.439506818481874,39.82606718532526,34.28774470234558,33.67430506918896,40
23.0,39.19999999999999,35.1545920335779,41.36443930839792,40.719845607684846,34.43474642589305,33.79015272517998,40
23.6,40.30000000000001,36.329178398366025,42.409119649455334,41.75924295063629,34.56993544772973,33.92005874891069,40
24.0,41.5,37.557025130445055,43.509176957400655,42.841282736957254,34.7157423934878,34.0478481730444,40
25.0,42.80000000000001,38.89566565334462,44.716553770177484,44.025885999372576,34.869779653972046,34.17911188316714,40
25.8,44.099999999999994,40.27700757575457,45.999955294686,45.27918445173631,34.997823124018254,34.27705228106856,40
26.5,45.5,41.73413327899513,47.34293403907682,46.61416002790355,35.11997325109158,34.39119923991831,40
27.2,47.0,43.25658151939774,48.75423649734063,48.01002071696911,35.24656080242863,34.50234502205711,40
28.0,48.400000000000006,44.819477148438835,50.1778056081248,49.43617932519891,35.38329782323993,34.641671540314036,40
29.0,49.80000000000001,46.39042833939982,51.6199600289745,50.85765717302999,35.53277116636983,34.770468310425315,40
30.0,51.099999999999994,48.001825369416935,53.06615363598962,52.30366527791321,35.69816009150372,34.93567173342731,40
30.7,52.400000000000006,49.69432447564145,54.55561096167159,53.80130834236206,35.89301613327939,35.13871351396986,40
31.5,53.69999999999999,51.47316044417761,56.15184886373123,55.39118515318813,36.081975290989476,35.32131158044638,40
32.5,54.900000000000006,53.37644247241326,57.85819695442183,57.046773764872285,36.329668707540975,35.51824551799143,40
33.5,56.099999999999994,55.42892459659612,59.720443997258,58.84832105923789,36.58060353735823,35.70848059933812,40
34.5,57.400000000000006,57.51262056987184,61.621727195321625,60.64660863085257,36.86601193901927,35.89089337455022,40
35.5,58.69999999999999,59.51458958122376,63.40756720796571,62.36135198095411,37.15323760026965,36.10702237325805,40
36.5,60.30000000000001,61.352368703919126,64.95183304364238,63.90092923388039,37.451439470038736,36.400535660276745,40
37.5,62.099999999999994,63.001675237406516,66.1934370565543,65.16671543566082,37.8349598017457,36.808238180852214,40
38.7,64.1,64.53004905147408,67.24403705119704,66.28145098776588,38.2485980637082,37.28601200027704,40
40.0,66.0,65.99611040494446,68.19236799229924,67.37650812967793,38.61960227526653,37.80374241264522,40
41.2,67.9,67.45468954080584,69.1605894031569,68.44154220869157,39.01314733211427,38.29410013764894,40
42.5,69.70000000000002,68.92863047470115,70.16784097066167,69.58550295097396,39.34312752372719,38.76078950403948,40
43.7,71.19999999999999,70.29141757022137,71.2082038024054,70.74521476946066,39.54620280076071,39.08321376781598,40
45.0,72.7,71.64732898120215,72.24664175250585,71.88952040649477,39.75780857470738,39.4006872286963,40
46.2,74.0,72.93189942660237,73.28222858809357,73.01131870415114,39.920580722451234,39.6496708385088,40
47.5,75.3,74.2302019541898,74.3449327064927,74.19851261043182,40.031689343757975,39.885269247697096,40
48.7,76.5,75.43505631415994,75.3539330611062,75.30976972682575,40.12528658733419,40.08112325305373,40
50.0,77.7,76.64346675382865,76.37098523668838,76.42941290550772,40.21405384832093,40.272481517140264,40
51.5,78.8,77.7872425011827,77.35369635437391,77.49717933725334,40.29006316392936,40.433546146808794,40
53.0,79.79999999999998,78.8728084683239,78.31013135905975,78.55158540758173,40.32122306074217,40.56267710926414,40
54.5,80.80000000000001,79.96886043418621,79.24608082842832,79.54782288114761,40.4210375530386,40.72277960575789,40
56.0,81.8,80.9493611286365,80.1718624836413,80.54492651039855,40.40443461823794,40.77749864499519,40
58.0,82.7,81.92106222295457,81.07764494118047,81.47729285971285,40.44376936324173,40.84341728177411,40
60.0,83.5,82.86495445797681,81.9477798521917,82.3922557178281,40.4726987401487,40.91717460578511,40
61.5,84.3,83.68755979118492,82.73969942112177,83.20777555884058,40.47978423234434,40.947860370063154,40
63.0,84.9,84.39407437762955,83.41878064330913,83.91461881123024,40.47945556639931,40.97529373432042,40
65.0,85.5,85.06550841373428,84.01988824937274,84.5418535551695,40.52365485856478,41.04562016436154,40
67.0,86.0,85.62269420663239,84.52101858767568,85.05458798119983,40.56810622543256,41.101675618956705,40
69.0,86.4,86.07772282997192,84.90441778989396,85.481078044323,40.59664478564892,41.17330504007796,40
71.0,86.6,86.36002437325692,85.14152813611686,85.74819258709314,40.611831786163776,41.21849623714006,40
73.0,86.8,86.57784236559043,85.27762253431018,85.92270955721128,40.65513280837915,41.300219831280245,40
75.0,86.9,86.72777157937055,85.33667802568075,86.03523516501664,40.69253641435391,41.3910935536898,40
77.5,86.9,86.80458656127426,85.34776276548178,86.07944474075863,40.72514182051563,41.45682379579249,40
80.0,87.0,86.88127710423244,85.32066414612335,86.1024792413353,40.778797862897136,41.56061295810909,40
82.5,87.0,86.96819897766142,85.30168847930548,86.13774622382996,40.83045275383145,41.66651049835593,40
85.0,87.1,87.05711996599537,85.29053409937227,86.1806967141669,40.87642325182847,41.7665858666231,40
87.5,87.20000000000002,87.1457535568586,85.30313463773744,86.23357612264311,40.91217743421548,41.84261891912115,40
90.0,87.20000000000002,87.23461706421345,85.31950158521894,86.28869790988587,40.945919154327584,41.91511547899451,40
92.5,87.29999999999998,87.28951489542683,85.33325200661031,86.33398991655714,40.95552497886969,41.956262888816525,40
95.0,87.29999999999998,87.36768934561613,85.31952923543258,86.3555148781564,41.01217446745973,42.048160110183545,40
97.5,87.4,87.37874146142715,85.26993361412899,86.33089530362102,41.047846157806134,42.108807847298166,40
100.0,87.4,87.37874146142715,85.22160811127254,86.31036801493886,41.068373446488295,42.15713335015461,40
103.0,87.4,87.37874146142715,85.18495163284136,86.2995396212196,41.07920184020756,42.19378982858579,40
106.0,87.4,87.37874146142715,85.15045631986467,86.290691480341,41.08804998108616,42.22828514156248,40
109.0,87.4,87.37874146142715,85.13536335307214,86.28837056721437,41.09037089421278,42.24337810835502,40
112.0,87.4,87.38951489542683,85.1398377335488,86.30016290690972,41.08935198851711,42.249677161878026,40
115.0,87.5,87.41199101325603,85.13266131485241,86.30221208561223,41.1097789276438,42.279329698403615,40
118.0,87.5,87.39052899113585,85.10370704525593,86.26702425746491,41.12350473367094,42.28682194587992,40
122.0,87.5,87.39052899113585,85.06861072534497,86.25555440747958,41.13497458365627,42.321918265790885,40
125.0,87.5,87.39052899113585,85.01261498277206,86.21813412613466,41.172394865001195,42.37791400836379,40
128.0,87.5,87.34675460676937,84.94528126438856,86.1723804456003,41.17437416116907,42.40147334238081,40
132.0,87.5,87.32445814420116,84.86836272419187,86.11703891549189,41.20741922870927,42.45609542000929,40
136.0,87.5,87.30354610191523,84.77446957888814,86.06379703788356,41.23974906403167,42.529076523027086,40
140.0,87.5,87.30354610191523,84.67167275785698,86.00477851913651,41.29876758277872,42.63187334405825,40
145.0,87.5,87.30354610191523,84.56043831508924,85.94607330287019,41.35747279904504,42.74310778682599,40
150.0,87.5,87.28301232902811,84.44031779684757,85.87122335374984,41.41178897527827,42.842694532180545,40
155.0,87.5,87.26090170960879,84.32032033411093,85.80829759260916,41.45260411699962,42.94058137549786,40
160.0,87.5,87.26090170960879,84.1893284797383,85.72759781844945,41.533303891159335,43.071573229870495,40
165.0,87.5,87.26090170960879,84.0725839746724,85.66667039428634,41.594231315322446,43.18831773493639,40
170.0,87.5,87.27222859343951,83.93603118959788,85.59741340132314,41.67481519211637,43.336197403841624,40
175.0,87.6,87.29585471202552,83.81587242724265,85.52521577571245,41.77063893631306,43.479982284782864,40
180.0,87.6,87.29585471202552,83.70499224862891,85.45018765414817,41.84566705787735,43.590862463396604,40
185.0,87.6,87.29585471202552,83.59118850602995,85.3753093430746,41.92054536895091,43.704666205995565,40
190.0,87.6,87.31778854116446,83.48833932321591,85.3122975936318,42.005490947532664,43.82944921794855,40
195.0,87.6,87.32948833002332,83.36843205581712,85.24902748328464,42.08046084673869,43.9610562742062,40
200.0,87.6,87.29584860777311,83.22494647874372,85.14588988065894,42.14995872711417,44.07090212902939,40
206.0,87.6,87.27276168478319,83.0792363383916,85.05288523980458,42.21987644497861,44.193525346391596,40
212.0,87.5,87.24980404287099,82.92710470792512,84.9629923018376,42.28681174103339,44.32269933494587,40
218.0,87.5,87.21778246766357,82.74698216967798,84.87112895161869,42.34665351604488,44.47080029798559,40
224.0,87.5,87.18483999645966,82.53440986812889,84.75365035344743,42.43118964301223,44.65043012833077,40
230.0,87.4,87.09584860777309,82.28635329799218,84.60198125790504,42.493867349868054,44.809495309780914,40
236.0,87.4,87.06468789709038,82.03199300670255,84.46000449643006,42.60468340066032,45.03269489038783,40
240.0,87.29999999999998,86.96468789709037,81.76180216166506,84.26784842501672,42.69683947207365,45.20288573542531,40
250.0,87.20000000000002,86.86468789709038,81.50564439193876,84.07236698550768,42.79232091158269,45.35904350515162,40
258.0,87.20000000000002,86.7768131802585,81.2865898346988,83.88301572356319,42.89379745669531,45.4902233455597,40
265.0,87.1,86.70358759189004,81.09853938730286,83.67447222700618,43.029115364883864,45.60504820458718,40
272.0,87.1,86.63771758292202,80.98488090622146,83.51032735760454,43.127390225317484,45.65283667670056,40
280.0,87.0,86.57338993474077,80.90980520497683,83.33880347772184,43.234586457018935,45.66358472976394,40
290.0,87.0,86.55453606774117,80.90951426527482,83.20744347869159,43.34709258904958,45.645021802466346,40
300.0,87.0,86.5088148404831,80.9769189349121,83.0855371245595,43.423277715923604,45.53189590557099,40
307.0,87.0,86.51419029802784,81.06311179803427,82.97247729167101,43.54171300635683,45.45107849999357,40
315.0,87.1,86.54852128518048,81.20721178492322,82.91957828860446,43.62894299657603,45.34130950025727,40
325.0,87.1,86.57282815535689,81.33254271792175,82.85210373603537,43.72072441932151,45.24028543743513,40
335.0,87.20000000000002,86.58550031125728,81.45710178277534,82.77665148636834,43.80884882488894,45.12839852848194,40
345.0,87.20000000000002,86.56754700641443,81.58374067479076,82.70054733407548,43.86699967233895,44.98380633162367,40
355.0,87.20000000000002,86.55671887100168,81.71903897003116,82.6331306325051,43.92358823849658,44.837679900970514,40
365.0,87.20000000000002,86.53905817036375,81.85611652387325,82.54730335940872,43.99175481095503,44.68294164649049,40
375.0,87.20000000000002,86.49981593042571,81.99137524467984,82.48183797433761,44.0179779560881,44.50844068574587,40
387.0,87.1,86.44675470750752,82.14278808321401,82.4275118483784,44.01924285912912,44.30396662429351,40
400.0,87.1,86.37193848083504,82.30004378278316,82.36219333687654,44.0097451439585,44.07189469805188,40
412.0,87.0,86.2323057137557,82.44929071372233,82.3169650090437,43.915340704711994,43.78301500003336,40
425.0,86.8,86.09725109427097,82.50467345650382,82.30630990192233,43.79094119234864,43.59257763776715,40
437.0,86.8,86.05513329883057,82.2048544145261,82.35013606982221,43.704997229008356,43.85027888430447,40
450.0,86.8,86.08272878307837,81.3864195878924,82.36742545971829,43.715303323360075,44.69630919518596,40
462.0,86.8,86.09508473649157,80.04557083784084,82.11117991249085,43.98390482400072,46.04951389865073,40
475.0,86.8,86.03549833883949,78.74756083812596,81.66527722346031,44.37022111537918,47.287937500713525,40
487.0,86.8,85.98536338866407,77.97222237814435,81.27102403009093,44.71433935857314,48.01314101051972,40
500.0,86.8,85.91678901708866,77.56326757703178,80.98957500629959,44.92721401078907,48.35352144005688,40
515.0,86.8,85.89678496405247,77.37767167446343,80.91502056182316,44.98176440222932,48.51911328958904,40
530.0,86.7,85.90330677501518,77.35283410252944,81.02162516862501,44.881681606390174,48.55047267248574,40
545.0,86.7,85.88536338866408,77.40814149904115,81.24385606706204,44.641507321602035,48.477221889622925,40
560.0,86.6,85.87209268008728,77.52165123310192,81.4983148166267,44.373777863460575,48.35044144698536,40
580.0,86.4,85.80815352282508,77.669363134899,81.71572433197628,44.092429190848804,48.13879038792608,40
600.0,86.4,85.79207476953636,77.87316400650562,81.95107673252758,43.840998037008774,47.91891076303074,40
615.0,86.4,85.83909683639132,78.12262211744766,82.17475690171412,43.6643399346772,47.71647471894366,40
630.0,86.4,85.90143858000069,78.38128526081645,82.36711974941764,43.53431883058305,47.52015331918423,40
650.0,86.5,85.99627437052979,78.61178742498973,82.56610227834938,43.43017209218041,47.38448694554006,40
670.0,86.5,85.99627437052979,78.77503332573207,82.7137567762825,43.282517594247295,47.22124104479772,40
690.0,86.4,85.89175253835069,78.8420034706255,82.78659128889424,43.105161249456444,47.04974906772519,40
710.0,86.3,85.73788287509404,78.77827036215382,82.75548458873453,42.98239828635951,46.959612512940225,40
730.0,86.19999999999999,85.6224381279964,78.60567275189048,82.63974300227977,42.98269512571663,47.01676537610592,40
750.0,86.19999999999999,85.52174983806158,78.26186767147489,82.40762247995377,43.11412735810781,47.25988216658669,40
775.0,86.3,85.47088525879502,77.76840772699197,82.04832678431562,43.4225584744794,47.702477531803055,40
800.0,86.3,85.32402920582156,77.13307094012619,81.550136364144,43.773892841677565,48.19095826569537,40
825.0,86.19999999999999,85.16954033394889,76.49851800028115,81.06045993399682,44.10908039995206,48.671022333667736,40
850.0,86.1,84.97105957946722,75.9699790999141,80.65141354041893,44.319646039048294,49.001080479553124,40
875.0,86.0,84.8260685127507,75.62460214202443,80.3802976622767,44.44577085047399,49.201466370726266,40
900.0,85.9,84.77367693483549,75.53721304867145,80.32337222043196,44.45030471440353,49.236463886164046,40
925.0,85.9,84.79478219854464,75.65305451759606,80.42221821620295,44.37256398234169,49.14172768094858,40
950.0,86.0,84.89478219854465,75.9216985251415,80.6580114381141,44.236770760430545,48.97308367340315,40
975.0,86.0,84.98059168222802,76.1574906870293,80.86178989818399,44.11880178404404,48.82310099519873,40
1000.0,86.0,84.96730636242853,76.2382275067955,80.93378574547091,44.03352061695762,48.729078855633034,40
1030.0,85.9,84.85193485317055,76.16422334607509,80.85885532115154,43.99307953201901,48.68771150709546,40
1060.0,85.7,84.69324123831703,75.9127026334913,80.60374664583684,44.08949459248019,48.78053860482572,40
1090.0,85.6,84.52086013965479,75.580173650066,80.27740317342042,44.24345696623436,48.940686489588785,40
1120.0,85.6,84.40713149783335,75.18965563426818,79.93455510148738,44.47257639634597,49.21747586356517,40
1150.0,85.7,84.35709902028994,74.85694734028544,79.6521490292136,44.70494999107633,49.50015168000449,40
1180.0,85.80000000000001,84.34852946085611,74.61883367311759,79.45593741832866,44.892592042527454,49.72969578773852,40
1220.0,85.80000000000001,84.2877171847309,74.4674898225734,79.30886672558556,44.978850459145335,49.820227362157496,40
1250.0,85.7,84.17117815194172,74.40519067595741,79.21118955973316,44.95998859220856,49.7659874759843,40
1280.0,85.6,84.05944173944167,74.44564095975004,79.17047259435762,44.88896914508405,49.61380077969163,40
1320.0,85.5,83.9813600262318,74.55347967415726,79.2081154449731,44.773244581258695,49.42788035207454,40
1360.0,85.5,83.96385939523417,74.64416542069313,79.24898009702311,44.71487929821106,49.31969397454104,40
1400.0,85.5,83.98036373419424,74.6527514607441,79.24009335329302,44.74027038090122,49.32761227345014,40
1450.0,85.5,83.96824837377696,74.4553147103868,79.07919572738041,44.88905264639655,49.51293366339016,40
1500.0,85.5,83.91318098993635,74.14543910057628,78.86760249621358,45.04557849372277,49.76774188936007,40
1550.0,85.5,83.84338074764848,73.85139736271432,78.68005940379365,45.16332134385483,49.99198338493416,40
1600.0,85.4,83.80143103093835,73.6933921257217,78.61005688561058,45.19137414532777,50.108038905216645,40
1650.0,85.3,83.69406333963951,73.56213713021522,78.52286398918685,45.17119935045267,50.13192620942429,40
1700.0,85.1,83.5370061397467,73.42352505546394,78.40903977088813,45.127966368858566,50.11348108428275,40
1750.0,85.0,83.38445006562849,73.22341096170831,78.25574474775932,45.12870531786916,50.161039103920174,40
1800.0,85.0,83.26858492776714,72.99991894522,78.06648701445624,45.202097913310894,50.268665982547134,40
1850.0,85.0,83.1975641018149,72.80243131900134,77.92057531238966,45.276988789425246,50.39513278281356,40
1900.0,85.1,83.1928566300657,72.66384281300013,77.8392085194694,45.35364811059631,50.529013817065575,40
1950.0,85.2,83.12611629538097,72.53675186739703,77.74620344642017,45.3799128489608,50.58936442798394,40
2000.0,85.0,83.0316532228368,72.49841874671623,77.67194625014731,45.35970697268948,50.53323447612057,40
2060.0,84.9,82.95646105301107,72.47899106431078,77.61933757040049,45.33712348261058,50.47746998870029,40
2120.0,84.9,82.94299116010518,72.53779565616736,77.61917731081651,45.32381384928867,50.40519550393782,40
2180.0,84.9,82.94061563099024,72.53756698368917,77.59537643565216,45.34523919533808,50.40304864730106,40
2240.0,84.9,82.86207526789599,72.40976920246038,77.49809348998713,45.36398177790886,50.45230606543561,40
2300.0,84.9,82.78109778283974,72.20305688062294,77.32413660986934,45.456961172970395,50.5780409022168,40
2360.0,84.9,82.70329469583066,71.98993473559284,77.18306848636229,45.520226209468376,50.713359960237824,40
2400.0,84.9,82.62189445389683,71.85029787435036,77.0833164304737,45.53857802342313,50.77159657954647,40
2500.0,84.9,82.6147244853755,71.84254502476975,77.07787270172318,45.536851783652324,50.772179460605756,40
2580.0,84.9,82.57498102814964,71.8288543745629,77.09283591178902,45.48214511636061,50.74612665358674,40
2650.0,84.79999999999998,82.5087040050187,71.77763755070606,77.07353497420709,45.43516903081161,50.73106645431264,40
2720.0,84.79999999999998,82.45848250608518,71.68983219798696,77.02432248032679,45.43416002575839,50.768650308098216,40
2800.0,84.79999999999998,82.44706237877568,71.62057262800795,76.98995347074552,45.457108908030165,50.826489750767735,40
2900.0,84.70000000000002,82.37511545680329,71.55966559598434,76.91625581790402,45.45885963889927,50.815449860818944,40
3000.0,84.4,82.22367344246439,71.47917468885103,76.77812094040482,45.44555250205957,50.74449875361336,40
3070.0,84.2,82.12826730964173,71.43843136172099,76.71037848017134,45.417888829470385,50.68983594792074,40
3150.0,84.4,82.21253974070075,71.46714524053226,76.78779656793827,45.424743172762476,50.74539450016849,40
3250.0,84.4,82.26824035702737,71.44467838934673,76.78253522507487,45.4857051319525,50.82356196768063,40
3350.0,84.4,82.29882387192762,71.42185760177767,76.785811868826,45.51301200310162,50.87696627014995,40
3450.0,84.2,82.30948645664469,71.44104822137507,76.77981824587822,45.529668210766474,50.86843823526962,40
3550.0,84.1,82.28133234257847,71.44312682231197,76.77418979040519,45.50714255217328,50.8382055202665,40
3650.0,83.8,82.12999536350802,71.30084831204817,76.62051227511466,45.50948308839335,50.82914705145984,40
3750.0,83.6,81.9014983388387,71.02450015672706,76.36462714298075,45.536871195857955,50.87699818211165,40
3870.0,83.4,81.83879896653673,70.91646960275452,76.28008482556052,45.55871414097621,50.92232936378221,40
4000.0,83.4,81.8959286107134,70.93616859361128,76.3215244476962,45.57440416301719,50.95976001710211,40
4120.0,83.4,81.96601417444424,70.997429386828,76.3783067161202,45.58770745832403,50.96858478761624,40
4250.0,83.30000000000001,81.90727806894265,70.95380170064847,76.35092646056646,45.55635160837619,50.953476368294176,40
4370.0,83.2,81.8278922636155,70.92970525728497,76.32999240710639,45.49789985650911,50.89818700633053,40
4500.0,83.0,81.68808019810228,70.88544821982052,76.25652698396291,45.43155321413937,50.80263197828177,40
