Freq "Listening Window"
22.4 35.15558403956956
23.0 36.196364185476625
23.6 37.37095055026475
24.0 38.59879728234375
25.0 39.93743780524335
25.8 41.31877972765329
26.5 42.775905430893886
27.2 44.298353671296496
28.0 45.86124930033756
29.0 47.43220049129852
30.0 49.04359752131569
30.7 50.73609662754018
31.5 52.514932596076335
32.5 54.418214624312014
33.5 56.470696748494845
34.5 58.5543927217706
35.5 60.556361733122486
36.5 62.39414085581785
37.5 64.04344738930523
38.7 65.5718212033728
40.0 67.0378825568432
41.2 68.49646169270457
42.5 69.97040262659988
43.7 71.3331897221201
45.0 72.68910113310088
46.2 73.9736715785011
47.5 75.27197410608854
48.7 76.47682846605866
50.0 77.68523890572737
51.5 78.82901465308143
53.0 79.91458062022264
54.5 81.01063258608495
56.0 81.99113328053522
58.0 82.96283437485332
60.0 83.90672660987553
61.5 84.72933194308365
63.0 85.43584652952825
65.0 86.107280565633
67.0 86.66446635853112
69.0 87.11949498187064
71.0 87.40179652515563
73.0 87.61961451748915
75.0 87.7695437312693
77.5 87.84635871317299
80.0 87.92304925613116
82.5 88.00997112956016
85.0 88.09889211789408
87.5 88.18752570875733
90.0 88.27638921611216
92.5 88.33128704732556
95.0 88.40946149751485
97.5 88.42051361332588
100.0 88.42051361332588
103.0 88.42051361332588
106.0 88.42051361332588
109.0 88.42051361332588
112.0 88.43128704732555
115.0 88.45376316515475
118.0 88.43230114303458
122.0 88.43230114303458
125.0 88.43230114303458
128.0 88.38852675866809
132.0 88.36623029609989
136.0 88.34531825381396
140.0 88.34531825381396
145.0 88.34531825381396
150.0 88.32478448092684
155.0 88.30267386150751
160.0 88.30267386150751
165.0 88.30267386150751
170.0 88.31400074533822
175.0 88.33762686392424
180.0 88.33762686392424
185.0 88.33762686392424
190.0 88.35956069306319
195.0 88.37126048192206
200.0 88.33762075967181
206.0 88.31453383668193
212.0 88.2915761947697
218.0 88.25955461956231
224.0 88.22661214835838
230.0 88.13762075967182
236.0 88.1064600489891
240.0 88.00646004898911
250.0 87.9064600489891
258.0 87.81858533215723
265.0 87.74535974378877
272.0 87.67948973482075
280.0 87.61516208663951
290.0 87.5963082196399
300.0 87.55058699238182
307.0 87.55596244992657
315.0 87.59029343707921
325.0 87.61460030725563
335.0 87.62727246315599
345.0 87.60931915831314
355.0 87.59849102290039
365.0 87.58083032226247
375.0 87.54158808232441
387.0 87.48852685940625
400.0 87.41371063273377
412.0 87.27407786565442
425.0 87.13902324616971
437.0 87.0969054507293
450.0 87.1245009349771
462.0 87.1368568883903
475.0 87.07727049073819
487.0 87.0271355405628
500.0 86.95856116898739
515.0 86.9385571159512
530.0 86.9450789269139
545.0 86.9271355405628
560.0 86.91386483198602
580.0 86.84992567472382
600.0 86.8338469214351
615.0 86.88086898829003
630.0 86.94321073189943
650.0 87.0380465224285
670.0 87.0380465224285
690.0 86.93352469024941
710.0 86.77965502699277
730.0 86.66421027989513
750.0 86.56352198996031
775.0 86.51265741069375
800.0 86.36580135772027
825.0 86.21131248584763
850.0 86.01283173136594
875.0 85.86784066464942
900.0 85.8154490867342
925.0 85.83655435044338
950.0 85.93655435044337
975.0 86.02236383412674
1000.0 86.00907851432726
1030.0 85.89370700506927
1060.0 85.73501339021576
1090.0 85.56263229155353
1120.0 85.44890364973207
1150.0 85.39887117218866
1180.0 85.39030161275483
1220.0 85.32948933662962
1250.0 85.21295030384044
1280.0 85.1012138913404
1320.0 85.02313217813051
1360.0 85.00563154713288
1400.0 85.02213588609297
1450.0 85.01002052567569
1500.0 84.95495314183508
1550.0 84.88515289954722
1600.0 84.84320318283706
1650.0 84.73583549153824
1700.0 84.57877829164542
1750.0 84.42622221752721
1800.0 84.31035707966586
1850.0 84.23933625371365
1900.0 84.23462878196443
1950.0 84.1678884472797
2000.0 84.07342537473552
2060.0 83.9982332049098
2120.0 83.9847633120039
2180.0 83.98238778288896
2240.0 83.90384741979472
2300.0 83.82286993473846
2360.0 83.74506684772939
2400.0 83.66366660579556
2500.0 83.65649663727423
2580.0 83.61675318004836
2650.0 83.55047615691743
2720.0 83.5002546579839
2800.0 83.48883453067441
2900.0 83.41688760870203
3000.0 83.26544559436311
3070.0 83.17003946154045
3150.0 83.25431189259949
3250.0 83.31001250892609
3350.0 83.34059602382635
3450.0 83.35125860854342
3550.0 83.3231044944772
3650.0 83.17176751540676
3750.0 82.94327049073743
3870.0 82.88057111843547
4000.0 82.93770076261214
4120.0 83.00778632634295
4250.0 82.94905022084137
4370.0 82.86966441551421
4500.0 82.72985235000101
4620.0 82.62604633333717
4750.0 82.50538735470901
4870.0 82.48525126305199
5000.0 82.52537042593308
5150.0 82.58458485050141
5300.0 82.6740436684498
5450.0 82.65627061203786
5600.0 82.59208767128322
5800.0 82.46288231794101
6000.0 82.31380145543324
6150.0 82.03875875540739
6300.0 81.73422272248172
6500.0 81.50031182471062
6700.0 81.45577955220313
6900.0 81.44889634894525
7100.0 81.26045955947787
7300.0 80.92608434414419
7500.0 80.4754191676806
7750.0 79.99406419645118
8000.0 79.62079378615546
8250.0 79.64467797845465
8500.0 79.98563927814713
8750.0 80.12094257790925
9000.0 79.99644480022894
9250.0 79.88768567998328
9500.0 79.76311470234492
9750.0 79.46920594698557
10000.0 79.14310446088288
10300.0 78.9621058314582
10600.0 78.9514327245229
10900.0 78.86847507005746
11200.0 78.70144570586652
11500.0 78.42003301416212
11800.0 78.12356799153503
12200.0 77.80466957655773
12500.0 77.45407926235471
12800.0 76.9133931058337
13200.0 76.29704989872667
13600.0 75.72246186092265
14000.0 75.30254089121786
14500.0 74.8472638889403
15000.0 74.34466584810369
15500.0 73.67872624543047
16000.0 72.9637429714312
16500.0 72.29445474659033
17000.0 71.66452525323058
17500.0 70.85530951245389
18000.0 69.75708389828766
18500.0 68.46473471512908
19000.0 66.97483483493845
19500.0 65.29177488202512
