Freq "Floor Bounce"
20.5078 49.39259815418903
21.9727 61.031815079718385
23.4375 62.593498418131034
24.9023 67.54444648805169
26.3672 71.07475938294839
27.832 74.52984399945065
29.2969 77.71357627335502
30.7617 80.41893116118808
32.2266 83.1975525913849
33.6914 85.52536676515969
35.1562 87.61006964064958
36.6211 89.44317271512385
38.0859 90.94814056904437
39.5508 92.0687368935105
41.0156 92.69149746907186
42.4805 93.24347477394818
43.9453 93.60569607690506
45.4102 93.82944384322181
46.875 93.92910575416578
48.3398 93.86926118805867
51.2695 93.79938994015649
52.7344 93.74913190069168
54.1992 93.73975101748965
55.6641 93.76789120753831
58.5938 93.76612275932446
60.0586 93.75399089572215
62.9883 93.7810526751134
64.4531 93.79209654348313
67.3828 93.80969157153022
68.8477 93.83174567296489
71.7773 93.93358799251476
74.707 94.0497592439888
77.6367 94.1025579732074
79.1016 94.12029890968525
82.0312 94.18106265029803
84.9609 94.10985225438979
87.8906 93.98646439767192
90.8203 94.04095933617907
95.2148 94.15651322883623
98.1445 94.2001304909847
101.074 94.30159794177379
105.469 93.94857868298126
108.398 94.31512716917827
112.793 94.43694191509206
117.188 94.6722493474
120.117 94.6011088594557
124.512 94.46345094463719
128.906 94.49245294470735
133.301 94.26734676886463
139.16 94.18536947613724
143.555 94.2708649305499
147.949 94.25135356612599
153.809 94.0989387787029
159.668 93.62254210242541
165.527 93.33748670690174
171.387 93.79254437802929
177.246 93.92837640162165
183.105 93.72553682254504
188.965 93.90145977717394
196.289 94.10851579545421
203.613 94.10909860590006
210.938 94.0157638998261
218.262 93.9420754186633
225.586 94.18029197450562
232.91 94.33856786478374
241.699 94.30901180632911
250.488 94.46055278282945
259.277 94.33131119733825
268.066 93.93311594887041
276.855 93.9904409127554
287.109 93.84604110958836
297.363 94.23372515673401
307.617 93.98826568109818
319.336 94.19939270135357
329.59 93.94422242916293
341.309 93.31983523167321
353.027 93.43932298695002
366.211 93.91030204204746
379.395 93.91415632444091
392.578 93.13078245124801
405.762 92.76113794606418
420.41 93.54343010100486
435.059 93.14012429163141
451.172 93.99200748058982
465.82 93.1961274046719
483.398 93.23270096041445
499.512 93.72463790690414
517.09 93.29851997172166
536.133 92.29940518468067
555.176 94.42536371129444
574.219 95.29971651445781
594.727 94.57876892135285
615.234 93.96407992605612
637.207 93.25716739996479
659.18 93.02209704299659
682.617 92.02469089150422
707.52 93.41185291846462
732.422 92.84950264914734
757.324 92.2095771328966
785.156 92.2041352727687
811.523 91.7717985699149
840.82 91.17951214429975
870.117 91.78164141131478
900.879 92.75959360459088
933.105 92.88262918183551
965.332 92.51394416058525
1000.49 94.71370563529854
1035.64 93.97592483904852
1072.27 94.22189520591368
1108.89 94.4055256797811
1148.44 94.50484138135724
1189.45 95.06566084685747
1230.47 94.42437716175914
1274.41 94.46179141362751
1319.82 94.34462417407953
1366.7 94.19498497603804
1413.57 93.3315211195025
1463.38 93.03376173411169
1516.11 93.50897972270185
1568.85 93.31571726629274
1624.51 93.97131144608589
1681.64 93.36791726573625
1741.7 92.47825657127888
1803.22 91.79975583433217
1866.21 91.40896195392098
1932.13 90.36661952117814
1999.51 90.10868009640119
2069.82 89.46151669297392
2143.07 88.8353480564388
2219.24 89.48367997197103
2296.88 87.90858994446667
2378.91 88.6043650741797
2462.4 87.90094274657595
2548.83 87.06584372882557
2639.65 88.31081681852096
2731.93 90.97490905693692
2828.61 92.16568314356311
2928.22 91.39687397551855
3030.76 90.7880083754451
3137.7 91.25294916552237
3249.02 91.62518116710896
3363.28 92.57501805941376
3481.93 94.00929222802152
3604.98 94.28717939275035
3732.42 94.66486603085636
3864.26 95.42607907571373
4000.49 95.38314582574276
4141.11 95.40599252502099
4287.6 95.05517441778943
4438.48 92.51790242638182
4595.21 88.62331342463901
4756.35 91.07794956719651
4924.8 92.48662472951858
5097.66 92.82356110825778
5277.83 92.65117926921356
5463.87 92.92029395337298
5657.23 92.60326577355525
5856.45 92.96945873034612
6062.99 92.93103923686844
6276.86 93.31023270936389
6498.05 92.98830787080168
6726.56 92.14691252951154
6963.87 92.56467627552705
7209.96 92.59046380042106
7464.84 92.73898162797633
7727.05 92.44015397185913
7999.51 92.05383862184324
8282.23 91.57177862925487
8573.73 91.2480895072202
8876.95 90.04443363995209
9188.96 89.69941409041199
9514.16 89.93781586213731
9849.61 89.92340785117949
10196.8 88.91767885791332
10555.7 87.90994658486676
10927.7 88.14700029544599
11313.0 87.71283208447106
11712.9 86.1077531088326
12126.0 85.02669311858665
12553.7 83.54638490948406
12996.1 85.71721364982929
13454.6 87.23465769987992
13929.2 87.12413755842812
14419.9 85.94839991940705
14928.2 84.59706971328659
15455.6 85.42944269147615
16000.5 86.70646183975003
16564.5 86.35242794798447
17148.9 86.6182838199086
17752.4 86.62582703864216
18379.4 85.49853298936863
19026.9 84.32736126332453
19697.8 82.92873128317834
19999.5 82.80357632111112
