Freq "Side Wall Bounce"
20.5078 58.51104002613171
21.9727 63.935416223241006
23.4375 64.50459286702859
24.9023 68.90384909512476
26.3672 72.24478776525063
27.832 75.51107661969323
29.2969 78.54543867348976
30.7617 81.18450739559088
32.2266 83.93050315240868
33.6914 86.21988985980845
35.1562 88.24627620368713
36.6211 90.03093131004532
38.0859 91.49355971669276
39.5508 92.56439290830596
41.0156 93.16781362866921
42.4805 93.66679270993285
43.9453 93.98632348679878
45.4102 94.18123591790739
46.875 94.25947750696899
48.3398 94.18486292721055
51.2695 94.04155953314054
52.7344 93.98218996014751
54.1992 93.95830964073689
55.6641 93.96122541720808
58.5938 93.92098251434919
60.0586 93.90100287764325
62.9883 93.88071354336492
64.4531 93.87611750366982
67.3828 93.86588575198158
68.8477 93.86919370152371
71.7773 93.94087926681581
74.707 94.0434384478675
77.6367 94.07984158466077
79.1016 94.08109186483348
82.0312 94.09022218002038
84.9609 94.0015593834715
87.8906 93.98024012416454
90.8203 93.97162007699993
95.2148 93.98254345114192
98.1445 94.0075612078497
101.074 94.03193650345682
105.469 93.7533663076086
108.398 93.97377924866271
112.793 94.09752120362407
117.188 94.3116604944846
120.117 94.24032940323208
124.512 94.05214830688261
128.906 94.04949547547989
133.301 93.86131957200513
139.16 93.61220946264659
143.555 93.6087428251745
147.949 93.59064521597797
153.809 93.4286152586195
159.668 93.1787180523719
165.527 92.6450418699591
171.387 92.7772217420461
177.246 92.86384070096587
183.105 92.67783240842522
188.965 92.74114117445392
196.289 92.98249537861635
203.613 92.95928707800574
210.938 92.8441547642394
218.262 92.88021206299868
225.586 92.89469643181266
232.91 93.02944002675491
241.699 92.94045343786924
250.488 92.79095432566255
259.277 92.82626560667454
268.066 92.44276681316803
276.855 92.77741460023996
287.109 92.82704073983778
297.363 92.91879042493309
307.617 92.83368763868576
319.336 92.56520363298772
329.59 92.56431628390567
341.309 91.81845347434037
353.027 92.16192744222245
366.211 92.48163156314942
379.395 92.80920011369842
392.578 92.51444111223316
405.762 91.82009986412818
420.41 92.53384445209699
435.059 92.13043317881844
451.172 92.54656701921176
465.82 92.18887974689444
483.398 91.0282169910319
499.512 90.87350397146444
517.09 90.38917039628508
536.133 92.08026391764528
555.176 93.20243939939859
574.219 93.75022384064312
594.727 92.29765049761569
615.234 91.74243912174565
637.207 90.55576774914113
659.18 89.97372501931132
682.617 90.41526152724084
707.52 91.68344600930779
732.422 90.96993444891153
757.324 90.20168704814206
785.156 90.45540960388159
811.523 90.22357890711554
840.82 89.85007260978982
870.117 90.3560992586946
900.879 90.70150776143177
933.105 89.82788606964118
965.332 89.04080738126052
1000.49 90.03920877963449
1035.64 90.62259564776888
1072.27 90.46517453917888
1108.89 90.73089606799549
1148.44 90.33246748773554
1189.45 90.06568475725878
1230.47 89.36167470719462
1274.41 88.78051802809361
1319.82 88.15320220925135
1366.7 87.50446934061465
1413.57 87.47645896796554
1463.38 87.41259326582828
1516.11 86.86416247691491
1568.85 86.49877478935787
1624.51 87.0632031401934
1681.64 85.88935280224706
1741.7 85.45524647109524
1803.22 85.76297197534085
1866.21 85.41685875158103
1932.13 84.45327904083682
1999.51 83.41848069132239
2069.82 82.89028946642851
2143.07 83.42439652778619
2219.24 85.2015098039616
2296.88 85.40967017844461
2378.91 85.58037305734602
2462.4 86.4854353379398
2548.83 88.12416320860595
2639.65 88.75975621531371
2731.93 88.9005047631084
2828.61 89.23214983254177
2928.22 88.85462303166143
3030.76 88.79699051557687
3137.7 89.20369147465142
3249.02 89.38071594848655
3363.28 88.92075373506371
3481.93 89.80123634738322
3604.98 91.02558345292303
3732.42 90.81399078655852
3864.26 90.52965260327493
4000.49 91.21931523951028
4141.11 90.94873962531923
4287.6 90.2664288558124
4438.48 87.51641104074717
4595.21 84.57518665709944
4756.35 86.60390485219334
4924.8 87.46691041632661
5097.66 88.38410577918906
5277.83 87.69460200201902
5463.87 88.33809640995179
5657.23 88.80781418852523
5856.45 89.19304260493323
6062.99 89.40219907644232
6276.86 88.9848423501135
6498.05 88.12907433709506
6726.56 88.24479519688475
6963.87 88.29234210494921
7209.96 89.29457035334976
7464.84 89.00569569372155
7727.05 89.42950869418186
7999.51 89.05448526470406
8282.23 88.90032545757339
8573.73 88.37850390197784
8876.95 87.3782343171641
9188.96 87.23378247671154
9514.16 86.41852036878072
9849.61 86.59553798093732
10196.8 85.9822919537102
10555.7 85.31546822112013
10927.7 85.69821223547055
11313.0 86.27143037390725
11712.9 85.58374333544474
12126.0 85.34950221212735
12553.7 85.48064339003221
12996.1 85.50177519480054
13454.6 83.79186790652192
13929.2 81.66641390454768
14419.9 83.12056604632714
14928.2 84.01908218886152
15455.6 82.84849850813497
16000.5 83.47615474062398
16564.5 82.84635762905073
17148.9 79.93840854754598
17752.4 80.26860349475174
18379.4 79.7877258338339
19026.9 77.19430754508481
19697.8 75.7884144023725
19999.5 74.63157059044323
