Freq "Listening Window"
20.5078 51.66646586635697
21.9727 49.88745024251993
23.4375 53.83216805781207
24.9023 54.40942580195936
26.3672 58.510267868923464
27.832 61.598110279867484
29.2969 64.71940566703388
30.7617 67.77797260733793
32.2266 70.56518081278544
33.6914 73.08996424745582
35.1562 75.65682480224574
36.6211 77.73862107685069
38.0859 79.32473769037657
39.5508 80.72846546549901
41.0156 81.81633986263971
42.4805 82.61734111188757
43.9453 83.14399857649506
45.4102 83.56087069462593
46.875 83.76601934237047
48.3398 83.98487888689866
51.2695 83.97009496706985
52.7344 83.94648113797912
54.1992 83.98822262887334
55.6641 84.00470696365277
58.5938 83.87338079410311
60.0586 83.8377080938454
62.9883 83.77597134569663
64.4531 83.721524032622
67.3828 83.71899648887742
68.8477 83.73032902217382
71.7773 83.70475101521153
74.707 83.66429260674678
77.6367 83.66754742253252
79.1016 83.67621600736015
82.0312 83.66709951278241
84.9609 83.65869660087121
87.8906 83.75127861468758
90.8203 83.86861684779767
95.2148 83.86315960378629
98.1445 83.86505065870674
101.074 83.84683429507852
105.469 83.66743086646066
108.398 83.59555896685558
112.793 83.52741127299589
117.188 83.07390659258824
120.117 82.8270837892204
124.512 82.23434415341879
128.906 82.20883498412371
133.301 82.32708453802401
139.16 82.50733236154704
143.555 82.74623685883435
147.949 82.83181099405513
153.809 82.5849692057728
159.668 82.73169127498664
165.527 82.83308627521664
171.387 83.13534274326177
177.246 83.11033794388031
183.105 83.10937062944504
188.965 83.16770166547607
196.289 83.21385123845683
203.613 82.91440514953094
210.938 83.11710966087662
218.262 82.19463603004715
225.586 81.76081519228575
232.91 81.7714927334741
241.699 81.67917684571137
250.488 81.68335729434392
259.277 82.14309084394812
268.066 82.11618760999188
276.855 82.28696417019664
287.109 82.4481780271659
297.363 82.61926086637078
307.617 82.18466871933359
319.336 81.88532180091117
329.59 82.07816497539837
341.309 82.54553612098428
353.027 83.2156233608968
366.211 82.46246543890031
379.395 82.43342908325583
392.578 82.27343599933009
405.762 82.43848958923023
420.41 82.76287138773462
435.059 82.33491866099835
451.172 81.51554939003086
465.82 82.321205963599
483.398 83.70960196569963
499.512 83.07339431263158
517.09 83.79070355498516
536.133 83.73518491361611
555.176 82.79458219741808
574.219 83.85451294602079
594.727 81.52614528626756
615.234 83.71458485971965
637.207 84.8311208909511
659.18 84.040218641608
682.617 84.64165940431222
707.52 83.25519254087997
732.422 81.57344786593585
757.324 81.1078841036666
785.156 79.32716729238666
811.523 80.23646711499418
840.82 81.54427535413035
870.117 85.03858062689122
900.879 84.6031029861641
933.105 83.42369828071287
965.332 82.85860722550524
1000.49 82.59208904561335
1035.64 82.61121793148179
1072.27 83.25008980186192
1108.89 84.02909867753112
1148.44 83.85277007476431
1189.45 83.7302881536669
1230.47 83.18216762304709
1274.41 82.0122448425251
1319.82 81.34985957977742
1366.7 83.77866393408875
1413.57 84.10814010172369
1463.38 83.81261445853728
1516.11 83.47330284719307
1568.85 83.24432744718321
1624.51 83.54413544211717
1681.64 83.77830558315806
1741.7 83.11220007707249
1803.22 82.54096197044335
1866.21 82.38713180488047
1932.13 82.38953083919013
1999.51 82.3976253618922
2069.82 82.88835098310413
2143.07 84.07374951909347
2219.24 83.01895573325889
2296.88 83.03963034311268
2378.91 82.76036910740343
2462.4 82.88396176265168
2548.83 82.42005851097564
2639.65 82.38030588255346
2731.93 82.40232224556942
2828.61 82.3451190783007
2928.22 81.62356548605092
3030.76 82.10224920971477
3137.7 81.90152633432074
3249.02 82.10937116357978
3363.28 82.17241271049915
3481.93 82.16164156116648
3604.98 82.14338937465024
3732.42 82.01581051998629
3864.26 82.22374502231783
4000.49 82.14291665389314
4141.11 82.54505992347754
4287.6 82.53866984264563
4438.48 82.65472994787164
4595.21 82.57811648609604
4756.35 82.41627511209255
4924.8 82.4420889223667
5097.66 82.34197530831355
5277.83 82.05128502396302
5463.87 82.43544696961006
5657.23 82.33120348888897
5856.45 82.42513432577094
6062.99 82.56822347333711
6276.86 82.45447286851575
6498.05 82.5546983417762
6726.56 82.60087237669673
6963.87 82.56645167831492
7209.96 82.67041859024403
7464.84 82.86548278146195
7727.05 82.8524885393051
7999.51 82.78091932965278
8282.23 82.7000482983744
8573.73 82.61880555718648
8876.95 82.479745861058
9188.96 82.46167908714894
9514.16 82.60609992528723
9849.61 82.74233611281663
10196.8 82.73680436507045
10555.7 82.30790981382455
10927.7 81.73432889654846
11313.0 80.88112946674478
11712.9 79.88592556657109
12126.0 79.1166398772746
12553.7 79.08965271900392
12996.1 80.06226389644594
13454.6 81.06317990194881
13929.2 82.00137452953491
14419.9 82.6804563750129
14928.2 83.16669461222234
15455.6 83.33594821286198
16000.5 83.43846211527803
16564.5 83.68926270913363
17148.9 84.08180565264516
17752.4 84.36629103993344
18379.4 84.46223857299383
19026.9 84.61565638161584
19697.8 84.43342519642812
19999.5 84.11566031359571
