Freq,Floor Bounce,Ceiling Bounce,Front Wall Bounce,Side Wall Bounce,Rear Wall Bounce,Total Early Reflection
22.4,49.65260953202217,46.76194867563767,49.731777962183386,48.22794044966106,44.82163951967557,48.20352585746268
23.0,50.95260953202218,48.06194867563765,51.060723037585845,49.538947351357606,46.135448149365786,49.51525430887547
23.6,52.323496850659794,49.40265450340338,52.388171932215116,50.903586030642415,47.49246216475039,50.866927768628685
24.0,53.58982856673474,50.72934077441657,53.6746271688212,52.21300882614618,48.7828816110986,52.1585439185108
25.0,54.88982856673472,52.00265450340338,54.974627168821186,53.47265453837771,50.06932389309223,53.445315686721486
25.8,56.1526095320222,53.26194867563767,56.2307751786751,54.72794044966106,51.32163951967557,54.70324073823447
26.5,57.352609532022186,54.46194867563766,57.44577492219541,55.92794044966105,52.528946310090575,55.90818116166379
27.2,58.552609532022174,55.661948675637646,58.63077517867511,57.12794044966104,53.72163951967555,57.103240738234476
28.0,59.75260953202216,56.86194867563766,59.80230990919567,58.32794044966106,54.921639519675566,58.295166902998446
29.0,60.952609532022166,58.06194867563765,61.030775178675114,59.527940449661045,56.121639519675554,59.50324073823445
30.0,62.18982856673473,59.30265450340339,62.27462716882118,60.80358603064239,57.36598239919569,60.751252166860624
30.7,63.489828566734715,60.6026545034034,63.574627168821195,62.072654538377705,58.66272222561473,62.044709251046825
31.5,64.85260953202217,61.96194867563764,64.96072303758585,63.42794044966105,60.02163951967556,63.411776074484536
32.5,66.3234968506598,63.42934077441656,66.40230990919567,64.92030917548875,61.50741992102766,64.87950848616818
33.5,67.85260953202219,64.96194867563766,67.93177796218339,66.42794044966104,63.021639519675574,66.40352585746267
34.5,69.4234968506598,66.52934077441657,69.48817193221511,68.0130088261462,64.59721302452421,67.973084538921
35.5,70.95260953202217,68.1026545034034,71.0746271688212,69.55981983851645,66.15435719970135,69.53100253795813
36.5,72.55260953202217,69.66194867563766,72.60230990919567,71.12794044966107,67.72163951967556,71.09516690299844
37.5,74.05260953202217,71.16194867563766,74.16072303758585,72.62794044966104,69.22163951967556,72.61177607448454
38.7,75.5234968506598,72.6026545034034,75.5881719322151,74.1130088261462,70.68392451212797,74.06804589842815
40.0,76.85260953202219,73.96194867563766,76.91672971373022,75.42794044966105,72.0160885409802,75.39874238718942
41.2,78.05260953202217,75.16194867563765,78.16072303758587,76.63973348944599,73.24136942231422,76.61595655665778
42.5,79.15260953202217,76.26194867563767,79.26072303758586,77.7389473513576,74.33487644838438,77.7152018048795
43.7,80.15260953202217,77.26194867563765,80.2307751786751,78.72794044966103,75.32163951967557,78.70324073823447
45.0,81.02349685065981,78.12934077441656,81.10230990919568,79.62030917548876,76.20116066227854,79.57893296686517
46.2,81.78982856673473,78.9026545034034,81.87462716882119,80.40358603064239,76.96598239919568,80.35125216686063
47.5,82.45260953202218,79.56194867563767,82.5317779621834,81.02794044966105,77.62163951967555,81.00352585746268
48.7,83.0234968506598,80.12934077441656,83.10230990919567,81.62030917548876,78.20116066227854,81.57893296686517
50.0,83.52349685065981,80.6026545034034,83.58817193221512,82.11300882614621,78.68392451212797,82.06804589842817
51.5,83.88982856673472,81.0026545034034,83.97462716882119,82.48131041932028,79.06773102118508,82.44691284161665
53.0,84.1898285667347,81.32934077441656,84.2746271688212,82.81300882614619,79.38288161109861,82.7585439185108
54.5,84.45260953202218,81.56194867563765,84.51672971373021,83.02794044966106,79.62163951967557,82.99925217125981
56.0,84.6234968506598,81.72934077441656,84.70230990919568,83.22030917548875,79.8160885409802,83.18030678352238
58.0,84.75260953202218,81.86194867563766,84.8307751786751,83.32794044966106,79.92163951967557,83.30324073823446
60.0,84.8234968506598,81.96194867563766,84.90230990919567,83.42030917548875,80.01608854098022,83.38499117752089
61.5,84.85260953202217,81.96194867563766,84.96072303758585,83.42794044966105,80.02163951967556,83.41177607448456
63.0,84.85260953202217,81.96194867563766,84.96072303758585,83.42794044966105,80.02163951967556,83.41177607448456
65.0,84.85260953202217,81.96194867563766,84.9317779621834,83.42794044966105,80.02163951967556,83.40352585746268
67.0,84.8234968506598,81.92934077441656,84.87462716882119,83.4130088261462,79.98288161109862,83.36793238013708
69.0,84.75260953202218,81.86194867563766,84.84577492219542,83.3389473513576,79.9354481493658,83.31099215417323
71.0,84.68982856673472,81.80265450340339,84.7881719322151,83.29497447727138,79.87967757461115,83.25462076733344
73.0,84.6234968506598,81.72934077441656,84.70230990919568,83.22030917548875,79.7972130245242,83.17857038104054
75.0,84.55260953202216,81.66194867563765,84.67462716882119,83.17052755063291,79.74831601244652,83.12677206712937
77.5,84.55260953202216,81.62934077441656,84.60230990919568,83.12030917548876,79.70741992102764,83.08764728816074
80.0,84.48982856673472,81.6026545034034,84.5746271688212,83.08459845622238,79.66272222561473,83.04711609712199
82.5,84.45260953202218,81.56194867563765,84.56072303758584,83.0526275997199,79.63487644838438,83.01795631892546
85.0,84.52349685065981,81.66194867563765,84.56072303758584,83.06132344830586,79.6709331187867,83.0572140875961
87.5,84.52349685065981,81.66194867563765,84.56072303758584,83.06905898436662,79.67869415458044,83.05947582699285
90.0,84.55260953202216,81.66194867563765,84.58849426429228,83.07643352404158,79.70970640274211,83.07982241956783
92.5,84.55260953202216,81.66194867563765,84.60263119370126,83.10969789998471,79.72731246193393,83.09211042740202
95.0,84.55260953202216,81.76194867563765,84.64644880508176,83.16132344830585,79.76165152493975,83.13255469259653
97.5,84.55260953202216,81.72934077441656,84.66072303758587,83.16132344830585,79.7675372032772,83.13241014462776
100.0,84.58982856673472,81.72934077441656,84.67462716882119,83.21300882614621,79.79246216475036,83.15942555469334
103.0,84.58982856673472,81.62934077441656,84.68817193221511,83.18002226745809,79.77063744183717,83.14034603926332
106.0,84.58982856673472,81.57035193787354,84.70295993728116,83.21561374881126,79.74721342386746,83.14136497490743
109.0,84.52758719283592,81.49723682439925,84.68946128786868,83.20722170478052,79.70701449825287,83.10462806506511
112.0,84.49897445130925,81.43855083142047,84.6904280961703,83.20824912034853,79.67001484447941,83.08573920299013
115.0,84.39897445130926,81.28042420054253,84.6904280961703,83.19447515892564,79.62688614330304,83.03001585625218
118.0,84.33752777300028,81.1494218147403,84.6623075878047,83.1835780475021,79.55287079691695,82.97855510993983
122.0,84.27662798253905,81.02285902893765,84.6623075878047,83.16124101029472,79.50084054984391,82.93606535184935
125.0,84.14898359150841,80.84942181474028,84.6473649347232,83.1159951871057,79.42882722092428,82.85884289553296
128.0,84.04898359150842,80.69674297331737,84.63400381223454,83.09073032786257,79.38190983357721,82.79932543023743
132.0,83.92179738688895,80.53999927958743,84.6193062318342,83.05788502937033,79.34041204971892,82.73115696185768
136.0,83.79506458035829,80.3710687614826,84.61834583164506,83.03269071125227,79.26315112885803,82.66505999176212
140.0,83.63546263134683,80.14583147157397,84.58879404668058,82.97595812620055,79.22065847060027,82.57216497428377
145.0,83.50942248426018,79.94090753602633,84.57461192973442,82.93839089590732,79.15547704948696,82.49820745398455
150.0,83.35866027600834,79.69389595883673,84.57461192973442,82.90518983866879,79.12968208557398,82.423814520742
155.0,83.23392832814567,79.42643297742508,84.56133449841815,82.87630643094666,79.07847288718386,82.34946261011561
160.0,83.10962251076207,79.12990957385144,84.54638849111076,82.83676223286837,79.01935144101044,82.2700679127732
165.0,82.95177437534741,78.79727311966745,84.54638849111076,82.81706600109528,78.98069237937139,82.19256791229331
170.0,82.84805664755616,78.44010271092209,84.53206698860612,82.76899139464105,78.88886871144508,82.11139014070487
175.0,82.69179815677408,78.07450358348684,84.5470622788054,82.76819233428976,78.84385268713145,82.04519961216572
180.0,82.56941986366729,77.68779399843014,84.5470622788054,82.71846842525703,78.75821557004707,81.96703918608317
185.0,82.43753193576906,77.30032062204596,84.5324088995818,82.71175728285426,78.69296061411063,81.89585402325963
190.0,82.28343461029553,76.94321526348382,84.5324088995818,82.69105827309633,78.59091566819828,81.82250726333123
195.0,82.18888863538652,76.56480823503247,84.53305443852487,82.65680222538026,78.50539327472923,81.76157506972731
200.0,82.01664590330462,76.24250935640106,84.53305443852487,82.67793319692902,78.38529813025069,81.69909891241653
206.0,81.87825745704102,75.90285095761179,84.53305443852487,82.64106728733196,78.2686236608766,81.63072127516192
212.0,81.69040221489249,75.57473140136793,84.54770564348938,82.60263506239805,78.14245143716862,81.55890183184191
218.0,81.5730120924441,75.31987670385897,84.54770564348938,82.60263506239805,77.98494444536169,81.50816315482203
224.0,81.43925752533572,75.04282821923414,84.54770564348938,82.55355435863079,77.80601663134338,81.43984257343403
230.0,81.27450358348685,74.84027530866605,84.54770564348938,82.50130057787338,77.6018916472837,81.36713631637556
236.0,81.19561715933442,74.66531718637124,84.50684500366415,82.4232984367102,77.36912280409861,81.28743290889606
240.0,81.08051352069255,74.55243652821503,84.50684500366415,82.33537867770508,77.09903850739622,81.21589708412752
250.0,80.96570276170648,74.46567940610036,84.46552161575273,82.1890453630354,76.79981040537088,81.11178748036296
258.0,80.90489348120857,74.3929700591914,84.42645994933288,82.01671808175152,76.42412784078618,81.00897394833788
265.0,80.87334521843886,74.47918907608377,84.41363940606881,81.84973258104664,76.05998478985359,80.93475022031336
272.0,80.78779399843016,74.55399906704082,84.36189813238985,81.6151863331595,75.65275124106537,80.81523256692748
280.0,80.78779399843016,74.67918907608379,84.2810540527028,81.35606045132549,75.2101395328552,80.6972822529219
290.0,80.71755713588665,74.87918907608378,84.15684118520822,81.06247755776384,74.74528576767965,80.54371666544283
300.0,80.74850588118669,75.11851550199948,84.04496105209591,80.74736967061763,74.25029447223247,80.41784873589438
307.0,80.71145938100322,75.38473965839736,83.86407987508821,80.39417583627387,73.72940292897975,80.2440655485854
315.0,80.70994607707172,75.75436996411115,83.6851616887,79.9834840450918,73.2032129025226,80.08202203012235
325.0,80.74449659419709,76.12470872985774,83.41213425152421,79.58763699205214,72.64175529323484,79.89781725179272
335.0,80.78444762363009,76.54570374002573,83.15765635001328,79.16753062007895,72.07527455035904,79.73610771615485
345.0,80.7509882350122,77.019032343648,82.90067196878448,78.72419497011235,71.4998547348287,79.57033098944974
355.0,80.8260245235669,77.52081894554055,82.60067196878447,78.31954447601953,70.96857666839121,79.44347798404651
365.0,80.81832544184972,78.09317487506891,82.35353468947967,77.95665673442855,70.42505707565249,79.35131211501238
375.0,80.88382334167595,78.59430744544666,82.16539142448113,77.65003511472624,69.93601435814371,79.32092224095449
387.0,80.8950645803583,79.07269145322596,82.01379093446526,77.3951619267559,69.48453345193893,79.3087552380798
400.0,80.9096325668162,79.55295536787777,81.96539142448113,77.24464182145694,69.0830110849502,79.36382473168976
412.0,80.82758719283592,79.9672655885961,81.99721947456997,77.17293784960304,68.76264356737914,79.4280651651831
425.0,80.82758719283592,80.34258273663015,82.11379093446526,77.20659479954942,68.50709913505955,79.55734564305652
437.0,80.75667255930051,80.64258273663015,82.27666328473407,77.24461221961514,68.26857101835965,79.67200218032696
450.0,80.75667255930051,80.86136837622763,82.4400715105354,77.27327760689121,68.07220024850066,79.78774129741552
462.0,80.75667255930051,81.0377673428554,82.54007151053541,77.27978741886507,67.90134203220754,79.86881921598192
475.0,80.79471929119204,81.1586572401787,82.61777875885004,77.24444756081022,67.67047624687446,79.93209331369033
487.0,80.8566725593005,81.13610707977348,82.62390585282431,77.07794042601657,67.4153668576245,79.92307589247783
500.0,81.02758719283592,81.08098490550678,82.47429676687702,76.83055299446049,67.07220481942242,79.86800681875441
515.0,81.2566725593005,80.98098490550682,82.23651394195258,76.38610941550981,66.654222091045,79.77174782963199
530.0,81.58219967332305,80.81395652088274,81.84998276821294,75.89686830854534,66.1614755412608,79.64431865198826
545.0,81.9098662867233,80.56941986366728,81.40780100118035,75.29549872484607,65.62994959739942,79.49424641066354
560.0,82.23964531976003,80.29179815677408,80.94630276810723,74.67607348718475,65.12988127164706,79.35894184507539
580.0,82.6053180676647,80.04805664755615,80.51250262328078,74.07525138320099,64.65779626939583,79.28714930252795
600.0,82.93821129888744,79.8281210048995,80.1927462367757,73.53164030026363,64.25551271078105,79.26939289365237
615.0,83.23821129888744,79.62812100489948,79.9454838081816,73.11164654452774,63.97292713028281,79.28693374768699
630.0,83.47387961222817,79.42812100489948,79.85487738453604,72.81069249493244,63.78512825927561,79.32877114381009
650.0,83.57387961222817,79.32812100489949,79.95317217400677,72.69672234472617,63.768986032185964,79.37814587575157
670.0,83.6760917544922,79.24805664755614,80.18089627663231,72.71530806996566,63.836632984648844,79.47038279700408
690.0,83.67977745790569,79.2694198636673,80.56274035115796,72.87855442655889,64.00463633771388,79.57704905233172
710.0,83.64935766478271,79.29220047151573,81.00902880583844,73.12011789266147,64.21488274048075,79.69390088354076
730.0,83.55603885002971,79.33753193576905,81.4783703464572,73.38301792044068,64.45242132894069,79.80243426105103
750.0,83.50131827952113,79.44197022557485,81.94726688583133,73.67053955289387,64.69507147087506,79.95363499159085
775.0,83.41172846437378,79.46893616304386,82.33755816060183,73.95924455428668,64.87350615243578,80.06134568334345
800.0,83.36283617001536,79.5493489016972,82.65749956257518,74.15059051466204,64.98461411117307,80.17540156982265
825.0,83.30261155895366,79.59727311966745,82.82772165470526,74.27014312064168,64.99029465043974,80.22610676820811
850.0,83.2429397936019,79.64577223479652,82.91987343840759,74.29792385062781,64.89136856854573,80.24517173764578
875.0,83.21753803239933,79.6269682029423,82.87825280480834,74.27943288185351,64.73086291274656,80.21449938815081
900.0,83.15866027600835,79.57625435142639,82.8108312544829,74.20281450158848,64.54627987073047,80.15229168759309
925.0,83.13392832814567,79.44010271092209,82.68213665378414,74.11644636509283,64.3459426124969,80.06590494698546
950.0,83.06803106656234,79.27301209244409,82.5035471594083,74.05425732857611,64.18578793765754,79.94134474255772
975.0,83.00962251076207,79.00722706905572,82.39123959631151,73.98809449817837,64.08950709148787,79.82793979577629
1000.0,82.90962251076208,78.62672208916905,82.2697681784969,73.96572212114111,64.0759068656321,79.67951698155687
1030.0,82.82021956404323,78.13386746839947,82.16740342957193,73.97382162105195,64.18357271877142,79.53094586111634
1060.0,82.59693704381888,77.60032062204596,82.14630618944193,74.064168174766,64.38650983414564,79.36059082358463
1090.0,82.45159316859872,77.0307933711823,82.12531282957801,74.1376728911132,64.60913180779967,79.2249631690509
1120.0,82.20784363371621,76.38272006052922,82.12089898069463,74.18877406862616,64.80759641591966,79.05213145319802
1150.0,81.9656476765358,75.7205918270593,82.16399100153232,74.24440438076654,64.99451202896383,78.90857171341281
1180.0,81.68889049053281,75.12197800379535,82.19384990385693,74.2497570872972,65.02142572883808,78.75713971868406
1220.0,81.358590643836,74.45640835343413,82.22536027210363,74.20111157711014,64.94164903065207,78.58526337871874
1250.0,81.03174271310296,73.91937281261575,82.2473709572686,74.04297079519324,64.62542353097768,78.42011422841405
1280.0,80.69063843282217,73.41274735416664,82.21507590642801,73.7961790977438,64.11116852229718,78.22506405107201
1320.0,80.30529495129531,72.9296506062916,82.1498254534022,73.50324420511974,63.391564128930455,78.00104394032277
1360.0,79.94273297424513,72.52673328105512,82.13257775944852,73.11668434425478,62.56117134309217,77.81445521328719
1400.0,79.53288092656521,72.10702691858944,82.07093199231896,72.69637919636911,61.63614931085006,77.59227738431855
1450.0,79.16691728331715,71.7219993670211,82.02863543712519,72.27407037665074,60.71773083927083,77.40378811968905
1500.0,78.77953643779558,71.28099554556165,81.9294635798964,71.82967021187815,59.867300385493664,77.17798870778219
1550.0,78.43669399809315,70.8967475807686,81.90502315923648,71.39139785538038,59.10027294924579,77.01937197344883
1600.0,78.07953643779558,70.48192912376616,81.83221578448357,71.00197293458879,58.49879598834728,76.83445619992358
1650.0,77.72294362715998,70.02934077441655,81.7844728394205,70.69781559129014,58.11075098955372,76.67397540164163
1700.0,77.45657014803854,69.59965439277178,81.73491817834737,70.45522949402901,57.905575619066454,76.54410163497349
1750.0,77.14273297424512,69.2523764150643,81.69563565629458,70.26234867676955,57.77362916447315,76.41862040137472
1800.0,76.85519220018267,68.91867994149332,81.6306033934628,70.14059152874061,57.70960435071596,76.28912602016791
1850.0,76.64264053902359,68.68760046288922,81.57900954330164,70.07042807898247,57.61350178068402,76.19384607805146
1900.0,76.44797355033573,68.59380864002826,81.5417792465317,69.9636023264413,57.44672011480337,76.11641936477932
1950.0,76.2555042702812,68.54053501177823,81.4788706552922,69.80399713884283,57.122857348625146,76.02084864962954
2000.0,76.15177290896784,68.68230649956844,81.38789111720972,69.54575583033233,56.56268543079078,75.92673436712464
2060.0,75.99444369100745,68.88888863538652,81.30243328488258,69.20078200901285,55.78570243282435,75.82455228434121
2120.0,75.84142414074041,69.26001642302818,81.22671956720552,68.70657559661092,54.81421629950579,75.73296928576137
2180.0,75.7491554931737,69.71406839527002,81.12148905099086,68.22355508827715,53.753834650796236,75.64153210953644
2240.0,75.63162277988926,70.31852635130015,81.07415825936229,67.71797047075067,52.69022182221518,75.59891003619137
2300.0,75.58098748185239,70.91916705502754,81.06553593245441,67.30959046781332,51.74718046294639,75.607306848182
2360.0,75.58781628002549,71.52758719283592,81.03080146626013,66.99468267781522,50.967619708717265,75.61913751203684
2400.0,75.63735504756247,72.09238414975147,81.05331821226565,66.8031784875228,50.492210171950646,75.68578541716334
2500.0,75.73370859671756,72.62326477625992,81.11872929320977,66.86534700013827,50.36962142997466,75.79982957756593
2580.0,75.95083172259908,73.00191445428936,81.25036816917462,67.17491120961289,50.692443802436955,75.97744631627317
2650.0,76.18017590682615,73.23012365263646,81.40795207675384,67.65588353038585,51.37340427353338,76.16565826258838
2720.0,76.42386143470027,73.34836735062423,81.60303278658932,68.31954373168304,52.305583835940794,76.3772472767073
2800.0,76.7819300013409,73.39063843282217,81.79418142255936,69.1106773005087,53.419929365385414,76.60896497853902
2900.0,77.12089915765377,73.30833704711783,82.01344200333993,69.91712248473314,54.551603370914464,76.84901069926575
3000.0,77.41954103557673,73.17455057370107,82.21698738584892,70.72844624079532,55.598568378090604,77.0718006830897
3070.0,77.66001009143439,72.99727311966744,82.39882255613254,71.43951349540664,56.44761197951412,77.26546372695098
3150.0,77.91827044285326,72.77695775614916,82.55083268109695,71.99775694488572,57.00717728759592,77.43725400822976
3250.0,78.01924909504645,72.60791075563449,82.66249571660617,72.41016326746916,57.19515011079342,77.54587958287262
3350.0,78.08421880005265,72.43999927958743,82.70024641700604,72.610929813334,57.0136440976713,77.58662050986737
