Freq "Floor Bounce"
22.4 50.047546240882966
23.0 51.34754624088292
23.6 52.71843355952056
24.0 53.98476527559551
25.0 55.28476527559549
25.8 56.54754624088294
26.5 57.747546240882926
27.2 58.94754624088294
28.0 60.14754624088293
29.0 61.34754624088295
30.0 62.5847652755955
30.7 63.884765275595484
31.5 65.24754624088295
32.5 66.71843355952058
33.5 68.24754624088294
34.5 69.81843355952056
35.5 71.34754624088295
36.5 72.94754624088294
37.5 74.44754624088293
38.7 75.91843355952058
40.0 77.24754624088294
41.2 78.44754624088294
42.5 79.54754624088295
43.7 80.54754624088294
45.0 81.41843355952058
46.2 82.18476527559548
47.5 82.84754624088295
48.7 83.41843355952058
50.0 83.91843355952058
51.5 84.28476527559549
53.0 84.58476527559549
54.5 84.84754624088295
56.0 85.01843355952057
58.0 85.14754624088293
60.0 85.21843355952058
61.5 85.24754624088295
63.0 85.24754624088295
65.0 85.24754624088295
67.0 85.21843355952058
69.0 85.14754624088293
71.0 85.0847652755955
73.0 85.01843355952057
75.0 84.94754624088294
77.5 84.94754624088294
80.0 84.8847652755955
82.5 84.84754624088295
85.0 84.91843355952058
87.5 84.91843355952058
90.0 84.94754624088294
92.5 84.94754624088294
95.0 84.94754624088294
97.5 84.94754624088294
100.0 84.98476527559549
103.0 84.98476527559549
106.0 84.98476527559549
109.0 84.92252390169669
112.0 84.89391116017002
115.0 84.79391116017001
118.0 84.73246448186104
122.0 84.67156469139982
125.0 84.54392030036918
128.0 84.44392030036919
132.0 84.31673409574972
136.0 84.19000128921907
140.0 84.03039934020758
145.0 83.90435919312097
150.0 83.7535969848691
155.0 83.62886503700645
160.0 83.50455921962283
165.0 83.34671108420817
170.0 83.24299335641692
175.0 83.08673486563485
180.0 82.96435657252805
185.0 82.83246864462981
190.0 82.67837131915628
195.0 82.58382534424727
200.0 82.41158261216539
206.0 82.27319416590178
212.0 82.08533892375324
218.0 81.96794880130487
224.0 81.83419423419649
230.0 81.66944029234763
236.0 81.59055386819519
240.0 81.4754502295533
250.0 81.36063947056725
258.0 81.29983019006933
265.0 81.26828192729961
272.0 81.18273070729092
280.0 81.18273070729092
290.0 81.11249384474742
300.0 81.14344259004747
307.0 81.10639608986398
315.0 81.1048827859325
325.0 81.13943330305786
335.0 81.17938433249087
345.0 81.14592494387296
355.0 81.22096123242768
365.0 81.21326215071049
375.0 81.27876005053673
387.0 81.29000128921906
400.0 81.30456927567697
412.0 81.2225239016967
425.0 81.2225239016967
437.0 81.15160926816127
450.0 81.15160926816127
462.0 81.15160926816127
475.0 81.18965600005282
487.0 81.25160926816126
500.0 81.42252390169669
515.0 81.65160926816128
530.0 81.97713638218382
545.0 82.30480299558407
560.0 82.63458202862078
580.0 83.00025477652547
600.0 83.33314800774819
615.0 83.63314800774819
630.0 83.86881632108894
650.0 83.96881632108895
670.0 84.07102846335299
690.0 84.07471416676646
710.0 84.0442943736435
730.0 83.95097555889046
750.0 83.8962549883819
775.0 83.80666517323456
800.0 83.75777287887611
825.0 83.69754826781441
850.0 83.63787650246266
875.0 83.6124747412601
900.0 83.5535969848691
925.0 83.52886503700644
950.0 83.46296777542311
975.0 83.40455921962284
1000.0 83.30455921962285
1030.0 83.21515627290398
1060.0 82.99187375267965
1090.0 82.84652987745947
1120.0 82.60278034257698
1150.0 82.36058438539656
1180.0 82.08382719939358
1220.0 81.75352735269676
1250.0 81.42667942196373
1280.0 81.08557514168295
1320.0 80.70023166015609
1360.0 80.33766968310589
1400.0 79.92781763542598
1450.0 79.56185399217792
1500.0 79.17447314665635
1550.0 78.83163070695392
1600.0 78.47447314665636
1650.0 78.11788033602075
1700.0 77.8515068568993
1750.0 77.53766968310588
1800.0 77.25012890904345
1850.0 77.03757724788436
1900.0 76.84291025919649
1950.0 76.65044097914195
2000.0 76.5467096178286
2060.0 76.38938039986822
2120.0 76.2363608496012
2180.0 76.14409220203446
2240.0 76.02655948875001
2300.0 75.97592419071314
2360.0 75.98275298888625
2400.0 76.03229175642325
2500.0 76.12864530557832
2580.0 76.34576843145983
2650.0 76.5751126156869
2720.0 76.81879814356103
2800.0 77.17686671020165
2900.0 77.51583586651454
3000.0 77.8144777444375
3070.0 78.05494680029516
3150.0 78.31320715171402
3250.0 78.41418580390722
3350.0 78.47915550891344
3450.0 78.42809610910932
3550.0 78.39435667775147
3650.0 78.20321809520452
3750.0 78.07876791094458
3870.0 77.86389116844951
4000.0 77.67323501327368
4120.0 77.52662861715065
4250.0 77.31363164956927
4370.0 77.1695477552274
4500.0 76.9581419699025
4620.0 76.84743018666695
4750.0 76.64820390448865
4870.0 76.459219569491
5000.0 76.36197704924213
5150.0 76.20560085879916
5300.0 76.05034850314114
5450.0 75.84330722841464
5600.0 75.70560934651368
5800.0 75.57699341154684
6000.0 75.41084079960444
6150.0 75.27278170107498
6300.0 75.10157940992408
6500.0 74.9104843189433
6700.0 74.79166750661045
6900.0 74.62174097401686
7100.0 74.49746644708833
7300.0 74.39983019006934
7500.0 74.31791758518438
7750.0 74.37766448293573
8000.0 74.37478904892329
8250.0 74.47507499956514
8500.0 74.58911304343084
8750.0 74.74201160561722
9000.0 74.96627452994932
9250.0 75.18932029908095
9500.0 75.43825261584988
9750.0 75.61689821822397
10000.0 75.74093196765362
10300.0 75.86839648082837
10600.0 75.94199301095843
10900.0 75.85096180791335
11200.0 75.84199301095843
11500.0 75.75946365375115
11800.0 75.59524981036526
12200.0 75.51331960539083
12500.0 75.41331960539084
12800.0 75.25965397351546
13200.0 75.15965397351545
13600.0 75.05965397351545
14000.0 74.95965397351547
14500.0 74.93173279667589
15000.0 74.83173279667587
15500.0 74.64093196765363
16000.0 74.5409319676536
16500.0 74.41331960539084
17000.0 74.24093196765364
17500.0 74.04093196765362
18000.0 73.91331960539084
18500.0 73.64093196765361
19000.0 73.44093196765361
19500.0 73.23173279667587
