Freq "Rear Wall Bounce"
22.4 45.21657622853631
23.0 46.530384858226554
23.6 47.88739887361113
24.0 49.17781831995937
25.0 50.46426060195297
25.8 51.71657622853634
26.5 52.923883018951344
27.2 54.116576228536346
28.0 55.316576228536334
29.0 56.51657622853632
30.0 57.760919108056456
30.7 59.0576589344755
31.5 60.41657622853633
32.5 61.902356629888416
33.5 63.41657622853633
34.5 64.99214973338498
35.5 66.54929390856212
36.5 68.11657622853633
37.5 69.61657622853635
38.7 71.07886122098874
40.0 72.41102524984099
41.2 73.636306131175
42.5 74.72981315724513
43.7 75.71657622853634
45.0 76.59609737113932
46.2 77.36091910805645
47.5 78.01657622853634
48.7 78.59609737113931
50.0 79.07886122098874
51.5 79.46266773004585
53.0 79.7778183199594
54.5 80.01657622853632
56.0 80.21102524984097
58.0 80.31657622853633
60.0 80.41102524984097
61.5 80.41657622853634
63.0 80.41657622853634
65.0 80.41657622853634
67.0 80.37781831995939
69.0 80.33038485822657
71.0 80.27461428347193
73.0 80.19214973338497
75.0 80.14325272130729
77.5 80.10235662988842
80.0 80.05765893447548
82.5 80.02981315724514
85.0 80.06586982764746
87.5 80.07363086344122
90.0 80.1046431116029
92.5 80.12224917079472
95.0 80.15658823380052
97.5 80.16247391213795
100.0 80.18739887361114
103.0 80.16557415069794
106.0 80.14215013272825
109.0 80.10195120711366
112.0 80.06495155334018
115.0 80.0218228521638
118.0 79.94780750577773
122.0 79.89577725870468
125.0 79.82376392978504
128.0 79.77684654243798
132.0 79.73534875857969
136.0 79.6580878377188
140.0 79.61559517946102
145.0 79.55041375834772
150.0 79.52461879443476
155.0 79.47340959604463
160.0 79.41428814987121
165.0 79.37562908823215
170.0 79.28380542030584
175.0 79.23878939599221
180.0 79.15315227890785
185.0 79.0878973229714
190.0 78.98585237705905
195.0 78.90032998358998
200.0 78.78023483911146
206.0 78.66356036973735
212.0 78.53738814602937
218.0 78.37988115422247
224.0 78.20095334020415
230.0 77.99682835614446
236.0 77.76405951295938
240.0 77.49397521625697
250.0 77.19474711423165
258.0 76.81906454964697
265.0 76.45492149871434
272.0 76.04768794992613
280.0 75.60507624171595
290.0 75.14022247654042
300.0 74.64523118109325
307.0 74.12433963784054
315.0 73.59814961138336
325.0 73.03669200209559
335.0 72.47021125921982
345.0 71.89479144368947
355.0 71.36351337725196
365.0 70.81999378451327
375.0 70.33095106700446
387.0 69.87947016079971
400.0 69.47794779381098
412.0 69.15758027623993
425.0 68.9020358439203
437.0 68.66350772722042
450.0 68.46713695736143
462.0 68.29627874106829
475.0 68.06541295573523
487.0 67.81030356648529
500.0 67.46714152828318
515.0 67.04915879990578
530.0 66.55641225012157
545.0 66.0248863062602
560.0 65.52481798050785
580.0 65.0527329782566
600.0 64.6504494196418
615.0 64.3678638391436
630.0 64.18006496813636
650.0 64.16392274104675
670.0 64.23156969350963
690.0 64.39957304657463
710.0 64.60981944934151
730.0 64.84735803780144
750.0 65.09000817973585
775.0 65.26844286129655
800.0 65.37955082003383
825.0 65.3852313593005
850.0 65.2863052774065
875.0 65.12579962160733
900.0 64.94121657959126
925.0 64.74087932135768
950.0 64.5807246465183
975.0 64.48444380034866
1000.0 64.47084357449287
1030.0 64.57850942763217
1060.0 64.7814465430064
1090.0 65.00406851666044
1120.0 65.20253312478043
1150.0 65.38944873782458
1180.0 65.41636243769887
1220.0 65.33658573951284
1250.0 65.02036023983847
1280.0 64.50610523115795
1320.0 63.78650083779121
1360.0 62.95610805195295
1400.0 62.03108601971083
1450.0 61.11266754813161
1500.0 60.26223709435443
1550.0 59.49520965810656
1600.0 58.89373269720805
1650.0 58.50568769841449
1700.0 58.30051232792722
1750.0 58.16856587333392
1800.0 58.10454105957673
1850.0 58.00843848954476
1900.0 57.84165682366414
1950.0 57.517794057485915
2000.0 56.95762213965152
2060.0 56.18063914168512
2120.0 55.20915300836653
2180.0 54.148771359657005
2240.0 53.08515853107595
2300.0 52.14211717180713
2360.0 51.362556417578034
2400.0 50.887146880811414
2500.0 50.764558138835454
2580.0 51.087380511297724
2650.0 51.76834098239415
2720.0 52.70052054480156
2800.0 53.81486607424618
2900.0 54.94654007977526
3000.0 55.99350508695137
3070.0 56.84254868837489
3150.0 57.40211399645669
3250.0 57.59008681965416
3350.0 57.4085808065321
3450.0 56.95768274861997
3550.0 56.379050233834036
3650.0 55.70375905596269
3750.0 54.961050472547115
3870.0 54.32484011701719
4000.0 53.80126164659093
4120.0 53.474278370482054
4250.0 53.37602916371928
4370.0 53.345147921392126
4500.0 53.5128597907718
4620.0 53.70453108742451
4750.0 53.94776456290886
4870.0 54.15902032664569
5000.0 54.33572404463048
5150.0 54.440669250500875
5300.0 54.477422337667505
5450.0 54.448599982134496
5600.0 54.36200369519567
5800.0 54.199945175975515
6000.0 54.01168298927239
6150.0 53.80847753346946
6300.0 53.56426238123022
6500.0 53.284825795914074
6700.0 53.03288962112181
6900.0 52.75147162635547
7100.0 52.45721277092288
7300.0 52.174531443061866
7500.0 51.91152526871768
7750.0 51.612728389512185
8000.0 51.359127280780015
8250.0 51.09855964299315
8500.0 50.8012869893838
8750.0 50.59209585331938
9000.0 50.36309426072155
9250.0 50.12050383730109
9500.0 49.9471904522148
9750.0 49.803320215396965
10000.0 49.67665553440865
10300.0 49.59014724941004
10600.0 49.52499271061605
10900.0 49.446254870951165
11200.0 49.42499271061605
11500.0 49.391876243868026
11800.0 49.374406509034245
12200.0 49.32343426667764
12500.0 49.30729582622202
12800.0 49.22418206039144
13200.0 49.14143323710253
13600.0 49.06851348528333
14000.0 48.99865128152611
14500.0 48.84154009983625
15000.0 48.72418206039144
15500.0 48.617170579423416
16000.0 48.435953409594376
16500.0 48.32082804938322
17000.0 48.12414653339299
17500.0 47.97326742124771
18000.0 47.773267421247695
18500.0 47.57094480289901
19000.0 47.32391529558468
19500.0 47.120828049383235
