Freq "Side Wall Bounce"
22.4 48.227940449661034
23.0 49.53894735135758
23.6 50.90358603064239
24.0 52.21300882614621
25.0 53.47265453837771
25.8 54.727940449661034
26.5 55.92794044966105
27.2 57.12794044966104
28.0 58.32794044966103
29.0 59.527940449661045
30.0 60.80358603064239
30.7 62.072654538377705
31.5 63.42794044966105
32.5 64.92030917548875
33.5 66.42794044966105
34.5 68.01300882614619
35.5 69.55981983851645
36.5 71.12794044966105
37.5 72.62794044966105
38.7 74.11300882614621
40.0 75.42794044966105
41.2 76.639733489446
42.5 77.7389473513576
43.7 78.72794044966105
45.0 79.62030917548874
46.2 80.4035860306424
47.5 81.02794044966105
48.7 81.62030917548876
50.0 82.1130088261462
51.5 82.48131041932028
53.0 82.8130088261462
54.5 83.02794044966105
56.0 83.22030917548877
58.0 83.32794044966106
60.0 83.42030917548875
61.5 83.42794044966104
63.0 83.42794044966104
65.0 83.42794044966104
67.0 83.4130088261462
69.0 83.33894735135759
71.0 83.29497447727137
73.0 83.22030917548877
75.0 83.17052755063291
77.5 83.12030917548877
80.0 83.08459845622237
82.5 83.05262759971988
85.0 83.06132344830586
87.5 83.0690589843666
90.0 83.07643352404158
92.5 83.10969789998472
95.0 83.16132344830585
97.5 83.16132344830585
100.0 83.21300882614621
103.0 83.1800222674581
106.0 83.21561374881126
109.0 83.20722170478051
112.0 83.20824912034851
115.0 83.19447515892563
118.0 83.18357804750211
122.0 83.1612410102947
125.0 83.11599518710571
128.0 83.09073032786256
132.0 83.05788502937031
136.0 83.03269071125226
140.0 82.97595812620057
145.0 82.93839089590732
150.0 82.9051898386688
155.0 82.87630643094666
160.0 82.83676223286837
165.0 82.81706600109527
170.0 82.76899139464103
175.0 82.76819233428978
180.0 82.71846842525702
185.0 82.71175728285425
190.0 82.69105827309635
195.0 82.65680222538028
200.0 82.677933196929
206.0 82.64106728733195
212.0 82.60263506239806
218.0 82.60263506239806
224.0 82.55355435863078
230.0 82.50130057787337
236.0 82.42329843671021
240.0 82.33537867770508
250.0 82.18904536303539
258.0 82.0167180817515
265.0 81.84973258104664
272.0 81.61518633315949
280.0 81.35606045132549
290.0 81.06247755776386
300.0 80.74736967061763
307.0 80.39417583627389
315.0 79.9834840450918
325.0 79.58763699205214
335.0 79.16753062007895
345.0 78.72419497011235
355.0 78.31954447601952
365.0 77.95665673442855
375.0 77.65003511472624
387.0 77.3951619267559
400.0 77.24464182145692
412.0 77.17293784960304
425.0 77.20659479954944
437.0 77.24461221961515
450.0 77.2732776068912
462.0 77.27978741886507
475.0 77.24444756081023
487.0 77.07794042601655
500.0 76.8305529944605
515.0 76.38610941550981
530.0 75.89686830854534
545.0 75.29549872484607
560.0 74.67607348718474
580.0 74.07525138320098
600.0 73.53164030026363
615.0 73.11164654452774
630.0 72.81069249493244
650.0 72.69672234472618
670.0 72.71530806996564
690.0 72.87855442655888
710.0 73.12011789266148
730.0 73.38301792044068
750.0 73.67053955289386
775.0 73.95924455428667
800.0 74.15059051466206
825.0 74.27014312064169
850.0 74.29792385062781
875.0 74.27943288185352
900.0 74.20281450158849
925.0 74.11644636509284
950.0 74.0542573285761
975.0 73.98809449817838
1000.0 73.9657221211411
1030.0 73.97382162105194
1060.0 74.06416817476601
1090.0 74.1376728911132
1120.0 74.18877406862617
1150.0 74.24440438076654
1180.0 74.2497570872972
1220.0 74.20111157711013
1250.0 74.04297079519324
1280.0 73.79617909774379
1320.0 73.50324420511973
1360.0 73.11668434425478
1400.0 72.69637919636911
1450.0 72.27407037665074
1500.0 71.82967021187817
1550.0 71.39139785538039
1600.0 71.0019729345888
1650.0 70.69781559129012
1700.0 70.455229494029
1750.0 70.26234867676953
1800.0 70.14059152874061
1850.0 70.07042807898246
1900.0 69.96360232644132
1950.0 69.80399713884283
2000.0 69.54575583033231
2060.0 69.20078200901285
2120.0 68.7065755966109
2180.0 68.22355508827717
2240.0 67.71797047075066
2300.0 67.30959046781334
2360.0 66.99468267781522
2400.0 66.8031784875228
2500.0 66.86534700013829
2580.0 67.17491120961289
2650.0 67.65588353038586
2720.0 68.31954373168303
2800.0 69.1106773005087
2900.0 69.91712248473316
3000.0 70.72844624079532
3070.0 71.43951349540664
3150.0 71.99775694488572
3250.0 72.41016326746914
3350.0 72.61092981333398
3450.0 72.7025398839299
3550.0 72.69770605456627
3650.0 72.62189343092876
3750.0 72.46756282198366
3870.0 72.36527990713257
4000.0 72.24076253646516
4120.0 72.16931184273561
4250.0 72.09044810949088
4370.0 72.09809194122698
4500.0 72.05419774813441
4620.0 72.10663705979026
4750.0 72.11765436485065
4870.0 72.11779897990033
5000.0 72.15823085753527
5150.0 72.14272086440798
5300.0 72.15151029149986
5450.0 72.10374853572559
5600.0 72.05941651189464
5800.0 72.01250069052341
6000.0 71.9124180776523
6150.0 71.81491258221946
6300.0 71.72252477005141
6500.0 71.61501675029449
6700.0 71.50822317107738
6900.0 71.37102770593275
7100.0 71.24311510329282
7300.0 71.12501084172227
7500.0 71.00587276829175
7750.0 70.87799839612657
8000.0 70.74112622391719
8250.0 70.6354584968473
8500.0 70.51440084625516
8750.0 70.392001187866
9000.0 70.31321306526442
9250.0 70.20515602757646
9500.0 70.12126051046263
9750.0 70.04356822751927
10000.0 69.9485498410986
10300.0 69.92365135761689
10600.0 69.87149626903535
10900.0 69.79693728821253
11200.0 69.79536911413122
11500.0 69.73093385408369
11800.0 69.67750083792771
12200.0 69.63211378671195
12500.0 69.58860615490258
12800.0 69.52701189868624
13200.0 69.43704900206707
13600.0 69.33704900206706
14000.0 69.24854984109861
14500.0 69.13704900206707
15000.0 69.02856869058259
15500.0 68.88860615490258
16000.0 68.73584295295042
16500.0 68.61907859342594
17000.0 68.42483327021357
17500.0 68.2358429529504
18000.0 68.0358429529504
18500.0 67.83584295295041
19000.0 67.6358429529504
19500.0 67.42327513848498
