Freq,Floor Bounce,Ceiling Bounce,Front Wall Bounce,Side Wall Bounce,Rear Wall Bounce,Total Early Reflection
20.5078,59.2156780678023,53.49942239314292,56.739845277855736,56.706611051018015,56.836620501417585,56.95795232874421
21.9727,60.53747857486077,56.41049395751712,58.47313997296875,58.42327034305582,58.445789479700395,58.654128492918474
23.4375,62.00284940554842,57.481011770917476,59.905968980595915,59.78460695052176,59.4800251785028,59.967898071760644
24.9023,63.19726093357515,59.044426666283,61.23529844033406,61.08216207013409,60.65374476401122,61.248242189154084
26.3672,64.05354036830414,59.95496851811244,62.10170356406901,61.970655954275045,61.6735441942332,62.148185405971944
27.832,65.6987931981611,62.04635613750985,64.0210530691553,63.81067683217164,63.27372104071658,63.93403751211788
29.2969,66.54101333257235,63.213656612556704,65.01478436739838,64.77406686373477,64.19138882449884,64.88696963056024
30.7617,67.72488461966962,64.69038517104748,66.33601501528508,66.07210621027019,65.42070086450512,66.16998885801236
32.2266,68.92852897914825,66.11564133003779,67.65228386302296,67.39130335193231,66.74096037744306,67.47136944122552
33.6914,70.1502534908094,67.51906818343274,68.96872854582794,68.7071724504677,68.07936632503647,68.77806235373292
35.1562,71.2948383687403,68.79376847973496,70.18874601934779,69.92319589079747,69.27971279666086,69.98164370980264
36.6211,72.39132642984316,70.05225434355872,71.37156624109448,71.09918356075764,70.44004661018762,71.14774905011996
38.0859,73.36728463807702,71.13485570211571,72.40545216623971,72.13232813344396,71.48144920386753,72.17505096312225
39.5508,74.3911661091488,72.26436889969683,73.48366423902999,73.2142241899185,72.5836122077168,73.25200025499392
41.0156,75.3419641610703,73.29032348519387,74.47748322297699,74.20485827171699,73.57700219248633,74.23911853724205
42.4805,76.26616698434438,74.29019776395653,75.44451312817414,75.16953339339308,74.543590883749,75.19991345816007
43.9453,77.11159419235157,75.19759284719694,76.3271624982783,76.04615669710299,75.41315159795941,76.07366043491635
45.4102,77.94003540152025,76.08751798004647,77.18978101579508,76.90653826402318,76.27297270444251,76.93118208046444
46.875,78.71879811588578,76.91025362806595,77.9900017341657,77.71642798825792,77.12044121494937,77.73980175574793
48.3398,79.40781326515062,77.65714812824699,78.71260661919733,78.4321036869453,77.83418811531668,78.45512904294903
51.2695,80.76076923365767,79.09005485104797,80.11259893788737,79.82539208844918,79.22425754912038,79.84590795985083
52.7344,81.35441352336655,79.78325209061543,80.75318728763195,80.47969360028632,79.90660805378582,80.49386435543452
54.1992,81.90968215178094,80.37077082433707,81.32724779957697,81.05056933078768,80.4771130468102,81.06438467661425
55.6641,82.44274143418498,80.92940530515845,81.87643756367238,81.59599365966058,81.0223763523462,81.60983665665943
58.5938,83.37636389653638,81.91122295775149,82.84257964780225,82.54797021509306,81.94973442822986,82.56122478226331
60.0586,83.79651839739027,82.35825339937905,83.27838481242806,82.97987996004836,82.37491582426698,82.99257374802544
62.9883,84.58776945745016,83.20908436062288,84.09878305728952,83.80168358453356,83.2131426466657,83.81463783305986
64.4531,84.92073870553615,83.55856885422831,84.44147041020398,84.14337943405577,83.56301719027391,84.15724374646463
67.3828,85.50955352037602,84.17653282990962,85.04852030081666,84.74550399332882,84.17385037803575,84.76153684528428
68.8477,85.76069823531596,84.44309045457047,85.30889407436447,85.00441216181234,84.43919228353172,85.02137821687703
71.7773,86.14206452237468,84.84641488337384,85.70628894791484,85.39510092222174,84.8389062078729,85.41508742684645
74.707,86.49193146143575,85.2218060109928,86.07358659419783,85.7533557582213,85.19640080425614,85.77617541118705
77.6367,86.79630255627778,85.55365877055375,86.396284076646,86.06620378082916,85.51017061416943,86.09265075637481
79.1016,86.90162482538052,85.66902739542796,86.51002053524213,86.17268908712629,85.60859997880671,86.20058214174891
82.0312,87.02945852444604,85.80840033496138,86.65033686343095,86.29999635703429,85.72757252718081,86.33149476848507
84.9609,87.14330312119179,85.9677532453354,86.78381684475882,86.43953084266164,85.8732606932248,86.4683038546267
87.8906,87.27099152989801,86.10317107760297,86.92123051390521,86.56802832591771,86.0141155955994,86.60192137179135
90.8203,87.42182583612164,86.2506260003813,87.0780123368761,86.7086617704128,86.1439134444715,86.74774385225302
95.2148,87.49002809889802,86.34602187434525,87.16629245824352,86.77753818625746,86.2027913662905,86.82366042171701
98.1445,87.52209238347433,86.39297694266864,87.21073194185215,86.8062810725623,86.21445767163534,86.85689428286385
101.074,87.5285351140836,86.40799800389357,87.22669594647947,86.81004943724196,86.21411080574703,86.8652493302509
105.469,87.50401359110353,86.37392134640834,87.20773072167351,86.76541290254413,86.15699711376803,86.83065357990701
108.398,87.468043542827,86.30678371520388,87.16695099734652,86.70751729064524,86.10377853117197,86.78076444778422
112.793,87.33912252806262,86.14956068134761,87.04723643965822,86.54213463630299,85.88114433750643,86.62571510555364
117.188,87.20081767391234,85.98668343008988,86.92658477480973,86.35537041451876,85.58375909951988,86.45099197436316
120.117,87.34749610811845,86.09586372153255,87.0804393040847,86.46483441243582,85.5274025052688,86.55258879907505
124.512,87.39198574166096,86.24757995653114,87.13863577151145,86.58573643452114,85.78301262817574,86.66841370370847
128.906,87.17933105779959,86.09672839181472,86.9640934961672,86.37720697387853,85.6048007574044,86.48196090158005
133.301,87.03577293846186,85.98642981576978,86.85467501824435,86.21540721850666,85.33969860651426,86.32902131300007
139.16,87.03119797721193,85.90255827252581,86.83572521092833,86.14572672197208,85.18805738329759,86.27073325879458
143.555,87.07371570075786,85.90331059652699,86.89456879140278,86.14935635967626,85.07821454776608,86.27833961564747
147.949,87.4008645424427,86.23284437465541,87.23547639522491,86.48153345447793,85.39736605535595,86.60886570138797
153.809,87.48633731320875,86.37512667700477,87.32006279079428,86.59564799939103,85.57943093282509,86.72487483755503
159.668,87.17316208875884,86.03920038748298,86.9982336843924,86.25399322354068,85.34950545660685,86.4129317349424
165.527,87.08960685790629,85.92644954594844,86.94839051730995,86.0806009160885,84.95241686182766,86.26683248858839
171.387,87.09292433975506,85.95167875841359,86.96602006110368,86.0763495281915,84.72669048688621,86.24306429891247
177.246,86.92404312239458,85.82081396324544,86.79181125403487,85.95850297840157,84.82892775850658,86.12906065642967
183.105,86.78985571957475,85.77115906819579,86.74460501294234,85.80099597659522,84.51565542542603,86.00075718547804
188.965,86.9643269559099,85.87357372566416,86.88577315941998,85.90513219093297,84.48461113513765,86.11148667309327
196.289,86.77107173407882,85.49053899756612,86.58702286387098,85.66595685407226,84.43636994955482,85.86945294268942
203.613,86.5329766800545,85.36607757357932,86.43205567924615,85.44305799076189,84.24764276707829,85.68200975408942
210.938,86.46513547491804,85.22938854645481,86.39608780097544,85.23546716642569,83.91462090224802,85.54552002891995
218.262,86.42929270405178,85.29811978136122,86.36970114058327,85.2817816419207,83.79103900023614,85.53509984507461
225.586,86.0519367761271,84.77050394458408,85.95930282517457,84.72335738024695,83.65528415659192,85.12144056505308
232.91,85.99101146737742,84.64491876932667,85.97503284944723,84.41825042840335,82.91175194767476,84.93208753534456
241.699,86.17570709148374,84.99255510618833,86.36693056984974,84.65202553931603,80.89331667706703,84.99178634514941
250.488,87.73898001494223,86.43893181821493,87.80744372417776,86.52396608436685,82.39863501096256,86.55344621989003
259.277,86.9579463922568,85.38514035314024,86.75855117495274,85.70011619126133,83.67476168572715,85.84467722610957
268.066,87.06868658742678,85.4606822508004,86.94981665619665,85.81325670246953,83.51495771359501,85.93777247439284
276.855,86.9464679455176,85.3477709467593,86.81123792737371,85.64901162006207,84.01346626018973,85.88087183594162
287.109,86.5364084240051,85.01447213656728,86.50766499530438,85.1659246600586,83.18407618737027,85.44541324694988
297.363,86.41606832708618,84.77233114617066,86.35546258691079,85.12548913705612,82.64027002207953,85.26193722007517
307.617,86.31361218277145,84.44824951077204,86.11489395406593,84.5834459104909,82.96631969205177,85.05282702859107
319.336,86.37345144615307,85.15589770536968,86.61059350056713,84.9687654456376,80.36063305162853,85.16526269987368
329.59,86.12807564379834,85.11887990678076,86.33275834894985,85.3591922194328,82.50283595896799,85.27957966141875
341.309,85.77122128198515,84.12600679807606,85.74031624330702,84.21216789238032,82.7702296635445,84.66651532155883
353.027,85.671441135275,83.83368686325515,85.63601244020701,83.5434888329739,82.48163657455129,84.40957963328526
366.211,86.15903061825462,84.02977530310827,86.13535959029109,83.98118644423269,80.99190396391876,84.63099371124983
379.395,86.34986337462526,83.87560356562356,86.37802538356367,84.38893424869813,81.38984989746254,84.83545139641633
392.578,87.32957604066684,84.58575053372549,87.11087808985933,85.32578950862636,81.6808903607716,85.63583426246481
405.762,86.64626655299158,83.79727953399932,86.47049617898769,84.82178669889475,81.03243868098814,84.98510821577038
420.41,86.55882513076635,83.8402114338175,86.51462429821929,85.14728960802283,80.53814348895997,85.00622872192999
435.059,85.68332473662053,83.72208625426906,85.66818650967558,84.18886054132187,80.96281388419725,84.35119490234221
451.172,84.6525386030098,81.90664332314185,84.40629000568883,83.07059616779021,80.52995207540027,83.1749025742262
465.82,86.07253164140181,83.21571274424541,86.09761389472921,84.01875482500243,79.96914321822884,84.38771050377399
483.398,86.90283109923114,83.84795311813336,86.77842728606916,85.24782696844117,80.02032319527744,85.16976792346055
499.512,87.41396218934399,83.99296159198143,87.14524558255161,85.69823917247423,80.97304631341594,85.60342609148691
517.09,85.60460980701178,82.46979591254188,85.52090074824652,84.65150359881152,80.10527135861402,84.11916374515694
536.133,86.07702807967269,83.73622320534695,86.45329216192494,84.90332299612459,80.33156605979893,84.7733036794652
555.176,86.55005334793343,83.24604195959523,86.54760756454618,84.86132108632603,79.98921915255323,84.83063983914619
574.219,86.05451998345656,83.67323859363492,86.49605060128287,84.6008143363356,79.47171894783847,84.65204513265242
594.727,86.12574567361804,83.2531859731965,86.2240866888892,85.18103841362517,79.56860203215963,84.65599036795025
615.234,86.2817998385013,82.39079205602535,86.02170727218761,84.29645681063569,80.27929555792213,84.38980661087372
637.207,86.33915738689026,83.35848025016004,86.57243861466213,84.07160054883094,78.92021905596748,84.57786676739764
659.18,86.50909490900955,83.41864189175308,86.77475719900777,84.19681043502209,78.49799414299203,84.70348458424273
682.617,85.06274458842232,82.92875292885213,85.7434549316818,84.1569533243683,79.14682109937696,83.92689003898367
707.52,86.0036326668682,83.26004021720476,86.66434390018402,83.57697026544524,79.38819790892458,84.43708558554148
732.422,86.79941562157217,82.86676241807896,87.5518067849553,84.06220841974203,80.50971248613816,85.0742914831833
757.324,88.29566138253716,84.05848396683756,88.45364477611228,84.13202268863701,79.5375597451924,85.9753563275035
785.156,87.122819608411,83.35845666819642,87.97318833863962,84.47158286480058,79.31683371826385,85.37762501441384
811.523,86.6040026075212,83.04446844142247,87.539044426719,83.82549575106894,77.54003059557972,84.84174423811511
840.82,87.43326430053877,82.71770822797554,88.25895946856674,85.03401115681423,78.70606589189917,85.57124097024698
870.117,86.82782095221185,83.07593393298878,87.8240180104333,84.3712282326134,76.80868855780578,85.08453179296082
900.879,85.6634812336302,82.07381196084447,86.73796986137518,83.10688195688373,78.11214422223833,84.05078634419017
933.105,86.21430001884785,81.6095044537391,87.49598571375152,83.66963507416544,77.36753862788366,84.50945003444726
965.332,86.41349277537189,81.37088924159492,87.15872624926816,83.41889841004365,75.37247880285776,84.31047989951479
1000.49,85.67939761074872,81.02680062105709,86.91418915460048,83.32287276396586,75.07152630147573,83.92662989159125
1035.64,85.73435310068795,82.3075557572932,86.8193824085857,83.26224810709435,76.3242256953539,84.08314326486753
1072.27,86.44158258067688,82.14053324108671,86.96259161369294,83.16714547091911,74.30484078193999,84.26708458498557
1108.89,85.93707581866612,81.79827227739857,86.50175877763532,82.84763238604613,75.1771726177953,83.8600930317726
1148.44,85.50915120887863,81.72022374562142,86.30116904439885,82.07292264415543,74.26498152031527,83.49755119581963
1189.45,85.2068188848135,81.87115480228594,85.19855613065197,81.27573022673495,72.6388035241608,82.87368890989968
1230.47,85.19810951964942,83.0090671152669,85.31503518127136,81.34105637840048,72.99909462173345,83.126323896776
1274.41,84.37105393935018,83.45469214487649,84.63104815674619,80.32803421022028,71.43335166754112,82.58814617253043
1319.82,84.0664951267042,83.61738719158153,85.12003837103546,80.25440528147286,72.12399855378078,82.70679291559344
1366.7,83.28889575937593,82.16217311602408,84.73806237851554,80.12885894900676,72.20094517489933,82.01451501563956
1413.57,83.36077130455531,82.07787513825382,85.09984205293792,80.51467034363002,72.8632435218003,82.2202068337352
1463.38,82.42976531357847,81.81034959111567,84.4626462905865,79.75706253562494,71.47370119286379,81.55164041231927
1516.11,80.46749930449727,81.22620247930328,84.6892715473723,80.0709256405763,74.13571211884869,81.24467864275242
1568.85,77.3667191005012,79.18904840123608,85.81950045479088,80.99720200643812,72.61860298310737,81.22863323602857
1624.51,78.79419051220047,76.88962781941053,86.06738409016988,81.6700955476848,74.0434489536708,81.46882408119194
1681.64,80.29605017313757,76.60872382538628,86.68306706294692,82.0766216681529,73.43876994555742,82.05287957391893
1741.7,81.31302466822,77.18612210500466,86.64735514028692,82.0215301871528,73.49781135025685,82.20822880343218
1803.22,81.1609914277425,77.85277157576753,85.91801972033849,81.64843332214109,72.26921980741004,81.73378431686332
1866.21,80.65241251455984,77.27892139767182,85.56009072384708,81.45878715716033,72.8670174947381,81.39047458488379
1932.13,80.73482174608485,76.98644287386888,85.12787461502171,80.9103310387958,72.20301593901216,81.03121069084509
1999.51,81.1338818089098,76.87478921703696,85.65709647972808,81.21646771020093,72.51051529151827,81.43990795275562
2069.82,80.96448378984503,76.04409752864602,85.67510305475425,80.92714352293721,70.9545280240781,81.27591942180152
2143.07,80.03374755867716,73.77310309410844,84.7171222265529,80.17249169709213,71.24691204373009,80.32041865534524
2219.24,79.35628250697998,69.02191960864496,84.95113550456931,80.40928136616293,71.99521579124746,80.2744017270959
2296.88,79.22457589854969,64.45393097425692,85.63313455550109,81.20397061328552,70.51309534474098,80.759089271049
2378.91,78.18798852995978,73.23723043276526,85.89173012250765,81.20839268846088,71.13879906250109,80.9366223460003
2462.4,78.60117920909845,72.01113924775258,84.69829403574705,80.79057379941972,70.26753352892895,80.11958547019049
2548.83,78.03284871648937,71.9191887776222,84.5303586427174,80.53327683947673,70.21061180295575,79.8812055523613
2639.65,78.0604864074963,71.99061286068182,85.25536276624831,81.11618795300664,70.25834176138119,80.45396228380744
2731.93,78.35697255157453,75.63909018600536,84.57387030247396,80.92261914978015,70.54222793259326,80.22683520722445
2828.61,77.66810052047389,76.67234175346685,84.20209236728337,80.42574227698648,70.57883072169253,79.91056712956748
2928.22,77.4098465133708,76.36556859544902,83.44222979548083,80.00178620434701,68.62511986549752,79.31078421853731
3030.76,77.78052614738162,77.92633402640757,84.0121380222635,80.13695722536123,68.63128911714286,79.86245882031511
3137.7,77.41147349949442,78.96423371069052,84.7970311918057,80.91018620904516,68.96593186530373,80.54510855975148
3249.02,77.18590104177328,79.71109223843902,84.36623322516071,80.53132163814351,69.90950349232733,80.35007037702229
3363.28,77.82861675051959,80.39977492015217,85.26297997038104,80.9757960996459,69.3196137193552,81.07214918714858
3481.93,78.4332105659009,80.13591482983402,85.18677189579023,81.15771239298992,69.12613454885694,81.08391102226432
3604.98,79.47523433471112,78.7864379036486,85.02074946038367,80.72142079798876,69.65711606742863,80.85856402181757
3732.42,79.77097610558798,78.14729841838043,85.27894142970545,80.7736542134489,69.1116147535105,80.96903133663925
3864.26,80.67994890284525,78.20344822034969,84.89411701726493,81.00226864583155,69.78173591744877,80.98401262712933
4000.49,81.25453735119923,79.26994964591911,85.37191668036805,81.79124631010048,70.7548596168193,81.61649492268093
4141.11,81.85082265127518,80.54164659954722,84.92493496406244,81.87661358582137,70.46697224837057,81.71676571680705
4287.6,82.4915992666961,80.58039339844764,84.83227357511824,81.89468285282827,70.50448171199174,81.82958829061847
4438.48,82.77422986570329,80.98860124495864,85.1705781789014,82.21332472320783,69.75419830157219,82.14735322899715
4595.21,83.24297030738583,80.98027734228155,84.62070402345013,82.35675566642107,70.601712616642,82.09329929839333
4756.35,83.40224528988334,81.04847567192442,84.85122583582385,82.31761710837466,69.67980933015019,82.20932557672755
4924.8,83.67731037105946,80.93694387313462,84.38981735086534,83.0245728479059,70.64630254155078,82.27537101959082
5097.66,84.13455418357984,81.11849116188533,84.58661468407979,83.02109944105051,70.32052632215287,82.49074544691317
5277.83,84.2583848361326,81.3854867387479,84.60223487203244,83.51464275229651,71.29022908022655,82.6988810369994
5463.87,84.40013362680448,81.96472608188203,84.655754000483,83.53739741372279,71.05402435707457,82.84801993738182
5657.23,84.5000353875732,82.35533823742881,84.78078440191487,83.32845268522125,71.21412474720293,82.93553313879274
5856.45,84.48633489177126,82.56457285422368,84.86603908891867,83.36316056396481,70.78302446176548,82.99712515668423
6062.99,84.490215834071,82.68646002596347,85.00663524717658,82.70824626196914,70.0095771395968,82.92313280456396
6276.86,84.12528818017718,82.74086227402914,84.56757669037115,82.85670100097127,70.75296317621117,82.73098972199962
6498.05,84.30116084070933,82.9316494236594,83.83753950192651,82.71527805418863,70.0129298882377,82.57436919840214
6726.56,84.14925235888172,82.75618146935028,84.48818139435208,83.33530616693567,70.31074819992821,82.814696561032
6963.87,84.15487314853341,82.26666545609808,85.09710516938816,83.42481733760907,70.22394835952154,82.93482273103156
7209.96,84.03380331747996,82.12747877650357,85.54783914127758,83.68883419630816,70.66490963820233,83.09877300032852
7464.84,84.19386799802113,82.32453729168569,85.38165117138145,83.55653594927793,70.77601866323688,83.08555531039336
7727.05,84.42391248239039,82.81480643356323,84.34131633683788,83.17777271569362,70.84059740189171,82.83240254288043
7999.51,84.63772443981546,82.88253359466161,83.75648432048717,83.01319386114524,70.32900502871188,82.71159714664968
8282.23,85.11714774444441,82.79318987144222,83.8160782522071,82.35930881542508,68.95700060618083,82.72268203859464
8573.73,85.6317025224739,83.36700087849877,84.55479462087254,81.87251260825028,67.88355044776989,83.13159182875224
8876.95,86.327449825931,83.62703218586633,85.70374245128657,82.19198819526021,68.3126928625803,83.81689081775568
9188.96,86.774298205309,82.98919436580846,86.16739261160173,82.58071580297788,69.26649575955314,84.07627904692534
9514.16,86.52458302010574,83.32223315627266,86.00301973964532,82.55181332022,68.37253946421855,83.97708453248826
9849.61,86.05592654993059,83.26222667488271,86.02064439649838,82.32946403539842,67.9306761007035,83.7745411489703
