Freq "Ceiling Bounce"
20.5078 53.91531178708233
21.9727 56.82638335145653
23.4375 57.896901164856885
24.9023 59.46031606022241
26.3672 60.37085791205185
27.832 62.462245531449256
29.2969 63.62954600649611
30.7617 65.10627456498689
32.2266 66.5315307239772
33.6914 67.93495757737215
35.1562 69.20965787367437
36.6211 70.46814373749812
38.0859 71.55074509605512
39.5508 72.68025829363624
41.0156 73.70621287913328
42.4805 74.70608715789594
43.9453 75.61348224113635
45.4102 76.50340737398588
46.875 77.32614302200535
48.3398 78.0730375221864
51.2695 79.50594424498738
52.7344 80.19914148455484
54.1992 80.78666021827648
55.6641 81.34529469909786
58.5938 82.3271123516909
60.0586 82.77414279331846
62.9883 83.62497375456229
64.4531 83.97445824816772
67.3828 84.59242222384903
68.8477 84.85897984850988
71.7773 85.26230427731325
74.707 85.6376954049322
77.6367 85.96954816449316
79.1016 86.08491678936737
82.0312 86.22428972890079
84.9609 86.38364263927481
87.8906 86.51906047154237
90.8203 86.66651539432071
95.2148 86.76191126828466
98.1445 86.80886633660805
101.074 86.82388739783298
105.469 86.78981074034775
108.398 86.72267310914329
112.793 86.56545007528702
117.188 86.40257282402929
120.117 86.51175311547196
124.512 86.66346935047055
128.906 86.51261778575413
133.301 86.40231920970919
139.16 86.31844766646522
143.555 86.3191999904664
147.949 86.64873376859482
153.809 86.79101607094418
159.668 86.45508978142239
165.527 86.34233893988785
171.387 86.367568152353
177.246 86.23670335718485
183.105 86.1870484621352
188.965 86.28946311960357
196.289 85.90642839150553
203.613 85.78196696751873
210.938 85.64527794039422
218.262 85.71400917530063
225.586 85.18639333852349
232.91 85.06080816326607
241.699 85.40844450012774
250.488 86.85482121215433
259.277 85.80102974707965
268.066 85.87657164473981
276.855 85.7636603406987
287.109 85.43036153050669
297.363 85.18822054011007
307.617 84.86413890471145
319.336 85.57178709930909
329.59 85.53476930072017
341.309 84.54189619201547
353.027 84.24957625719456
366.211 84.44566469704768
379.395 84.29149295956297
392.578 85.0016399276649
405.762 84.21316892793872
420.41 84.25610082775691
435.059 84.13797564820847
451.172 82.32253271708126
465.82 83.63160213818482
483.398 84.26384251207277
499.512 84.40885098592084
517.09 82.88568530648129
536.133 84.15211259928635
555.176 83.66193135353464
574.219 84.08912798757433
594.727 83.6690753671359
615.234 82.80668144996476
637.207 83.77436964409945
659.18 83.83453128569249
682.617 83.34464232279154
707.52 83.67592961114417
732.422 83.28265181201837
757.324 84.47437336077697
785.156 83.77434606213583
811.523 83.46035783536188
840.82 83.13359762191494
870.117 83.49182332692818
900.879 82.48970135478388
933.105 82.02539384767852
965.332 81.78677863553433
1000.49 81.4426900149965
1035.64 82.72344515123261
1072.27 82.55642263502612
1108.89 82.21416167133798
1148.44 82.13611313956083
1189.45 82.28704419622535
1230.47 83.42495650920631
1274.41 83.8705815388159
1319.82 84.03327658552094
1366.7 82.57806250996349
1413.57 82.49376453219323
1463.38 82.22623898505508
1516.11 81.64209187324269
1568.85 79.60493779517549
1624.51 77.30551721334994
1681.64 77.02461321932569
1741.7 77.60201149894407
1803.22 78.26866096970694
1866.21 77.69481079161123
1932.13 77.40233226780829
1999.51 77.29067861097637
2069.82 76.45998692258543
2143.07 74.18899248804784
2219.24 69.43780900258437
2296.88 64.86982036819633
2378.91 73.65311982670467
2462.4 72.42702864169199
2548.83 72.3350781715616
2639.65 72.40650225462123
2731.93 76.05497957994477
2828.61 77.08823114740626
2928.22 76.78145798938843
3030.76 78.34222342034698
3137.7 79.38012310462993
3249.02 80.12698163237843
3363.28 80.81566431409158
3481.93 80.55180422377343
3604.98 79.20232729758801
3732.42 78.56318781231984
3864.26 78.6193376142891
4000.49 79.68583903985852
4141.11 80.95753599348663
4287.6 80.99628279238705
4438.48 81.40449063889805
4595.21 81.39616673622096
4756.35 81.46436506586383
4924.8 81.35283326707403
5097.66 81.53438055582474
5277.83 81.80137613268731
5463.87 82.38061547582144
5657.23 82.77122763136822
5856.45 82.9804622481631
6062.99 83.10234941990288
6276.86 83.15675166796855
6498.05 83.3475388175988
6726.56 83.17207086328969
6963.87 82.68255485003749
7209.96 82.54336817044297
7464.84 82.7404266856251
7727.05 83.23069582750264
7999.51 83.29842298860102
8282.23 83.20907926538163
8573.73 83.78289027243818
8876.95 84.04292157980574
9188.96 83.40508375974787
9514.16 83.73812255021207
9849.61 83.67811606882212
10196.8 83.13601738705735
10555.7 83.01560845211112
10927.7 82.45619977126415
11313.0 81.92420574843514
11712.9 81.22034357438854
12126.0 80.72099071506486
12553.7 80.0033574566344
12996.1 79.505008401379
13454.6 78.67810166660432
13929.2 78.25283297233563
14419.9 77.52569095940574
14928.2 76.5937624783718
15455.6 76.71572379489214
16000.5 76.32545632844106
16564.5 76.44024067696115
17148.9 76.43908330021058
17752.4 76.06980646320112
18379.4 75.74522420084587
19026.9 76.26675925414027
19697.8 77.3429824001503
19999.5 78.53066631661058
