Freq "Listening Window"
20.5078 57.74501421785446
21.2402 59.14869724382923
21.9727 60.89949779768175
22.7051 61.335755668295164
23.4375 62.51004348767573
24.1699 63.827541019107926
25.6348 65.69421998309839
26.3672 66.70927046184134
27.0996 67.44392574231578
27.832 68.27084003300176
29.2969 70.14164447690264
30.0293 70.88289755155286
31.4941 73.29518018706888
32.2266 74.28948618753927
33.6914 75.70252031700392
34.4238 76.55490056383506
35.8887 78.5050908256819
37.3535 79.80709838047734
38.8184 81.51511274783496
39.5508 82.45944420854998
41.0156 84.13271109611637
42.4805 85.79358667821448
43.9453 87.5070569320135
45.4102 88.81168243549901
47.6074 90.05405584636114
49.0723 91.14299603398341
50.5371 92.03873978903273
52.7344 93.28579245494191
54.1992 93.85245139651336
56.3965 94.50636002889861
58.5938 94.94935515193836
60.0586 95.2146882180215
62.2559 95.56990088470911
64.4531 95.88792869457855
66.6504 96.15599545699534
69.5801 96.76142416340669
71.7773 97.10006250412364
73.9746 97.44917308418214
76.9043 97.93223400275423
79.834 98.40656005345787
82.7637 98.79706148715631
85.6934 99.1809166472405
88.623 99.62364004302393
91.5527 100.02428132304607
94.4824 100.10659637659828
98.1445 99.85874138778584
101.807 99.42716871161637
105.469 99.19488711768973
109.131 99.00301792335598
112.793 98.23988948165956
116.455 97.24915968775142
120.85 97.36662127584135
125.244 97.40955017507878
129.639 97.03770667150361
134.033 96.9578260605707
138.428 96.69623122582605
143.555 96.13330251761492
148.682 96.44385352600183
153.809 96.56324855639625
159.668 96.40314993937332
164.795 95.68918831850958
170.654 97.1202155924375
176.514 98.13268058698141
183.105 96.49489414437461
189.697 96.9630513854168
196.289 98.79412929339631
202.881 96.78959473525539
210.205 97.94054492353642
217.529 96.99046819049997
225.586 99.00642642301668
232.91 101.45101909968332
241.699 101.4126802823315
249.756 100.86646348709293
258.545 101.60990854946338
268.066 100.29290888222941
277.588 98.77021711334748
287.109 100.1912570822735
297.363 98.97398660802958
307.617 97.02422978426823
318.604 92.58293833799421
329.59 91.81411546685817
341.309 90.83376133329013
353.76 93.24917442583454
366.211 93.59142698409224
378.662 95.09591891668155
392.578 95.62748408675073
405.762 95.4211812445124
420.41 96.48352537179825
435.059 95.72583792855619
450.439 95.1093797545371
466.553 94.90881102915141
482.666 94.47704384815752
500.244 94.41845279250416
517.822 94.57146338011773
536.133 93.68507353567777
554.443 94.32508245680054
574.219 93.23119724592244
594.727 92.50765578940822
615.234 93.30116133701486
637.207 95.01128735041137
659.912 95.26750375223743
683.35 95.55286453974126
706.787 95.66595348054966
731.689 95.02569219161678
758.057 96.06850546329308
784.424 95.09679683446586
812.256 94.25283108969346
840.82 92.33607292542511
870.85 91.1199067054853
901.611 90.25639212860034
933.105 91.59746590210864
966.064 94.82430824665555
999.756 96.5448842114876
1034.91 98.73670687839825
1071.53 99.46119548616197
1109.62 99.6754539323498
1148.44 99.29394549326317
1189.45 98.06187643820459
1231.2 97.41546917450373
1274.41 96.54878015829496
1319.82 95.47381109607181
1365.97 95.86869004197007
1414.31 95.63798875064671
1464.11 95.01500255446572
1515.38 94.8230855135149
1568.85 94.76580784922955
1624.51 94.98172098391588
1681.64 95.14492588716276
1740.97 95.22839770630146
1802.49 94.90800787935704
1866.21 94.43178155702508
1932.13 94.35864818643431
2000.24 94.46600566130108
2070.56 94.67442847833274
2143.8 95.10774634249643
2219.24 95.10126055960926
2297.61 93.89631305524723
2378.17 93.12775351996216
2462.4 93.0585254385107
2548.83 93.08301393876994
2638.92 93.37513465989163
2731.93 93.75979020642369
2828.61 93.75469904317563
2928.22 93.6845538068176
3031.49 93.97837639082049
3138.43 94.42080657169427
3249.02 94.34655115224145
3363.28 95.82439272282778
3481.93 95.46147877629124
3604.98 95.68108808119021
3732.42 94.84465530166592
3863.53 95.25071984944306
3999.76 93.63185956964294
4141.11 94.20570683781172
4286.87 92.75326741090761
4438.48 93.57259121802562
4594.48 93.51245691810868
4757.08 94.2293228939101
4924.8 94.84320800791086
5098.39 94.79497517199016
5277.83 95.76656025229312
5463.87 96.38878368946182
5656.49 96.2803315780252
5856.45 96.10826073705104
6062.99 95.2869003003425
6276.86 94.58452791607309
6498.05 94.10353231783914
6727.29 94.12994208110037
6964.6 95.33831694341566
7209.96 96.97901764950537
7464.11 97.70923046442097
7727.78 97.33344488194764
8000.24 96.73084666109447
8282.23 96.09785126708965
8574.46 94.93942900944289
8876.22 94.40447971661479
9189.7 95.48256883474478
9513.43 96.53130199045086
9848.88 97.26722280100476
10196.8 97.65152783520303
10556.4 97.70266687041205
10928.5 96.71321039548054
11313.7 96.10757924501556
11712.9 96.28113770693774
12126.0 96.47275912499475
12553.7 96.53090811715401
12996.1 95.87321758558488
13454.6 95.66543621866819
13928.5 94.9794196832668
14419.9 95.20804129710255
14928.2 97.49365250823534
15454.8 97.56870222259143
15999.8 97.66081605024196
16564.5 96.537801147801
17148.2 96.39080592000262
17753.2 97.75968699781558
18379.4 99.125373268762
19027.6 96.9430453063684
19698.5 92.45666304340612
19999.5 89.31332946735326
