Freq "On Axis"
20.5078 57.7401
21.2402 59.19109999999999
21.9727 60.9336
22.7051 61.3719
23.4375 62.538799999999995
24.1699 63.88119999999999
25.6348 65.73299999999999
26.3672 66.73810000000002
27.0996 67.4694
27.832 68.308
29.2969 70.17810000000001
30.0293 70.9183
31.4941 73.3422
32.2266 74.335
33.6914 75.7509
34.4238 76.604
35.8887 78.5535
37.3535 79.8519
38.8184 81.566
39.5508 82.5118
41.0156 84.1888
42.4805 85.8533
43.9453 87.5745
45.4102 88.873
47.6074 90.1035
49.0723 91.19359999999999
50.5371 92.091
52.7344 93.3371
54.1992 93.9078
56.3965 94.5658
58.5938 95.01299999999999
60.0586 95.2808
62.2559 95.6425
64.4531 95.9671
66.6504 96.2385
69.5801 96.8252
71.7773 97.17049999999999
73.9746 97.5251
76.9043 98.0166
79.834 98.5003
82.7637 98.9024
85.6934 99.29709999999999
88.623 99.7374
91.5527 100.141
94.4824 100.23099999999998
98.1445 99.9876
101.807 99.5732
105.469 99.3566
109.131 99.147
112.793 98.38850000000001
116.455 97.4148
120.85 97.54010000000001
125.244 97.5771
129.639 97.2198
134.033 97.1516
138.428 96.8819
143.555 96.3505
148.682 96.6482
153.809 96.7906
159.668 96.6412
164.795 95.9394
170.654 97.42029999999998
176.514 98.41199999999999
183.105 96.7547
189.697 97.25760000000001
196.289 99.1058
202.881 97.0989
210.205 98.28439999999999
217.529 97.3216
225.586 99.306
232.91 101.836
241.699 101.844
249.756 101.311
258.545 102.052
268.066 100.699
277.588 99.31409999999998
287.109 100.633
297.363 99.3818
307.617 97.4901
318.604 93.1168
329.59 92.3099
341.309 91.4451
353.76 93.77729999999998
366.211 94.1965
378.662 95.6345
392.578 96.3575
405.762 96.1129
420.41 97.1491
435.059 96.5306
450.439 95.8987
466.553 95.76379999999999
482.666 95.4149
500.244 95.35350000000001
517.822 95.5886
536.133 94.7892
554.443 95.28590000000001
574.219 94.2504
594.727 93.7172
615.234 94.4428
637.207 96.2626
659.912 96.7585
683.35 96.9974
706.787 97.2841
731.689 96.5953
758.057 97.775
784.424 96.5698
812.256 95.9934
840.82 93.9796
870.85 92.653
901.611 92.125
933.105 93.2453
966.064 96.56069999999998
999.756 98.30229999999999
1034.91 100.516
1071.53 101.353
1109.62 101.53699999999999
1148.44 101.148
1189.45 99.9374
1231.2 99.1794
1274.41 98.0252
1319.82 96.536
1365.97 97.2103
1414.31 97.09060000000001
1464.11 96.4198
1515.38 96.566
1568.85 96.7879
1624.51 97.41520000000001
1681.64 97.7961
1740.97 97.7795
1802.49 97.5827
1866.21 96.8208
1932.13 96.3405
2000.24 96.14119999999998
2070.56 96.2495
2143.8 96.85020000000002
2219.24 96.93390000000001
2297.61 95.4081
2378.17 94.4397
2462.4 95.23980000000002
2548.83 96.1541
2638.92 96.5278
2731.93 96.67529999999998
2828.61 96.5654
2928.22 96.4709
3031.49 96.4575
3138.43 96.73020000000001
3249.02 96.8039
3363.28 98.37839999999998
3481.93 97.7779
3604.98 97.71759999999999
3732.42 97.0663
3863.53 97.3071
3999.76 95.4518
4141.11 95.8044
4286.87 93.5769
4438.48 94.2429
4594.48 93.3396
4757.08 93.9921
4924.8 94.7444
5098.39 94.93509999999999
5277.83 95.8593
5463.87 96.8068
5656.49 96.948
5856.45 97.05840000000002
6062.99 96.38370000000002
6276.86 95.7292
6498.05 95.31770000000002
6727.29 95.7344
6964.6 97.08030000000001
7209.96 98.8117
7464.11 99.2704
7727.78 98.2474
8000.24 97.22090000000001
8282.23 96.5691
8574.46 95.4287
8876.22 95.5682
9189.7 97.0474
9513.43 97.7023
9848.88 98.6789
10196.8 99.49930000000002
10556.4 99.4862
10928.5 98.5947
11313.7 97.57100000000001
11712.9 97.6025
12126.0 97.69280000000002
12553.7 97.5833
12996.1 96.60369999999999
13454.6 96.5192
13928.5 95.4473
14419.9 94.9677
14928.2 97.16019999999999
15454.8 95.6632
15999.8 95.6
16564.5 91.6159
17148.2 91.4167
17753.2 97.1924
18379.4 99.4282
19027.6 96.5717
19698.5 90.9202
19999.5 87.2522
