Freq "On Axis"
20.5078 58.25742966983263
21.2402 59.708429669832626
21.9727 61.45092966983263
22.7051 61.88922966983263
23.4375 63.05612966983263
24.1699 64.39852966983263
25.6348 66.25032966983262
26.3672 67.25542966983265
27.0996 67.98672966983263
27.832 68.82532966983264
29.2969 70.69542966983265
30.0293 71.43562966983264
31.4941 73.85952966983264
32.2266 74.85232966983263
33.6914 76.26822966983264
34.4238 77.12132966983263
35.8887 79.07082966983263
37.3535 80.36922966983263
38.8184 82.08332966983264
39.5508 83.02912966983263
41.0156 84.70612966983263
42.4805 86.37062966983264
43.9453 88.09182966983263
45.4102 89.39032966983264
47.6074 90.62082966983263
49.0723 91.71092966983262
50.5371 92.60832966983263
52.7344 93.85442966983264
54.1992 94.42512966983263
56.3965 95.08312966983263
58.5938 95.53032966983262
60.0586 95.79812966983263
62.2559 96.15982966983263
64.4531 96.48442966983264
66.6504 96.75582966983264
69.5801 97.34252966983263
71.7773 97.68782966983262
73.9746 98.04242966983263
76.9043 98.53392966983263
79.834 99.01762966983263
82.7637 99.41972966983263
85.6934 99.81442966983262
88.623 100.25472966983263
91.5527 100.65832966983264
94.4824 100.74832966983261
98.1445 100.50492966983263
101.807 100.09052966983263
105.469 99.87392966983263
109.131 99.66432966983264
112.793 98.90582966983264
116.455 97.93212966983263
120.85 98.05742966983264
125.244 98.09442966983264
129.639 97.73712966983264
134.033 97.66892966983264
138.428 97.39922966983264
143.555 96.86782966983263
148.682 97.16552966983264
153.809 97.30792966983263
159.668 97.15852966983263
164.795 96.45672966983264
170.654 97.93762966983262
176.514 98.92932966983263
183.105 97.27202966983263
189.697 97.77492966983264
196.289 99.62312966983264
202.881 97.61622966983263
210.205 98.80172966983262
217.529 97.83892966983264
225.586 99.82332966983263
232.91 102.35332966983263
241.699 102.36132966983263
249.756 101.82832966983264
258.545 102.56932966983264
268.066 101.21632966983263
277.588 99.83142966983262
287.109 101.15032966983263
297.363 99.89912966983263
307.617 98.00742966983263
318.604 93.63412966983263
329.59 92.82722966983263
341.309 91.96242966983263
353.76 94.29462966983262
366.211 94.71382966983263
378.662 96.15182966983264
392.578 96.87482966983264
405.762 96.63022966983263
420.41 97.66642966983264
435.059 97.04792966983264
450.439 96.41602966983264
466.553 96.28112966983262
482.666 95.93222966983264
500.244 95.87082966983264
517.822 96.10592966983263
536.133 95.30652966983263
554.443 95.80322966983265
574.219 94.76772966983263
594.727 94.23452966983264
615.234 94.96012966983264
637.207 96.77992966983264
659.912 97.27582966983263
683.35 97.51472966983263
706.787 97.80142966983263
731.689 97.11262966983263
758.057 98.29232966983264
784.424 97.08712966983263
812.256 96.51072966983263
840.82 94.49692966983264
870.85 93.17032966983264
901.611 92.64232966983263
933.105 93.76262966983263
966.064 97.07802966983262
999.756 98.81962966983262
1034.91 101.03332966983264
1071.53 101.87032966983263
1109.62 102.05432966983263
1148.44 101.66532966983263
1189.45 100.45472966983263
1231.2 99.69672966983264
1274.41 98.54252966983263
1319.82 97.05332966983264
1365.97 97.72762966983264
1414.31 97.60792966983264
1464.11 96.93712966983263
1515.38 97.08332966983264
1568.85 97.30522966983263
1624.51 97.93252966983265
1681.64 98.31342966983263
1740.97 98.29682966983263
1802.49 98.10002966983264
1866.21 97.33812966983264
1932.13 96.85782966983264
2000.24 96.65852966983262
2070.56 96.76682966983263
2143.8 97.36752966983265
2219.24 97.45122966983264
2297.61 95.92542966983264
2378.17 94.95702966983264
2462.4 95.75712966983265
2548.83 96.67142966983263
2638.92 97.04512966983263
2731.93 97.19262966983261
2828.61 97.08272966983263
2928.22 96.98822966983263
3031.49 96.97482966983263
3138.43 97.24752966983264
3249.02 97.32122966983263
3363.28 98.89572966983262
3481.93 98.29522966983264
3604.98 98.23492966983262
3732.42 97.58362966983263
3863.53 97.82442966983264
3999.76 95.96912966983264
4141.11 96.32172966983264
4286.87 94.09422966983263
4438.48 94.76022966983264
4594.48 93.85692966983264
4757.08 94.50942966983263
4924.8 95.26172966983263
5098.39 95.45242966983263
5277.83 96.37662966983264
5463.87 97.32412966983263
5656.49 97.46532966983263
5856.45 97.57572966983265
6062.99 96.90102966983265
6276.86 96.24652966983264
6498.05 95.83502966983265
6727.29 96.25172966983263
6964.6 97.59762966983264
7209.96 99.32902966983264
7464.11 99.78772966983263
7727.78 98.76472966983263
8000.24 97.73822966983265
8282.23 97.08642966983264
8574.46 95.94602966983264
8876.22 96.08552966983264
9189.7 97.56472966983263
9513.43 98.21962966983263
9848.88 99.19622966983263
10196.8 100.01662966983265
10556.4 100.00352966983263
10928.5 99.11202966983264
11313.7 98.08832966983265
11712.9 98.11982966983264
12126.0 98.21012966983265
12553.7 98.10062966983263
12996.1 97.12102966983262
13454.6 97.03652966983263
13928.5 95.96462966983263
14419.9 95.48502966983263
14928.2 97.67752966983262
15454.8 96.18052966983264
15999.8 96.11732966983263
16564.5 92.13322966983263
17148.2 91.93402966983264
17753.2 97.70972966983264
18379.4 99.94552966983264
19027.6 97.08902966983264
19698.5 91.43752966983263
19999.5 87.76952966983264
