Freq "Floor Bounce"
20.5078 59.80701931830606
21.9727 60.7728604949306
23.4375 60.9542460065191
24.9023 62.49509484832299
26.3672 63.623409137606345
27.832 64.85637273542703
29.2969 65.66905449432787
30.7617 66.51705663633001
32.2266 67.31434905758407
33.6914 67.94133032021509
35.1562 68.61830346248284
36.6211 69.37982216693854
38.0859 70.03562880295529
39.5508 70.70447515422256
41.0156 71.30526222923025
42.4805 71.9318887403552
43.9453 72.50610922056549
45.4102 73.11633410616709
46.875 73.74462987591642
48.3398 74.27795035996249
51.2695 75.30711318445124
52.7344 75.77389456632145
54.1992 76.21697368989058
55.6641 76.72326145400686
58.5938 77.6515532756489
60.0586 78.03567135619085
62.9883 78.82403458491397
64.4531 79.18650477752067
67.3828 79.90365793184264
68.8477 80.22388840626971
71.7773 80.7916482482805
74.707 81.51162724006475
77.6367 82.02547683637471
79.1016 82.26206395538186
82.0312 82.64034663502298
84.9609 83.11675453284361
87.8906 83.55243121759308
90.8203 84.05287668650854
95.2148 84.61699023871486
98.1445 85.05794790813037
101.074 85.37587822488078
105.469 85.61489900308808
108.398 85.80334508333992
112.793 85.94851765629406
117.188 85.89146436886165
120.117 86.10911904089137
124.512 86.38399695201046
128.906 86.24337470091037
133.301 86.14422247596423
139.16 86.08104884860126
143.555 86.07064885480409
147.949 86.40384979936202
153.809 86.49636092567107
159.668 86.18366519088151
165.527 86.16512149705008
171.387 86.12199778552586
177.246 86.1462408584708
183.105 86.0718956292634
188.965 86.20302382754352
196.289 86.12673400181825
203.613 86.08124048099327
210.938 85.89830742330474
218.262 86.03835817301709
225.586 85.57099904003388
232.91 85.40179576992014
241.699 85.39394080197049
250.488 86.88263220602069
259.277 85.93860333599784
268.066 85.93308331046937
276.855 85.50794675079723
287.109 84.74846391529033
297.363 85.11767537178258
307.617 84.40228370109998
319.336 84.69220889042457
329.59 84.58883711083865
341.309 84.4095988470425
353.027 84.47079748364736
366.211 84.72316034646585
379.395 84.72299759722982
392.578 85.84934329991933
405.762 85.36674133188522
420.41 85.36457345868328
435.059 83.75878302155593
451.172 83.15437173610287
465.82 84.32543405145091
483.398 84.83961805321579
499.512 84.88397710414625
517.09 83.58566833694532
536.133 84.03345878498763
555.176 84.9089510446826
574.219 83.98619131313772
594.727 84.07345226678369
615.234 84.30155220431558
637.207 85.08349614093255
659.18 85.86274044120722
682.617 84.737344225675
707.52 84.52036655188164
732.422 84.91900324609627
757.324 85.77706857404601
785.156 85.9406314719307
811.523 85.41458704715659
840.82 85.7721074951087
870.117 85.95813561188851
900.879 85.24634951851482
933.105 83.81794382054339
965.332 84.35609923438926
1000.49 84.1277033263604
1035.64 83.37681020855548
1072.27 83.69991061355691
1108.89 84.06626158511668
1148.44 83.71694956326093
1189.45 83.48115485877084
1230.47 83.14061502570053
1274.41 82.89135220947843
1319.82 82.87073018989575
1366.7 83.23475749675808
1413.57 83.14022962091794
1463.38 83.65025187596767
1516.11 83.43982847955391
1568.85 83.5494240837061
1624.51 82.33345841636961
1681.64 83.04663415860368
1741.7 83.04125372919015
1803.22 83.7775551773284
1866.21 83.22694335918032
1932.13 83.2923941175763
1999.51 83.19089905933353
2069.82 83.64456233583361
2143.07 83.32049124940386
2219.24 83.07451344839572
2296.88 83.21611258573812
2378.91 83.71834547246965
2462.4 84.15569653213362
2548.83 83.84456559554567
2639.65 83.78325522542386
2731.93 84.12389440399181
2828.61 84.23117128731991
2928.22 83.7209072800604
3030.76 83.37050717087047
3137.7 83.44467863546515
3249.02 83.61628457641979
3363.28 83.48329675778655
3481.93 83.27016606726428
3604.98 82.72766397746206
3732.42 82.76457194796441
3864.26 82.72235520817813
4000.49 82.24968744985647
4141.11 82.89060022848199
4287.6 82.71909036400852
4438.48 82.78962967284903
4595.21 82.4717247442407
4756.35 82.73312785546699
4924.8 82.44126361726421
5097.66 82.74692719705871
5277.83 82.30339418084509
5463.87 82.73879378543631
5657.23 82.84081588670917
5856.45 82.41841156758713
6062.99 82.57975238552993
6276.86 82.1869648285658
6498.05 82.42927636148546
6726.56 82.50047464665766
6963.87 82.85978958407166
7209.96 82.98966148822346
7464.84 82.78275360318925
7727.05 82.65290360421945
7999.51 82.27977655740997
8282.23 82.01301896634003
8573.73 81.9215854169827
8876.95 82.08722855633408
9188.96 82.36722256408436
9514.16 82.3920649738777
9849.61 82.44730531574663
10196.8 82.48844232219308
10555.7 82.44364804388553
10927.7 82.3369743630437
11313.0 82.20352654539795
11712.9 82.14968222220418
12126.0 82.24900871570844
12553.7 82.4165939225015
12996.1 82.63872473723971
13454.6 82.57874799506489
13929.2 82.67130058936542
14419.9 82.55401273991026
14928.2 82.53912217137056
15455.6 82.1402177916511
16000.5 81.73516704424459
16564.5 81.39439496691368
17148.9 80.80875408286292
17752.4 80.17647563510788
18379.4 79.16741101304527
19026.9 78.19425802503866
19697.8 77.23730556588886
19999.5 76.9351833585074
