Freq "Rear Wall Bounce"
20.5078 57.487617491562276
21.9727 58.263598690842116
23.4375 58.340325646416545
24.9023 59.88489033805678
26.3672 60.964410669352475
27.832 62.575215073134956
29.2969 63.290612273831044
30.7617 64.20177275362384
32.2266 65.04421293582945
33.6914 65.6735700030444
35.1562 66.34797132125155
36.6211 67.11243247243944
38.0859 67.78581620842574
39.5508 68.46451875877939
41.0156 69.04318084672437
42.4805 69.66098723614405
43.9453 70.24405496614705
45.4102 70.85280864986053
46.875 71.478906504339
48.3398 72.08256189861531
51.2695 73.07487500257248
52.7344 73.556458238595
54.1992 74.05611321676902
55.6641 74.553791715968
58.5938 75.47592899407918
60.0586 75.84572962133552
62.9883 76.57085966609554
64.4531 76.95600724096589
67.3828 77.73609253652032
68.8477 78.03010844172022
71.7773 78.69851949353773
74.707 79.28490025617018
77.6367 79.81459992252937
79.1016 80.18238026624105
82.0312 80.64599209797902
84.9609 81.05217531517553
87.8906 81.42189153716421
90.8203 81.82724927280151
95.2148 82.46679937745888
98.1445 82.79525497087117
101.074 83.07353830506057
105.469 83.32509926076916
108.398 83.47620113263882
112.793 83.56594647261149
117.188 83.4119423689534
120.117 83.3498641043208
124.512 83.87888495535898
128.906 83.85679615847887
133.301 83.57668104057572
139.16 83.38655773938059
143.555 83.20216977613165
147.949 83.53115726240144
153.809 83.81635859154056
159.668 83.6297823100273
165.527 83.21727251697361
171.387 83.03749078629596
177.246 83.39009300269899
183.105 83.24247437220474
188.965 83.38507725395056
196.289 83.5002571385547
203.613 83.58938073749182
210.938 83.16402070698749
218.262 83.12242029243956
225.586 83.03118676752433
232.91 82.29339929180948
241.699 80.25437682248212
250.488 81.19981660387353
259.277 82.85459847036309
268.066 82.48516124317888
276.855 83.11573394550219
287.109 82.56828976430437
297.363 81.59832551703226
307.617 81.66710393742724
319.336 79.41582431099016
329.59 81.73187517870284
341.309 82.25571881434946
353.027 82.42326224233085
366.211 81.10868486287325
379.395 81.27239982421197
392.578 81.31939091003244
405.762 81.46948903641133
420.41 80.45346817631878
435.059 81.81774765173151
451.172 80.96339422110974
465.82 80.49757784734075
483.398 80.13706794080642
499.512 80.26736968529833
517.09 80.6100712489249
536.133 80.71967085686966
555.176 80.11377035287246
574.219 79.18540422227156
594.727 79.76818775026129
615.234 80.61857552655668
637.207 79.30843597057257
659.18 79.01543227714001
682.617 79.7327876400319
707.52 78.34239667942924
732.422 78.93931891842317
757.324 78.80278579341874
785.156 78.42183064647146
811.523 78.19510041864962
840.82 79.35208589250269
870.117 76.63451655779573
900.879 76.89983897055967
933.105 77.01217749228245
965.332 76.16328819591418
1000.49 74.70005305315148
1035.64 76.36310121271858
1072.27 74.38624636521915
1108.89 74.71226724184172
1148.44 74.07526781777275
1189.45 73.29791519883827
1230.47 73.6392864896998
1274.41 72.65687329391024
1319.82 73.95820583231696
1366.7 72.79930364551637
1413.57 74.26231267445326
1463.38 73.34098383102113
1516.11 73.5335163373247
1568.85 72.54882473729857
1624.51 72.34304859376181
1681.64 72.68743004028111
1741.7 72.14098813709285
1803.22 72.00679951133344
1866.21 72.23151997020918
1932.13 71.8879203724027
1999.51 71.01823727844877
2069.82 70.23659078287466
2143.07 71.3869465157897
2219.24 71.35980325184525
2296.88 70.92931087338894
2378.91 70.55335238029494
2462.4 69.69558347923768
2548.83 69.96482894915114
2639.65 70.50242019220829
2731.93 69.54795855274848
2828.61 69.1222584152325
2928.22 67.40963200932798
3030.76 65.9451072817375
3137.7 65.33505789267105
3249.02 64.97196116302229
3363.28 63.85122762489462
3481.93 63.790299309736184
3604.98 64.06638553734749
3732.42 62.92446261130401
3864.26 63.557419806538135
4000.49 63.57852941114723
4141.11 63.272986779391275
4287.6 63.17889374137681
4438.48 62.85871424285362
4595.21 63.60581528025608
4756.35 62.63721867728799
4924.8 63.13383599125886
5097.66 62.10812288842709
5277.83 62.73950907660267
5463.87 62.02572805084833
5657.23 62.92881720514529
5856.45 63.03780258388069
6062.99 62.813291402288314
6276.86 63.27366803524049
6498.05 62.53879992792139
6726.56 62.99426696122204
6963.87 62.73669452097269
7209.96 62.72910698560921
7464.84 63.149290481761824
7727.05 63.61041235200301
7999.51 62.96502571421884
8282.23 61.30823638894779
8573.73 60.192654450469234
8876.95 59.11665772136686
9188.96 59.372242371690106
9514.16 59.444107138213695
9849.61 57.5007675389291
10196.8 56.89626662894642
10555.7 57.34714147028558
10927.7 57.61923188924192
11313.0 57.659322983524504
11712.9 57.15882352996522
12126.0 56.766364157758716
12553.7 56.958298740975124
12996.1 58.07062345605573
13454.6 59.597870005578926
13929.2 60.12779266490102
14419.9 59.82022817099718
14928.2 59.03068997766721
15455.6 58.373811684614566
16000.5 58.25050838272185
16564.5 57.72891616791392
17148.9 57.23037296229583
17752.4 56.35079958237401
18379.4 54.82373175929726
19026.9 54.341012561983035
19697.8 54.53977958398855
19999.5 53.7489600015256
