Freq "Estimated In-Room Response"
20.5078 48.91026581595868
21.9727 45.588970453601846
23.4375 51.518309722321064
24.9023 57.17792106825637
26.3672 61.383476642396246
27.832 65.52089373203277
29.2969 68.4677670239126
30.7617 71.56834265640538
32.2266 74.23503206091524
33.6914 76.602941401215
35.1562 78.8937348195161
36.6211 80.6717963689054
38.0859 81.81434332688403
39.5508 83.33473150351189
41.0156 84.3604592827563
42.4805 85.11090175408484
43.9453 85.84383689644397
45.4102 86.26533923361549
46.875 86.632083594217
48.3398 86.8957997963013
51.2695 87.23640079820426
52.7344 87.4281327869726
54.1992 87.55755636190422
55.6641 87.54413268617107
58.5938 87.74054718290917
60.0586 87.77586136552264
62.9883 87.80948768169785
64.4531 87.8635720483126
67.3828 88.02228722047785
68.8477 88.0807721283408
71.7773 88.13824333027917
74.707 88.04598049671573
77.6367 88.06099629299557
79.1016 88.0905754092609
82.0312 88.0527424720198
84.9609 87.9487960225394
87.8906 87.96180029020391
90.8203 88.10269415576755
95.2148 88.00652364916499
98.1445 87.90832571223652
101.074 87.78025611437475
105.469 87.65644587957019
108.398 87.5512245940625
112.793 87.3033062352876
117.188 86.9106378440015
120.117 87.01976151462189
124.512 87.1704964446866
128.906 87.05390474898432
133.301 86.8786815127936
139.16 86.59131312104222
143.555 86.20932727340912
147.949 86.37233788796209
153.809 86.34702909564382
159.668 85.5277383115588
165.527 85.08421539854558
171.387 84.86888918177699
177.246 86.56241866031864
183.105 86.45079800443736
188.965 86.29308648637779
196.289 86.49459497106717
203.613 86.28489974212839
210.938 86.61785602709037
218.262 87.00926732850805
225.586 87.13755240752417
232.91 86.87133999544449
241.699 87.36970816064897
250.488 87.06269576925048
259.277 87.24885456486682
268.066 87.68795187863243
276.855 86.65395960546265
287.109 86.15724998653876
297.363 85.95823934964862
307.617 85.30251584349534
319.336 84.56307073274657
329.59 84.5749834469825
341.309 84.59364060487982
353.027 84.99470028042926
366.211 85.31913000491599
379.395 84.84118512507767
392.578 85.34201348100422
405.762 85.8596386440315
420.41 85.92068560108044
435.059 85.81781326489893
451.172 86.02452101570022
465.82 86.0518309268184
483.398 86.22257314477001
499.512 85.69870603556998
517.09 86.01072717542401
536.133 86.12590642062214
555.176 86.15023165644006
574.219 85.80839913440775
594.727 86.01328242906688
615.234 85.72874629622346
637.207 86.14926005805093
659.18 85.56264487005954
682.617 85.86359649286649
707.52 85.56127691532453
732.422 85.33905433733891
757.324 85.49469031114981
785.156 85.25202483077082
811.523 85.59879484334333
840.82 85.96656219556682
870.117 86.01574792563765
900.879 85.54371116826998
933.105 85.32056776894179
965.332 85.051348788102
1000.49 85.24088254253006
1035.64 85.68570888517844
1072.27 85.90060240251005
1108.89 85.63420430117257
1148.44 85.8287211029519
1189.45 86.12433506626637
1230.47 85.91825724019198
1274.41 85.70595098065507
1319.82 85.86007260518898
1366.7 85.35192028831888
1413.57 85.29911546545564
1463.38 84.88761455062202
1516.11 84.44122428646358
1568.85 84.478620006439
1624.51 84.38775088379705
1681.64 84.16629787229878
1741.7 83.89357355501286
1803.22 84.38523878724628
1866.21 84.63676916826127
1932.13 84.28384652832901
1999.51 84.22403508290904
2069.82 84.55924429620758
2143.07 85.28799993814813
2219.24 85.29004089936143
2296.88 84.89293212355219
2378.91 84.7778494687565
2462.4 84.71003512763293
2548.83 84.18939499613782
2639.65 84.00476732510431
2731.93 83.90352639225527
2828.61 83.8752006924376
2928.22 83.35228121109344
3030.76 83.3976492824058
3137.7 83.27858021261818
3249.02 82.91369817958473
3363.28 83.02889907851741
3481.93 82.75235187277941
3604.98 83.06592625841925
3732.42 82.93256065768202
3864.26 83.40442257515075
4000.49 83.32201759044678
4141.11 84.16918022987353
4287.6 84.56731452195807
4438.48 85.10094075871706
4595.21 84.98163733143964
4756.35 84.38618964940245
4924.8 83.39705443725049
5097.66 82.39575561763044
5277.83 81.67199497919255
5463.87 82.14546250192099
5657.23 82.81774052266529
5856.45 83.59025352146124
6062.99 84.03461532559162
6276.86 84.38309540214786
6498.05 84.21553483140923
6726.56 84.53107720885622
6963.87 84.71009244016604
7209.96 85.0811879239513
7464.84 85.23761739732626
7727.05 85.19506381109593
7999.51 84.80108237794941
8282.23 84.17835432111922
8573.73 83.64540893553372
8876.95 83.23539545312012
9188.96 82.99691224119836
9514.16 82.85243821141013
9849.61 82.80998399496251
10196.8 83.10327526478835
10555.7 83.08394670866363
10927.7 83.13689312099304
11313.0 83.5179186887671
11712.9 83.87577479796222
12126.0 83.990792718718
12553.7 84.3900375790354
12996.1 85.44934509759625
13454.6 86.25735908703031
13929.2 86.30305827372523
14419.9 86.12185168561366
14928.2 85.50103685651868
15455.6 84.45620430339183
16000.5 83.49426458860873
16564.5 82.70991002251124
17148.9 81.74402487315945
17752.4 80.50734865106682
18379.4 79.88549901796907
19026.9 79.39085258271699
19697.8 78.55221559643623
19999.5 77.91452427519849
