Freq "Floor Bounce"
20.0 54.34989200000001
20.290899 54.976890999999995
20.586 55.590892999999994
20.8855 56.19089099999999
21.189301 56.771893000000006
21.497499 57.335892
21.8102 57.882892999999996
22.127399 58.414890000000014
22.4492 58.93289200000001
22.775801 59.437893
23.1071 59.93389100000002
23.443199 60.42089099999998
23.7841 60.90389299999998
24.1301 61.385891000000015
24.4811 61.86789300000001
24.8372 62.35089099999999
25.1984 62.837890999999985
25.564899 63.326893
25.9368 63.817890000000006
26.3141 64.309891
26.6968 64.80188799999999
27.0851 65.291893
27.479099 65.777893
27.878799 66.25988800000002
28.2843 66.735893
28.6957 67.20588699999999
29.1131 67.669891
29.536501 68.126892
29.966101 68.577888
30.402 69.022888
30.8442 69.461891
31.2929 69.968887
31.748 70.480888
32.209801 70.728889
32.678299 71.12489299999999
33.153599 71.511887
33.635899 71.87989000000002
34.125099 72.22088599999998
34.621498 72.53289
35.125 72.813889
35.635899 73.06089
36.154301 73.279892
36.680199 73.476891
37.213699 73.659889
37.755 73.83989
38.3041 74.028893
38.861301 74.232887
39.426498 74.456886
40.0 74.698891
40.581799 74.955887
41.1721 75.220886
41.771 75.488892
42.378502 75.75489
42.9949 76.01589199999998
43.6203 76.277893
44.254799 76.585892
44.898499 76.784889
45.551498 76.996887
46.2141 77.232887
46.886299 77.465889
47.568298 77.694893
48.260201 77.920891
48.962101 78.142891
49.674301 78.36189300000001
50.396801 78.57434058843045
51.129902 78.78275414234238
51.8736 78.98813169143725
52.628101 79.19147252528217
53.3936 79.39177697286486
54.1702 79.5890366880597
54.958099 79.78525699042724
55.7575 79.9784471825801
56.568501 80.21058293772371
57.391399 80.39568822860754
58.226101 80.5337474023862
59.073 80.70976509500076
59.932301 80.8767386054431
60.804 81.03567196915942
61.6884 81.18256114143325
62.585701 81.31740344101829
63.496 81.43519554985023
64.419601 81.53395142229557
65.356598 81.60964975237857
66.307297 81.66230648925412
67.271698 81.68891465901862
68.250198 81.69547689267803
69.242897 81.68098686642803
70.250099 81.6594495403364
71.271896 81.63686262045672
72.308601 81.6062200372946
73.360298 81.5705295268143
74.427399 81.52778067408819
75.509903 81.47297851552335
76.608299 81.40212136837239
77.722603 81.31221321142138
78.853104 81.202251066339
80.0 81.07322827533129
81.163597 80.91714780304822
82.3442 80.76100861914095
83.541901 80.62080844130863
84.757 80.51154725929041
85.989899 80.41022770706695
87.240601 80.34884681798648
88.509598 80.33740691380811
89.797 80.38189565584265
91.103104 80.48232805199046
92.4282 80.63468813636061
93.772598 80.85998887483115
95.136597 81.0852132735848
96.520401 81.30637267277285
97.924301 81.530469109983
99.348602 81.75848557575875
100.794 81.96843969673797
102.26 82.15731926243015
103.747 82.33012894351191
105.256 82.4908613119263
106.787 82.66051443384578
108.34 82.7991003763901
109.916 82.90059872042409
111.515 82.97802353815334
113.137 82.99537290281695
114.783 82.9356364047276
116.452 82.80682160536963
118.146 82.64292561768225
119.865 82.47693752593209
121.608 82.3738718950178
123.377 82.33571985163398
125.171 82.34048296427153
126.992 82.3851543703936
128.839 82.45173364231235
130.713 82.52122040205518
132.615 82.57061527801342
134.543 82.57592331755322
136.5 82.54513021160122
138.486 82.49124407278369
140.5 82.41925748220714
142.544 82.34217262068535
144.617 82.27799107391094
146.721 82.23170303555796
148.855 82.20032009616628
151.02 82.18582392264031
153.217 82.19522318943942
155.445 82.22851949264883
157.706 82.28870605801714
160.0 82.36178203312174
162.327 82.43774656762685
164.688 82.51559536247146
167.084 82.59733312701913
169.514 82.66895547450137
171.98 82.67945267601964
174.481 82.61683635108676
177.019 82.48109778703204
179.594 82.27823416901305
182.206 82.04824868478781
184.856 81.88713608724665
187.545 81.81789813897448
190.273 81.79452804637765
193.041 81.79902558668061
195.849 81.7983859775914
198.697 81.77461943983266
201.587 81.73271634430303
204.52 81.68166950484769
207.494 81.63649201402716
210.512 81.60915984930243
213.574 81.60769227100404
216.681 81.62407412661186
219.833 81.66231268990543
223.03 81.72139923843451
226.274 81.78033323319687
229.565 81.82310697222785
232.905 81.8107289460602
236.292 81.73620128139358
239.729 81.61450608473677
243.216 81.48565269118261
246.754 81.40563104371661
250.343 81.40443849367206
253.984 81.46708800517848
257.678 81.55656055678749
261.426 81.63686314178909
265.229 81.69198776853268
269.087 81.72992984283088
273.001 81.76769939645601
276.972 81.81528947701496
281.0 81.8716915225774
285.088 81.9299018621711
289.234 81.99192470769762
293.441 82.02876042467604
297.709 81.99740150815758
302.04 81.94683673866092
306.433 81.91108399932548
310.89 81.91012510426461
315.412 81.99396024973873
320.0 82.1135836511248
324.655 82.17800354328685
329.377 82.18121552376869
334.168 82.14120551850598
339.028 82.11797915952056
343.959 82.17553942032251
348.962 82.31087063862844
354.038 82.4739751739335
359.188 82.61184940790476
364.412 82.63649606494165
369.713 82.52690192849911
375.09 82.39308008596443
380.546 82.29101238159444
386.081 82.25770363064834
391.697 82.34314205360931
397.394 82.45133650847843
403.175 82.50827997838901
409.039 82.51696766829427
414.989 82.47938962878816
421.025 82.43255581944192
427.149 82.40346265202678
433.362 82.41009785789507
439.665 82.44182219691197
446.06 82.48154919001205
452.548 82.5119736677227
459.131 82.52311023111447
465.809 82.53258403937363
472.584 82.53846776373767
479.458 82.52487112420528
486.432 82.49047913280182
493.507 82.44620183444208
503.906 82.44620183444208
509.766 82.46304753067528
515.625 82.47860485471227
521.484 82.49317218420502
527.344 82.50721422515903
533.203 82.52132266634906
539.062 82.53598778428172
544.922 82.55176706553787
550.781 82.5690585089374
556.641 82.58837867857721
562.5 82.61001709092913
568.359 82.63428976907308
574.219 82.6613690304448
580.078 82.69128662093507
585.938 82.7240164359003
591.797 82.75927362637222
597.656 82.79691437349261
603.516 82.83653860489149
609.375 82.8777348274613
615.234 82.9200213830391
621.094 82.96295355394251
626.953 83.00592364207077
632.812 83.04855626031218
638.672 83.0903499727404
644.531 83.13090626943098
650.391 83.1699398693215
656.25 83.20710981053442
662.109 83.24230725608165
667.969 83.27534150024239
673.828 83.30629491998666
679.688 83.33523384854757
685.547 83.36225150324395
691.406 83.3876464641682
697.266 83.4116712437832
703.125 83.4346994225724
708.984 83.45702472142335
714.844 83.47912360846402
720.703 83.50144676823692
726.562 83.52427993767583
732.422 83.54809063311787
738.281 83.57312475761711
744.141 83.59976572916092
750.0 83.62810291279077
755.859 83.65838591853115
761.719 83.69060483217888
767.578 83.72480942154804
773.438 83.76085649191154
779.297 83.79860405834455
785.156 83.837889368611
791.016 83.87834984795875
796.875 83.91966286508809
802.734 83.96155078834599
808.594 84.00354475842806
814.453 84.045426637991
820.312 84.08673291577219
826.172 84.12717118258144
832.031 84.16646308482342
837.891 84.2224685919849
843.75 84.23990545364947
849.609 84.27443588723463
855.469 84.3071288454148
861.328 84.33798512919353
867.188 84.36701630739603
873.047 84.39428825148136
878.906 84.41990743521113
884.766 84.44413300463776
890.625 84.46703695041664
896.484 84.48892504730439
902.344 84.50998454990031
908.203 84.53049299990586
914.062 84.55065267381325
919.922 84.5707510472754
925.781 84.59089646912207
931.641 84.61135393476242
937.5 84.63219381090968
943.359 84.65357839575265
949.219 84.6754996183243
955.078 84.69800613944588
960.938 84.72109163103437
966.797 84.74455324106141
972.656 84.76842467590646
978.516 84.7925068892189
984.375 84.8166690901659
990.234 84.84077293351324
996.094 84.86455465143891
1001.95 84.88787211327762
1007.81 84.91063535070919
1013.67 84.9326722829267
1019.53 84.9538171952778
1025.39 84.97402993305903
1031.25 84.99321423596936
1037.11 85.01140338082291
1042.97 85.02862703084284
1048.83 85.04491909352674
1054.69 85.06037452898482
1060.55 85.075096139826
1066.41 85.08934828555293
1072.27 85.10319561926084
1078.12 85.11683688244241
1083.98 85.13060550960358
1089.84 85.14466649134557
1095.7 85.15921828764996
1101.56 85.17445981681615
1107.42 85.19055636048805
1113.28 85.2077417659014
1119.14 85.22618066122143
1125.0 85.24590568729631
1130.86 85.26701718765321
1136.72 85.2895451330466
1142.58 85.31345964207593
1148.44 85.33885625780354
1154.3 85.36550216889614
1160.16 85.39336555692888
1166.02 85.42234435608373
1171.88 85.4522053627561
1177.73 85.48284836383465
1183.59 85.51410581467404
1189.45 85.54574275002902
1195.31 85.57759612277238
1201.17 85.60952902882694
1207.03 85.64134326498754
1212.89 85.67293764793448
1218.75 85.70417856308642
1224.61 85.73489892247925
1230.47 85.76516390069796
1236.33 85.79484154901554
1242.19 85.82396389269216
1248.05 85.85249747377036
1253.91 85.88047555978281
1259.77 85.90799617525673
1265.62 85.93505982196513
1271.48 85.96176331838028
1277.34 85.98824439644015
1283.2 86.01442956992227
1289.06 86.0406207190174
1294.92 86.06665227928976
1300.78 86.09278981014342
1306.64 86.11892906720091
1312.5 86.14510784222507
1318.36 86.1713870559729
1324.22 86.19770461013862
1330.08 86.22399111077252
1335.94 86.2502454294065
1341.8 86.27626690353381
1347.66 86.30205891353589
1353.52 86.32741672765083
1359.38 86.35220894384123
1365.23 86.37633500345662
1371.09 86.3995940123354
1376.95 86.4218854368975
1382.81 86.44304328017968
1388.67 86.46293653605977
1394.53 86.48152590879636
1400.39 86.49861462882274
1406.25 86.51420269502304
1412.11 86.52821995444864
1417.97 86.54066591847675
1423.83 86.55150994808953
1429.69 86.56078183183098
1435.55 86.56851647175887
1441.41 86.57484362797234
1447.27 86.57979746515754
1453.12 86.58347848000432
1458.98 86.58601639101579
1464.84 86.58744541290662
1470.7 86.5880007386643
1476.56 86.58771105188787
1482.42 86.5867424721745
1488.28 86.5851695414544
1494.14 86.5830806088476
1500.0 86.58045238043383
1505.86 86.57744327054473
1511.72 86.57402908370149
1517.58 86.5701740352805
1523.44 86.56590776587723
1529.3 86.56110628654366
1535.16 86.55582785103084
1541.02 86.5498437946916
1546.88 86.54319332202556
1552.73 86.53560134845075
1558.59 86.5271083422108
1564.45 86.51754878241542
1570.31 86.50685363569053
1576.17 86.49479190080157
1582.03 86.48139454682399
1587.89 86.4664960743231
1593.75 86.45003100347762
1599.61 86.43203644837749
1605.47 86.4123704549036
1611.33 86.3911046406272
1617.19 86.36823773210637
1623.05 86.34380063307599
1628.91 86.31782914218442
1634.77 86.29038615467499
1640.62 86.26156794149622
1646.48 86.23147942963845
1652.34 86.2002218454879
1658.2 86.16791725588931
1664.06 86.13460770008689
1669.92 86.10048814398165
1675.78 86.06565856562032
1681.64 86.0301523150035
1687.5 85.99407187127008
1693.36 85.95758018691929
1699.22 85.92061311839257
1705.08 85.88326571807873
1710.94 85.84554801656114
1716.8 85.80752546642623
1722.66 85.76912152613613
1728.52 85.73034868502288
1734.38 85.69116990406722
1740.23 85.65158649986535
1746.09 85.61149238793054
1751.95 85.57099865024006
1757.81 85.52990047109705
1763.67 85.48826691371411
1769.53 85.4460635036764
1775.39 85.40328422881815
1781.25 85.35990680044983
1787.11 85.31608944385272
1792.97 85.27173691461684
1798.83 85.22697574456029
1804.69 85.18187954253264
1810.55 85.13653920285408
1816.41 85.0910608385647
1822.27 85.04570885866816
1828.12 85.00041335468666
1833.98 84.95547899600358
1839.84 84.91103294846064
1845.7 84.86724564935506
1851.56 84.82425029797322
1857.42 84.78217448760627
1863.28 84.74126279706803
1869.14 84.70157017016058
1875.0 84.6632082776884
1880.86 84.62633790935396
1886.72 84.5909619955478
1892.58 84.55717873874843
1898.44 84.5250318774576
1904.3 84.49444674648171
1910.16 84.4654630262022
1916.02 84.43808097497418
1921.88 84.41216524158416
1927.73 84.38775498143303
1933.59 84.36461641137006
1939.45 84.34278155919434
1945.31 84.32208591508422
1951.17 84.30246493246892
1957.03 84.28378098635581
1962.89 84.26600302868312
1968.75 84.24896164682312
1974.61 84.2326277127705
1980.47 84.2169969686405
1986.33 84.20193561713347
1992.19 84.18744344252906
1998.05 84.17358683679987
2003.91 84.16019704122708
2009.77 84.14750716149621
2015.62 84.13545054471027
2021.48 84.12409179447396
2027.34 84.11352903437651
2033.2 84.10379975888887
2039.06 84.09499836831326
2044.92 84.08723087968539
2050.78 84.0805568368273
2056.64 84.07504534106616
2062.5 84.07083556922198
2068.36 84.06785605731565
2074.22 84.06620898989328
2080.08 84.0659634127439
2085.94 84.06708318305212
2091.8 84.06953880805698
2097.66 84.0732988288014
2103.52 84.07833034793234
2109.38 84.0846322827459
2115.23 84.09197445219542
2121.09 84.10032490960916
2126.95 84.10958266604558
2132.81 84.11958223335984
2138.67 84.13025713829003
2144.53 84.14144270356942
2150.39 84.15297112426393
2156.25 84.1647431832455
2162.11 84.1766578172005
2167.97 84.188649040459
2173.83 84.20051662422249
2179.69 84.21222617861042
2185.55 84.22374555362615
2191.41 84.23500601038967
2197.27 84.24590887131633
2203.12 84.25648558419377
2208.98 84.26680323021758
2214.84 84.27676101109437
2220.7 84.2864588231015
2226.56 84.29592955677455
2232.42 84.30513984617409
2238.28 84.31422304538421
2244.14 84.32317913716213
2250.0 84.33207457775654
2255.86 84.34091003907393
2261.72 84.34981893798627
2267.58 84.35873533680464
2273.44 84.36769373960222
2279.3 84.37669441572798
2285.16 84.38577164696976
2291.02 84.39482742214561
2296.88 84.40389579388767
2302.73 84.41284529683013
2308.59 84.42167649223202
2314.45 84.43025910767031
2320.31 84.43859492657627
2326.17 84.44655235384226
2332.03 84.4540337080203
2337.89 84.46097294148014
2343.75 84.46730985474392
2349.61 84.47294248629586
2355.47 84.47780866568276
2361.33 84.48184685679448
2367.19 84.48505570128552
2373.05 84.48740733537491
2378.91 84.48890286188725
2384.77 84.48951685583903
2390.62 84.48928072196955
2396.48 84.48833439763604
2402.34 84.48664576602307
2408.2 84.48435380057629
2414.06 84.48149226636848
2419.92 84.47823142754577
2425.78 84.47457468805248
2431.64 84.47075842979014
2437.5 84.46674962616366
2443.36 84.46278810247503
2449.22 84.45889978189145
2455.08 84.45519115844137
2460.94 84.45169073832619
2466.8 84.44857056110027
2472.66 84.44575804750954
2478.52 84.44335472655193
2484.38 84.44132110833696
2490.23 84.43965598436088
2496.09 84.43835653353477
2501.95 84.43734644084999
2507.81 84.43628326400687
2513.67 84.43566491896394
2519.53 84.43535158807317
2525.39 84.43470089218019
2531.25 84.43391901926095
2537.11 84.43289988965022
2542.97 84.43154176867723
2548.83 84.42978251055928
2554.69 84.42746408106669
2560.55 84.4245344770079
2566.41 84.42095394541151
2572.27 84.4166878234006
2578.12 84.41159442034538
2583.98 84.40573875535372
2589.84 84.39903250671622
2595.7 84.39156078971781
2601.56 84.38326938262759
2607.42 84.3742832032262
2613.28 84.36450061355293
2619.14 84.35410885357105
2625.0 84.34311765358774
2630.86 84.33154094206188
2636.72 84.31954317139609
2642.58 84.30712403426621
2648.44 84.29425589646868
2654.3 84.28117151921845
2660.16 84.26776810651394
2666.02 84.25412140904211
2671.88 84.24028743945807
2677.73 84.22622287049764
2683.59 84.2119543117386
2689.45 84.19737858025928
2695.31 84.18260494253461
2701.17 84.16747458353578
2707.03 84.15194580959654
2712.89 84.13603609678314
2718.75 84.1195527713018
2724.61 84.10252366385937
2730.47 84.08479811469468
2736.33 84.06637677844907
2742.19 84.04713711243662
2748.05 84.02702221358638
2753.91 84.00601043757656
2759.77 83.98402636597392
2765.62 83.96106824916639
2771.48 83.93709099205198
2777.34 83.91210917328361
2783.2 83.8861253129897
2789.06 83.85916248350118
2794.92 83.8313536467525
2800.78 83.80255931769257
2806.64 83.77306093196316
2812.5 83.74274841045558
2818.36 83.71186143345085
2824.22 83.68029031432732
2830.08 83.64833151333082
2835.94 83.61591866393044
2841.8 83.5832354120325
2847.66 83.55027834562061
2853.52 83.51717284790956
2859.38 83.48392343613375
2865.23 83.45057919710712
2871.09 83.41729155924374
2876.95 83.38390965153377
2882.81 83.3505384501029
2888.67 83.31716326311675
2894.53 83.28370818497186
2900.39 83.25023859607599
2906.25 83.21666954621237
2912.11 83.18294951228572
2917.97 83.14897479328886
2923.83 83.11477445302894
2929.69 83.0802811810861
2935.55 83.04540062294791
2941.41 83.01014442628012
2947.27 82.97439368162922
2953.12 82.93825439640581
2958.98 82.90155594568981
2964.84 82.86438177738961
2970.7 82.82673935067302
2976.56 82.7886046428396
2982.42 82.75003252638575
2988.28 82.71113180730012
2994.14 82.67184307630345
3000.0 82.63232258591022
3005.86 82.5926125900886
3011.72 82.55283626325908
3017.58 82.51300053225873
3023.44 82.47321230892362
3029.3 82.4335623495371
3035.16 82.3941878298893
3041.02 82.35504383864397
3046.88 82.31630439318612
3052.73 82.27792009930273
3058.59 82.23992610234663
3064.45 82.20236369628856
3070.31 82.16524586238657
3076.17 82.1285323904784
3082.03 82.09215015445234
3087.89 82.05607227129458
3093.75 82.02026936092386
3099.61 81.98460966261138
3105.47 81.94904162678432
3111.33 81.91338874014535
3117.19 81.87761904082683
3123.05 81.84163204157542
3128.91 81.80528824263138
3134.77 81.76850178812862
3140.62 81.73113151914123
3146.48 81.69321394323148
3152.34 81.6545541076366
3158.2 81.61516976392147
3164.06 81.57496683329644
3169.92 81.53392983667194
3175.78 81.4920878238926
3181.64 81.4493706818547
3187.5 81.40586731714365
3193.36 81.36152791496605
3199.22 81.31655153868566
3205.08 81.27077936490468
3210.94 81.22446945851453
3216.8 81.1775897634124
3222.66 81.13023956203986
3228.52 81.08247850700924
3234.38 81.03446528430615
3240.23 80.98611603170667
3246.09 80.93765074792896
3251.95 80.88909387694312
3257.81 80.84039451656035
3263.67 80.7916752549284
3269.53 80.74292541805013
3275.39 80.69410874015028
3281.25 80.64529089141688
3287.11 80.59639298470495
3292.97 80.54749896627851
3298.83 80.4984243383166
3304.69 80.44919499333677
3310.55 80.39984137313839
3316.41 80.35011046899524
3322.27 80.3000928498127
3328.12 80.24979180300173
3333.98 80.19898504431401
3339.84 80.14782975564611
3345.7 80.09617948513328
3351.56 80.04403952332504
3357.42 79.99141324319405
3363.28 79.9383238937082
3369.14 79.88484434036248
3375.0 79.83089513008801
3380.86 79.77665780184412
3386.72 79.72212968897574
3392.58 79.66736051487462
3398.44 79.61247103535855
3404.3 79.5575284397072
3410.16 79.5026556019911
3416.02 79.44786911861777
3421.88 79.39337095523716
3427.73 79.33905261548384
3433.59 79.28515884335214
3439.45 79.23165914375265
3445.31 79.17869985179331
3451.17 79.12613238929674
3457.03 79.07414379910753
3462.89 79.02260348839552
3468.75 78.97150050633755
3474.61 78.92094563315774
3480.47 78.87067790431837
3486.33 78.82070685105846
3492.19 78.77104016792573
3498.05 78.72148784322724
3503.91 78.67188105084605
3509.77 78.62235730422388
3515.62 78.57259830913469
3521.48 78.52258978925701
3527.34 78.47231993425396
3533.2 78.42160335225097
3539.06 78.37043408377166
3544.92 78.31872970994573
3550.78 78.26648864716756
3556.64 78.21371311789706
3562.5 78.1604460245093
3568.36 78.10667173751237
3574.22 78.05249618562287
3580.08 77.99786272581098
3585.94 77.94297653852576
3591.8 77.88784618053705
3597.66 77.83261871379888
3603.52 77.77750999278754
3609.38 77.72255817684234
3615.23 77.66793423892196
3621.09 77.61374344364232
3626.95 77.56023761177924
3632.81 77.50747869418942
3638.67 77.45549526658773
3644.53 77.40453955024182
3650.39 77.35463252983055
3656.25 77.30582207014405
3662.11 77.25813721035914
3667.97 77.2117315193818
3673.83 77.16651738862129
3679.69 77.12254416272856
3685.55 77.07983213421161
3691.41 77.0382402069344
3697.27 76.99786479447542
3703.12 76.95866960517786
3708.98 76.9205750757697
3714.84 76.88343434742606
3720.7 76.84745156451001
3726.56 76.81239862362888
3732.42 76.77847011752051
3738.28 76.74545079930137
3744.14 76.71345486281817
3750.0 76.68259638786228
3755.86 76.65284102890529
3761.72 76.62421502744425
3767.58 76.5968334666639
3773.44 76.57082033802473
3779.3 76.54629243722505
