Freq "Floor Bounce"
20.0 54.349892
20.290899 54.97689100000001
20.586 55.59089300000001
20.8855 56.19089100000001
21.189301 56.77189299999999
21.497499 57.33589199999999
21.8102 57.88289300000001
22.127399 58.41489
22.4492 58.932891999999995
22.775801 59.43789300000002
23.1071 59.933891
23.443199 60.420891
23.7841 60.903893
24.1301 61.385891
24.4811 61.867892999999995
24.8372 62.350891000000004
25.1984 62.837891
25.564899 63.326893
25.9368 63.81788999999999
26.3141 64.30989100000001
26.6968 64.801888
27.0851 65.291893
27.479099 65.77789300000002
27.878799 66.259888
28.2843 66.735893
28.6957 67.205887
29.1131 67.669891
29.536501 68.126892
29.966101 68.577888
30.402 69.022888
30.8442 69.461891
31.2929 69.968887
31.748 70.480888
32.209801 70.728889
32.678299 71.124893
33.153599 71.51188700000002
33.635899 71.87989
34.125099 72.220886
34.621498 72.53289
35.125 72.813889
35.635899 73.06089
36.154301 73.279892
36.680199 73.47689099999998
37.213699 73.659889
37.755 73.83989
38.3041 74.028893
38.861301 74.232887
39.426498 74.45688599999998
40.0 74.698891
40.581799 74.955887
41.1721 75.220886
41.771 75.488892
42.378502 75.75489
42.9949 76.015892
43.6203 76.277893
44.254799 76.585892
44.898499 76.784889
45.551498 76.996887
46.2141 77.23288699999999
46.886299 77.46588900000002
47.568298 77.694893
48.260201 77.920891
48.962101 78.142891
49.674301 78.361893
50.396801 78.57434058843046
51.129902 78.78275414234238
51.8736 78.98813169143723
52.628101 79.19147252528218
53.3936 79.39177697286488
54.1702 79.58903668805972
54.958099 79.78525699042724
55.7575 79.97844718258008
56.568501 80.2105829377237
57.391399 80.39568822860754
58.226101 80.53374740238621
59.073 80.70976509500076
59.932301 80.8767386054431
60.804 81.03567196915942
61.6884 81.18256114143327
62.585701 81.31740344101827
63.496 81.43519554985023
64.419601 81.53395142229556
65.356598 81.60964975237859
66.307297 81.66230648925414
67.271698 81.68891465901862
68.250198 81.69547689267803
69.242897 81.68098686642803
70.250099 81.65944954033641
71.271896 81.63686262045672
72.308601 81.60622003729459
73.360298 81.57052952681431
74.427399 81.52778067408818
75.509903 81.47297851552335
76.608299 81.40212136837239
77.722603 81.3122132114214
78.853104 81.202251066339
80.0 81.07322827533129
81.163597 80.91714780304824
82.3442 80.76100861914097
83.541901 80.62080844130863
84.757 80.51154725929042
85.989899 80.41022770706697
87.240601 80.34884681798648
88.509598 80.33740691380812
89.797 80.38189565584265
91.103104 80.48232805199046
92.4282 80.63468813636062
93.772598 80.85998887483113
95.136597 81.0852132735848
96.520401 81.30637267277285
97.924301 81.530469109983
99.348602 81.75848557575875
100.794 81.96843969673797
102.26 82.15731926243015
103.747 82.33012894351191
105.256 82.49086131192628
106.787 82.66051443384579
108.34 82.7991003763901
109.916 82.90059872042407
111.515 82.97802353815334
113.137 82.99537290281695
114.783 82.93563640472762
116.452 82.80682160536965
118.146 82.64292561768225
119.865 82.47693752593209
121.608 82.3738718950178
123.377 82.33571985163398
125.171 82.34048296427154
126.992 82.3851543703936
128.839 82.45173364231235
130.713 82.52122040205519
132.615 82.57061527801342
134.543 82.57592331755323
136.5 82.5451302116012
138.486 82.49124407278369
140.5 82.41925748220714
142.544 82.34217262068533
144.617 82.27799107391094
146.721 82.23170303555796
148.855 82.20032009616628
151.02 82.18582392264032
153.217 82.19522318943943
155.445 82.22851949264883
157.706 82.28870605801714
160.0 82.36178203312174
162.327 82.43774656762686
164.688 82.51559536247144
167.084 82.59733312701911
169.514 82.66895547450139
171.98 82.67945267601964
174.481 82.61683635108675
177.019 82.48109778703206
179.594 82.27823416901303
182.206 82.0482486847878
184.856 81.88713608724665
187.545 81.81789813897448
190.273 81.79452804637766
193.041 81.7990255866806
195.849 81.7983859775914
198.697 81.77461943983266
201.587 81.73271634430303
204.52 81.68166950484768
207.494 81.63649201402716
210.512 81.60915984930242
213.574 81.60769227100404
216.681 81.62407412661186
219.833 81.66231268990542
223.03 81.72139923843451
226.274 81.78033323319686
229.565 81.82310697222785
232.905 81.81072894606018
236.292 81.73620128139358
239.729 81.61450608473679
243.216 81.48565269118261
246.754 81.40563104371661
250.343 81.40443849367207
253.984 81.46708800517848
257.678 81.55656055678749
261.426 81.6368631417891
265.229 81.69198776853268
269.087 81.72992984283088
273.001 81.76769939645602
276.972 81.81528947701494
281.0 81.87169152257738
285.088 81.92990186217109
289.234 81.9919247076976
293.441 82.02876042467604
297.709 81.99740150815758
302.04 81.94683673866092
306.433 81.9110839993255
310.89 81.9101251042646
315.412 81.99396024973872
320.0 82.1135836511248
324.655 82.17800354328686
329.377 82.1812155237687
334.168 82.14120551850597
339.028 82.11797915952054
343.959 82.17553942032252
348.962 82.31087063862843
354.038 82.4739751739335
359.188 82.61184940790477
364.412 82.63649606494167
369.713 82.5269019284991
375.09 82.39308008596444
380.546 82.29101238159444
386.081 82.25770363064835
391.697 82.3431420536093
397.394 82.45133650847843
403.175 82.50827997838903
409.039 82.51696766829427
414.989 82.47938962878816
421.025 82.43255581944193
427.149 82.40346265202679
433.362 82.41009785789507
439.665 82.44182219691197
446.06 82.48154919001205
452.548 82.51197366772271
459.131 82.52311023111447
465.809 82.53258403937363
472.584 82.53846776373767
479.458 82.52487112420529
486.432 82.49047913280184
493.507 82.44620183444209
503.906 82.44620183444209
509.766 82.46304753067527
515.625 82.47860485471227
521.484 82.49317218420501
527.344 82.50721422515905
533.203 82.52132266634906
539.062 82.5359877842817
544.922 82.55176706553787
550.781 82.5690585089374
556.641 82.58837867857721
562.5 82.61001709092915
568.359 82.63428976907306
574.219 82.66136903044482
580.078 82.69128662093506
585.938 82.7240164359003
591.797 82.7592736263722
597.656 82.79691437349261
603.516 82.8365386048915
609.375 82.87773482746131
615.234 82.9200213830391
621.094 82.96295355394251
626.953 83.00592364207075
632.812 83.0485562603122
638.672 83.09034997274038
644.531 83.13090626943098
650.391 83.16993986932151
656.25 83.20710981053442
662.109 83.24230725608165
667.969 83.27534150024239
673.828 83.30629491998664
679.688 83.33523384854757
685.547 83.36225150324394
691.406 83.38764646416818
697.266 83.41167124378322
703.125 83.4346994225724
708.984 83.45702472142335
714.844 83.47912360846401
720.703 83.50144676823693
726.562 83.52427993767583
732.422 83.54809063311787
738.281 83.57312475761712
744.141 83.59976572916094
750.0 83.62810291279077
755.859 83.65838591853115
761.719 83.69060483217886
767.578 83.72480942154806
773.438 83.76085649191153
779.297 83.79860405834455
785.156 83.83788936861102
791.016 83.87834984795873
796.875 83.9196628650881
802.734 83.96155078834597
808.594 84.00354475842805
814.453 84.04542663799099
820.312 84.08673291577217
826.172 84.12717118258144
832.031 84.1664630848234
837.891 84.22246859198492
843.75 84.23990545364946
849.609 84.27443588723462
855.469 84.3071288454148
861.328 84.33798512919351
867.188 84.36701630739603
873.047 84.39428825148134
878.906 84.41990743521113
884.766 84.44413300463776
890.625 84.46703695041663
896.484 84.48892504730438
902.344 84.50998454990032
908.203 84.53049299990587
914.062 84.55065267381325
919.922 84.57075104727538
925.781 84.59089646912206
931.641 84.61135393476242
937.5 84.6321938109097
943.359 84.65357839575266
949.219 84.6754996183243
955.078 84.6980061394459
960.938 84.72109163103438
966.797 84.74455324106141
972.656 84.76842467590647
978.516 84.79250688921891
984.375 84.81666909016592
990.234 84.84077293351324
996.094 84.8645546514389
1001.95 84.88787211327761
1007.81 84.91063535070919
1013.67 84.93267228292672
1019.53 84.95381719527778
1025.39 84.97402993305903
1031.25 84.99321423596936
1037.11 85.01140338082291
1042.97 85.02862703084286
1048.83 85.04491909352673
1054.69 85.06037452898481
1060.55 85.07509613982602
1066.41 85.08934828555294
1072.27 85.10319561926083
1078.12 85.1168368824424
1083.98 85.13060550960358
1089.84 85.14466649134559
1095.7 85.15921828764995
1101.56 85.17445981681615
1107.42 85.19055636048803
1113.28 85.20774176590142
1119.14 85.22618066122142
1125.0 85.24590568729631
1130.86 85.26701718765322
1136.72 85.2895451330466
1142.58 85.31345964207593
1148.44 85.33885625780356
1154.3 85.36550216889614
1160.16 85.39336555692888
1166.02 85.42234435608371
1171.88 85.45220536275609
1177.73 85.48284836383465
1183.59 85.51410581467405
1189.45 85.54574275002904
1195.31 85.57759612277238
1201.17 85.60952902882696
1207.03 85.64134326498755
1212.89 85.67293764793448
1218.75 85.70417856308643
1224.61 85.73489892247926
1230.47 85.76516390069797
1236.33 85.79484154901554
1242.19 85.82396389269216
1248.05 85.85249747377034
1253.91 85.8804755597828
1259.77 85.90799617525674
1265.62 85.93505982196514
1271.48 85.96176331838029
1277.34 85.98824439644015
1283.2 86.01442956992227
1289.06 86.04062071901738
1294.92 86.06665227928976
1300.78 86.0927898101434
1306.64 86.11892906720091
1312.5 86.14510784222509
1318.36 86.17138705597291
1324.22 86.19770461013862
1330.08 86.2239911107725
1335.94 86.25024542940649
1341.8 86.27626690353381
1347.66 86.3020589135359
1353.52 86.32741672765084
1359.38 86.35220894384123
1365.23 86.37633500345662
1371.09 86.3995940123354
1376.95 86.42188543689748
1382.81 86.44304328017967
1388.67 86.46293653605977
1394.53 86.48152590879634
1400.39 86.49861462882272
1406.25 86.51420269502303
1412.11 86.52821995444866
1417.97 86.54066591847673
1423.83 86.55150994808953
1429.69 86.56078183183095
1435.55 86.56851647175885
1441.41 86.57484362797234
1447.27 86.57979746515755
1453.12 86.5834784800043
1458.98 86.5860163910158
1464.84 86.5874454129066
1470.7 86.58800073866429
1476.56 86.58771105188787
1482.42 86.58674247217452
1488.28 86.5851695414544
1494.14 86.58308060884761
1500.0 86.58045238043384
1505.86 86.57744327054472
1511.72 86.5740290837015
1517.58 86.5701740352805
1523.44 86.56590776587721
1529.3 86.56110628654366
1535.16 86.55582785103084
1541.02 86.5498437946916
1546.88 86.54319332202557
1552.73 86.53560134845075
1558.59 86.5271083422108
1564.45 86.5175487824154
1570.31 86.50685363569052
1576.17 86.49479190080156
1582.03 86.48139454682399
1587.89 86.4664960743231
1593.75 86.45003100347762
1599.61 86.43203644837747
1605.47 86.41237045490358
1611.33 86.3911046406272
1617.19 86.36823773210637
1623.05 86.343800633076
1628.91 86.31782914218444
1634.77 86.290386154675
1640.62 86.26156794149621
1646.48 86.23147942963845
1652.34 86.20022184548792
1658.2 86.16791725588931
1664.06 86.13460770008687
1669.92 86.10048814398166
1675.78 86.06565856562034
1681.64 86.03015231500349
1687.5 85.99407187127007
1693.36 85.9575801869193
1699.22 85.92061311839258
1705.08 85.88326571807873
1710.94 85.84554801656112
1716.8 85.80752546642621
1722.66 85.76912152613613
1728.52 85.73034868502289
1734.38 85.69116990406722
1740.23 85.65158649986535
1746.09 85.61149238793055
1751.95 85.57099865024007
1757.81 85.52990047109704
1763.67 85.48826691371413
1769.53 85.4460635036764
1775.39 85.40328422881814
1781.25 85.35990680044985
1787.11 85.31608944385273
1792.97 85.27173691461682
1798.83 85.22697574456032
1804.69 85.18187954253263
1810.55 85.13653920285408
1816.41 85.09106083856472
1822.27 85.04570885866816
1828.12 85.00041335468664
1833.98 84.95547899600358
1839.84 84.91103294846063
1845.7 84.86724564935507
1851.56 84.82425029797324
1857.42 84.78217448760628
1863.28 84.74126279706805
1869.14 84.7015701701606
1875.0 84.66320827768838
1880.86 84.62633790935398
1886.72 84.59096199554779
1892.58 84.55717873874845
1898.44 84.5250318774576
1904.3 84.49444674648173
1910.16 84.46546302620219
1916.02 84.43808097497417
1921.88 84.41216524158418
1927.73 84.38775498143305
1933.59 84.36461641137006
1939.45 84.34278155919434
1945.31 84.32208591508423
1951.17 84.30246493246894
1957.03 84.28378098635581
1962.89 84.2660030286831
1968.75 84.2489616468231
1974.61 84.2326277127705
1980.47 84.21699696864052
1986.33 84.20193561713347
1992.19 84.18744344252907
1998.05 84.17358683679986
2003.91 84.1601970412271
2009.77 84.14750716149622
2015.62 84.13545054471027
2021.48 84.12409179447394
2027.34 84.11352903437653
2033.2 84.10379975888887
2039.06 84.09499836831327
2044.92 84.08723087968539
2050.78 84.0805568368273
2056.64 84.07504534106614
2062.5 84.070835569222
2068.36 84.06785605731564
2074.22 84.0662089898933
2080.08 84.06596341274391
2085.94 84.06708318305213
2091.8 84.06953880805699
2097.66 84.0732988288014
2103.52 84.07833034793234
2109.38 84.0846322827459
2115.23 84.09197445219543
2121.09 84.10032490960914
2126.95 84.1095826660456
2132.81 84.11958223335984
2138.67 84.13025713829005
2144.53 84.14144270356942
2150.39 84.15297112426393
2156.25 84.16474318324552
2162.11 84.1766578172005
2167.97 84.188649040459
2173.83 84.2005166242225
2179.69 84.21222617861041
2185.55 84.22374555362615
2191.41 84.23500601038967
2197.27 84.24590887131633
2203.12 84.25648558419375
2208.98 84.26680323021756
2214.84 84.27676101109438
2220.7 84.28645882310148
2226.56 84.29592955677455
2232.42 84.30513984617407
2238.28 84.31422304538422
2244.14 84.32317913716211
2250.0 84.33207457775653
2255.86 84.34091003907393
2261.72 84.34981893798627
2267.58 84.35873533680463
2273.44 84.36769373960223
2279.3 84.37669441572798
2285.16 84.38577164696977
2291.02 84.39482742214561
2296.88 84.40389579388766
2302.73 84.41284529683013
2308.59 84.42167649223201
2314.45 84.43025910767032
2320.31 84.43859492657629
2326.17 84.44655235384225
2332.03 84.45403370802032
2337.89 84.46097294148014
2343.75 84.4673098547439
2349.61 84.47294248629586
2355.47 84.47780866568277
2361.33 84.48184685679449
2367.19 84.48505570128552
2373.05 84.48740733537491
2378.91 84.48890286188727
2384.77 84.48951685583903
2390.62 84.48928072196956
2396.48 84.48833439763602
2402.34 84.48664576602307
2408.2 84.48435380057629
2414.06 84.48149226636849
2419.92 84.47823142754578
2425.78 84.4745746880525
2431.64 84.47075842979014
2437.5 84.46674962616366
2443.36 84.46278810247503
2449.22 84.45889978189143
2455.08 84.45519115844135
2460.94 84.4516907383262
2466.8 84.44857056110025
2472.66 84.44575804750953
2478.52 84.44335472655193
2484.38 84.44132110833698
2490.23 84.43965598436087
2496.09 84.43835653353476
2501.95 84.43734644084998
2507.81 84.43628326400689
2513.67 84.43566491896392
2519.53 84.43535158807317
2525.39 84.4347008921802
2531.25 84.43391901926097
2537.11 84.4328998896502
2542.97 84.43154176867723
2548.83 84.42978251055929
2554.69 84.42746408106669
2560.55 84.4245344770079
2566.41 84.42095394541151
2572.27 84.4166878234006
2578.12 84.41159442034538
2583.98 84.40573875535371
2589.84 84.39903250671624
2595.7 84.39156078971781
2601.56 84.38326938262759
2607.42 84.3742832032262
2613.28 84.36450061355295
2619.14 84.35410885357105
2625.0 84.34311765358773
2630.86 84.33154094206188
2636.72 84.31954317139609
2642.58 84.30712403426622
2648.44 84.29425589646867
2654.3 84.28117151921845
2660.16 84.26776810651394
2666.02 84.25412140904213
2671.88 84.24028743945809
2677.73 84.22622287049762
2683.59 84.21195431173858
2689.45 84.19737858025927
2695.31 84.18260494253461
2701.17 84.16747458353576
2707.03 84.15194580959654
2712.89 84.13603609678314
2718.75 84.1195527713018
2724.61 84.10252366385939
2730.47 84.08479811469468
2736.33 84.06637677844905
2742.19 84.0471371124366
2748.05 84.02702221358636
2753.91 84.00601043757658
2759.77 83.98402636597392
2765.62 83.9610682491664
2771.48 83.93709099205198
2777.34 83.91210917328362
2783.2 83.8861253129897
2789.06 83.8591624835012
2794.92 83.8313536467525
2800.78 83.80255931769257
2806.64 83.77306093196316
2812.5 83.74274841045558
2818.36 83.71186143345085
2824.22 83.68029031432732
2830.08 83.6483315133308
2835.94 83.61591866393046
2841.8 83.58323541203248
2847.66 83.55027834562061
2853.52 83.51717284790956
2859.38 83.48392343613375
2865.23 83.4505791971071
2871.09 83.41729155924374
2876.95 83.38390965153377
2882.81 83.35053845010292
2888.67 83.31716326311677
2894.53 83.28370818497184
2900.39 83.25023859607599
2906.25 83.21666954621236
2912.11 83.18294951228572
2917.97 83.14897479328883
2923.83 83.11477445302894
2929.69 83.08028118108608
2935.55 83.04540062294791
2941.41 83.01014442628012
2947.27 82.97439368162924
2953.12 82.93825439640581
2958.98 82.9015559456898
2964.84 82.8643817773896
2970.7 82.82673935067304
2976.56 82.78860464283962
2982.42 82.75003252638577
2988.28 82.71113180730012
2994.14 82.67184307630343
3000.0 82.63232258591022
3005.86 82.59261259008862
3011.72 82.55283626325907
3017.58 82.51300053225873
3023.44 82.47321230892364
3029.3 82.43356234953708
3035.16 82.3941878298893
3041.02 82.35504383864397
3046.88 82.31630439318612
3052.73 82.27792009930275
3058.59 82.23992610234662
3064.45 82.20236369628857
3070.31 82.16524586238658
3076.17 82.12853239047841
3082.03 82.09215015445234
3087.89 82.0560722712946
3093.75 82.02026936092386
3099.61 81.98460966261136
3105.47 81.94904162678434
3111.33 81.91338874014534
3117.19 81.87761904082683
3123.05 81.84163204157542
3128.91 81.80528824263136
3134.77 81.76850178812863
3140.62 81.73113151914121
3146.48 81.69321394323147
3152.34 81.65455410763661
3158.2 81.61516976392147
3164.06 81.57496683329644
3169.92 81.53392983667194
3175.78 81.49208782389259
3181.64 81.44937068185469
3187.5 81.40586731714363
3193.36 81.36152791496605
3199.22 81.31655153868566
3205.08 81.27077936490467
3210.94 81.22446945851455
3216.8 81.1775897634124
3222.66 81.13023956203986
3228.52 81.08247850700926
3234.38 81.03446528430615
3240.23 80.98611603170666
3246.09 80.93765074792897
3251.95 80.88909387694312
3257.81 80.84039451656035
3263.67 80.7916752549284
3269.53 80.74292541805015
3275.39 80.69410874015027
3281.25 80.64529089141688
3287.11 80.59639298470496
3292.97 80.54749896627851
3298.83 80.49842433831658
3304.69 80.44919499333679
3310.55 80.39984137313837
3316.41 80.35011046899524
3322.27 80.30009284981271
3328.12 80.24979180300171
3333.98 80.19898504431401
3339.84 80.14782975564611
3345.7 80.09617948513328
3351.56 80.04403952332503
3357.42 79.99141324319403
3363.28 79.9383238937082
3369.14 79.88484434036248
3375.0 79.830895130088
3380.86 79.77665780184411
3386.72 79.72212968897576
3392.58 79.6673605148746
3398.44 79.61247103535854
3404.3 79.5575284397072
3410.16 79.50265560199111
3416.02 79.44786911861776
3421.88 79.39337095523716
3427.73 79.33905261548382
3433.59 79.28515884335212
3439.45 79.23165914375267
3445.31 79.1786998517933
3451.17 79.12613238929673
3457.03 79.07414379910753
3462.89 79.02260348839553
3468.75 78.97150050633753
3474.61 78.92094563315776
3480.47 78.87067790431836
3486.33 78.82070685105845
3492.19 78.77104016792572
3498.05 78.72148784322724
3503.91 78.67188105084605
3509.77 78.62235730422388
3515.62 78.57259830913469
3521.48 78.52258978925703
3527.34 78.47231993425396
3533.2 78.42160335225098
3539.06 78.37043408377166
3544.92 78.31872970994574
3550.78 78.26648864716756
3556.64 78.21371311789706
3562.5 78.16044602450928
3568.36 78.10667173751239
3574.22 78.05249618562287
3580.08 77.99786272581098
3585.94 77.94297653852574
3591.8 77.88784618053704
3597.66 77.8326187137989
3603.52 77.77750999278753
3609.38 77.72255817684233
3615.23 77.66793423892196
3621.09 77.61374344364233
3626.95 77.56023761177926
3632.81 77.50747869418943
3638.67 77.45549526658773
3644.53 77.4045395502418
3650.39 77.35463252983054
3656.25 77.30582207014405
3662.11 77.25813721035912
3667.97 77.2117315193818
3673.83 77.16651738862127
3679.69 77.12254416272854
3685.55 77.0798321342116
3691.41 77.03824020693439
3697.27 76.99786479447543
3703.12 76.95866960517786
3708.98 76.92057507576969
3714.84 76.88343434742605
3720.7 76.84745156451
3726.56 76.81239862362887
3732.42 76.77847011752051
3738.28 76.74545079930138
3744.14 76.71345486281818
3750.0 76.68259638786226
3755.86 76.6528410289053
3761.72 76.62421502744424
3767.58 76.5968334666639
3773.44 76.57082033802473
3779.3 76.54629243722506
3785.16 76.52335287241212
3791.02 76.5021200425969
