Freq "Rear Wall Bounce"
20.0 53.581674835523856
20.290899 54.20867383552384
20.586 54.82267583552384
20.8855 55.42267383552384
21.189301 56.00367583552385
21.497499 56.567674835523846
21.8102 57.11467583552384
22.127399 57.64667283552386
22.4492 58.164674835523854
22.775801 58.66967583552385
23.1071 59.16567383552386
23.443199 59.65267383552383
23.7841 60.13567583552383
24.1301 60.61767383552386
24.4811 61.099675835523854
24.8372 61.582673835523835
25.1984 62.06967383552383
25.564899 62.55867583552384
25.9368 63.04967283552385
26.3141 63.54167383552384
26.6968 64.03367083552384
27.0851 64.52367583552385
27.479099 65.00967583552385
27.878799 65.49167083552386
28.2843 65.96767583552385
28.6957 66.43766983552383
29.1131 66.90167383552385
29.536501 67.35867483552384
29.966101 67.80967083552385
30.402 68.25467083552384
30.8442 68.69367383552384
31.2929 69.20066983552384
31.748 69.71267083552384
32.209801 69.96067183552384
32.678299 70.35667583552383
33.153599 70.74366983552385
33.635899 71.11167283552386
34.125099 71.45266883552382
34.621498 71.76467283552384
35.125 72.04567183552385
35.635899 72.29267283552385
36.154301 72.51167483552385
36.680199 72.70867383552384
37.213699 72.89167183552385
37.755 73.07167283552384
38.3041 73.26067583552384
38.861301 73.46466983552385
39.426498 73.68866883552384
40.0 73.93067383552385
40.581799 74.18766983552385
41.1721 74.45266883552384
41.771 74.72067483552385
42.378502 74.98667283552385
42.9949 75.24767483552382
43.6203 75.50967583552385
44.254799 75.81767483552385
44.898499 76.01667183552385
45.551498 76.22866983552385
46.2141 76.46466983552385
46.886299 76.69767183552385
47.568298 76.92667583552384
48.260201 77.15267383552384
48.962101 77.37467383552385
49.674301 77.59367583552385
50.396801 77.78944545934415
51.129902 77.98093647590692
51.8736 78.16914701338175
52.628101 78.35507161246476
53.3936 78.53770610744515
54.1702 78.71703978135898
54.958099 78.89507339028948
55.7575 79.0698115582337
56.568501 79.28322770367522
57.391399 79.44933895156753
58.226101 79.56813180345839
59.073 79.7246018321911
59.932301 79.87174161338773
60.804 80.01055528335198
61.6884 80.13703181259491
62.585701 80.25116391280521
63.496 80.34794603645007
64.419601 80.42538513112216
65.356598 80.47945773126291
66.307297 80.51017273385489
67.271698 80.51452317553282
68.250198 80.49850253567222
69.242897 80.4611021937957
70.250099 80.41632010559071
71.271896 80.37015186581293
72.308601 80.31558419375652
73.360298 80.25562289949099
74.427399 80.18824807313877
75.509903 80.10846478765306
76.608299 80.01226008945586
77.722603 79.89663760246164
78.853104 79.76058769394139
80.0 79.60509915219889
81.163597 79.42216789632312
82.3442 79.23878587412402
83.541901 79.07094869706917
84.757 78.93364944955826
85.989899 78.80388150734305
87.240601 78.7136418528594
88.509598 78.67292147430473
89.797 78.68770551438413
91.103104 78.7580021482555
92.4282 78.8797887395542
93.772598 79.07407112301236
95.136597 79.26782542827509
96.520401 79.45705831155924
97.924301 79.64876512004018
99.348602 79.84392183170921
100.794 80.02053004109375
102.26 80.17558898326827
103.747 80.31409417315089
105.256 80.44001514049864
106.787 80.57434997999651
108.34 80.67711078777582
109.916 80.74225410652407
111.515 80.78279403979589
113.137 80.76272869273195
114.783 80.66502462176304
116.452 80.49771248866314
118.146 80.29474330917351
119.865 80.08910620461954
121.608 79.94583884205744
123.377 79.86688625721739
125.171 79.83027312258561
126.992 79.83294648954795
128.839 79.85692903638692
130.713 79.88319736604478
132.615 79.88872909073608
134.543 79.84957542697877
136.5 79.77365293017267
138.486 79.67396976393992
140.5 79.55554162039628
142.544 79.4313246145105
144.617 79.31934344546873
146.721 79.22454224719085
148.855 79.14395572636718
151.02 79.07954255257361
153.217 79.03828840654627
155.445 79.02021800386886
157.706 79.02827852608029
160.0 79.04846918990135
162.327 79.07078921543079
164.688 79.09421132330566
167.084 79.1207172467297
169.514 79.13632572827795
171.98 79.08998101730838
174.481 78.96971786638342
177.019 78.77548154930129
179.594 78.51326934060056
182.206 78.22308451912207
184.856 78.00089888452767
187.545 77.86969125115404
190.273 77.78345492669087
193.041 77.72416674803326
195.849 77.65882204063814
198.697 77.56943113504691
201.587 77.46093843218061
204.52 77.34231382526762
207.494 77.22861660961941
210.512 77.13175376946337
213.574 77.05974469729522
216.681 77.00455133908072
219.833 76.97018110893983
223.03 76.95562542752178
226.274 76.9398378351709
229.565 76.90681078485808
232.905 76.81750686276946
236.292 76.66497442337389
239.729 76.46412665053167
243.216 76.2549730569144
246.754 76.09348073990145
250.343 76.00964723905496
253.984 75.98846268609036
257.678 75.99288523576249
261.426 75.9868990664438
265.229 75.95447338071492
269.087 75.90360380753866
273.001 75.85127758818712
276.972 75.80746498962807
281.0 75.77115769500215
285.088 75.73528324085181
289.234 75.70189213232892
293.441 75.64191596555034
297.709 75.51234751864224
302.04 75.36212984413585
306.433 75.22530413606789
310.89 75.1218065033533
315.412 75.10161445966955
320.0 75.11569955085254
324.655 75.07304735565096
329.377 74.96765382838693
334.168 74.81745926450374
339.028 74.68246967819097
343.959 74.6266424453229
348.962 74.64693932055289
354.038 74.69334009626039
359.188 74.71281860340522
364.412 74.61737801922565
369.713 74.38593663547466
375.09 74.12853101228716
380.546 73.90107454610175
386.081 73.74057257560305
391.697 73.69696790265314
397.394 73.67426994427673
403.175 73.59840333741583
409.039 73.4723868606049
414.989 73.29814227018723
421.025 73.11268016934513
427.149 72.94295170075372
433.362 72.8069223210865
439.665 72.69393054033137
446.06 72.58684469882179
452.548 72.46833743641078
459.131 72.328378239558
465.809 72.1845930882739
472.584 72.03500960125642
479.458 71.86369248631523
486.432 71.66930472533733
493.507 71.46273436484432
503.906 71.46273436484432
509.766 71.82526603657179
515.625 72.17140374486716
521.484 72.5021671549892
527.344 72.81871211313995
533.203 73.12210935037031
539.062 73.41331261660638
544.922 73.69318151021231
550.781 73.96230597751381
556.641 74.22119240835046
562.5 74.47014946996566
568.359 74.7093453799802
574.219 74.93879742284939
580.078 75.15853242308334
585.938 75.36841369980849
591.797 75.56830478661217
597.656 75.75809654418734
603.516 75.93760003929656
609.375 76.1067251682611
615.234 76.26537755058088
621.094 76.41352093912126
626.953 76.55118719593897
632.812 76.67842258673038
638.672 76.79544442172956
644.531 76.90235120823
650.391 76.99953088221119
656.25 77.08726068268325
662.109 77.16594885297957
667.969 77.23608129990647
673.828 77.29814087735288
679.688 77.35270102697605
685.547 77.40030615740478
691.406 77.44160599488251
697.266 77.47724141925575
703.125 77.50775951865194
708.984 77.53385029314647
714.844 77.55604871350461
720.703 77.57496951492044
726.562 77.59104088147349
732.422 77.60474289850019
738.281 77.61644229887622
744.141 77.62637493992939
750.0 77.63480621467737
755.859 77.64173845372879
761.719 77.64724080968274
767.578 77.65126513789778
773.438 77.65362891897645
779.297 77.654086405756
785.156 77.65240591678
791.016 77.64824148953498
796.875 77.64122064354947
802.734 77.6309958462773
808.594 77.61716389540905
814.453 77.59938657648851
820.312 77.57732890489676
826.172 77.55069629629394
832.031 77.51921786087318
837.891 77.46197625762406
843.75 77.43952435504298
849.609 77.39279006601366
855.469 77.3409223840748
861.328 77.28404766712667
867.188 77.2223407785506
873.047 77.15606259800394
878.906 77.08554019184096
884.766 77.0111820792276
890.625 76.93339246161331
896.484 76.85272294331104
902.344 76.76971410658713
908.203 76.68489103977234
914.062 76.59887915556503
919.922 76.51217561893021
925.781 76.42538811734717
931.641 76.33902065257696
937.5 76.25350699269543
943.359 76.16924743258916
949.219 76.08658945890845
955.078 76.00575237036239
960.938 75.92688459460624
966.797 75.8501163452104
972.656 75.7753822858843
978.516 75.70259747087503
984.375 75.63154868706795
990.234 75.562072361757
996.094 75.49386656259823
1001.95 75.42662235229164
1007.81 75.35999312384952
1013.67 75.29369505937152
1019.53 75.22737335435325
1025.39 75.16076390682117
1031.25 75.09360497246549
1037.11 75.02574006028453
1042.97 74.95702771032589
1048.83 74.88742134108647
1054.69 74.81693230837992
1060.55 74.74565619455603
1066.41 74.67375890236902
1072.27 74.60154608743878
1078.12 74.52930463454992
1083.98 74.45736644702554
1089.84 74.38628670144875
1095.7 74.31641768875575
1101.56 74.24830512472616
1107.42 74.18246700372802
1113.28 74.11937550673221
1119.14 74.0595128029103
1125.0 74.00328264704581
1130.86 73.95105902532413
1136.72 73.90308851700799
1142.58 73.85955843327518
1148.44 73.82060233951086
1154.3 73.78614126742406
1160.16 73.75608221467246
1166.02 73.73020729373
1171.88 73.70823209297261
1177.73 73.68973574870411
1183.59 73.67428967958806
1189.45 73.6614488841797
1195.31 73.65066395701372
1201.17 73.64147614697087
1207.03 73.633335091936
1212.89 73.6257832046545
1218.75 73.6184223773089
1224.61 73.61086970075036
1230.47 73.60280133331841
1236.33 73.59399403241153
1242.19 73.58428966114272
1248.05 73.57365069821239
1253.91 73.56200904384626
1259.77 73.54946604287242
1265.62 73.53615476514985
1271.48 73.52221888091063
1277.34 73.5079665172952
1283.2 73.49355111518534
1289.06 73.47936947749247
1294.92 73.46566372551214
1300.78 73.45267395051347
1306.64 73.4407434566409
1312.5 73.43004686313135
1318.36 73.42076628570275
1324.22 73.41301594094587
1330.08 73.40689116714871
1335.94 73.40237853301844
1341.8 73.39937793814734
1347.66 73.39776339448062
1353.52 73.39734669761235
1359.38 73.39790245786395
1365.23 73.3990941796118
1371.09 73.40059382045546
1376.95 73.4020836624966
1382.81 73.4031730308766
1388.67 73.40348905979921
1394.53 73.40269863797607
1400.39 73.40045063042365
1406.25 73.39645901259999
1412.11 73.39048165562357
1417.97 73.38226781601928
1423.83 73.37171404149954
1429.69 73.35863848871993
1435.55 73.3430669204059
1441.41 73.3249699947525
1447.27 73.30441898076128
1453.12 73.28154525888007
1458.98 73.25644849410382
1464.84 73.22938933870772
1470.7 73.20061144785996
1476.56 73.17032587515477
1482.42 73.1388832135697
1488.28 73.10654038470825
1494.14 73.07359135104184
1500.0 73.04038096577202
1505.86 73.00713759012565
1511.72 72.97408195936907
1517.58 72.94146578632102
1523.44 72.90945890242882
1529.3 72.87816343170324
1535.16 72.84767419358086
1541.02 72.81801787983778
1546.88 72.78913921973178
1552.73 72.76097711316395
1558.59 72.73342866263837
1564.45 72.70629570131737
1570.31 72.67939228204155
1576.17 72.65255365483641
1582.03 72.62546189948004
1587.89 72.59792307509697
1593.75 72.56967953905075
1599.61 72.54049845904362
1605.47 72.51015940131231
1611.33 72.47846996452584
1617.19 72.44523655534763
1623.05 72.41042326870766
1628.91 72.37384769188536
1634.77 72.33548792952489
1640.62 72.2953845994314
1646.48 72.25355055114655
1652.34 72.21008362945723
1658.2 72.16513856527655
1664.06 72.11887263453374
1669.92 72.07147850226036
1675.78 72.02319347202064
1681.64 71.97428817293932
1687.5 71.92507494474948
1693.36 71.8758112984019
1699.22 71.82677920982395
1705.08 71.77827486279568
1710.94 71.73057175065918
1716.8 71.68386045534659
1722.66 71.63837219913893
1728.52 71.59435176892369
1734.38 71.5518139835946
1740.23 71.51094047218585
1746.09 71.47174652915488
1751.95 71.43424942239913
1757.81 71.39835490671189
1763.67 71.36399398366494
1769.53 71.33103276510006
1775.39 71.2993221716347
1781.25 71.26863884537028
1787.11 71.23878652958088
1792.97 71.20958272146403
1798.83 71.18075396332112
1804.69 71.15208536264741
1810.55 71.12335695652965
1816.41 71.09438043676722
1822.27 71.0650539491808
1828.12 71.03515956547555
1833.98 71.00458958801929
1839.84 70.97335594891487
1845.7 70.9413561944943
1851.56 70.90872505733492
1857.42 70.87541725308012
1863.28 70.84159197328937
1869.14 70.8073547292305
1875.0 70.77297024770479
1880.86 70.73856367172465
1886.72 70.70439831010273
1892.58 70.6707644170146
1898.44 70.63786016677659
1904.3 70.60600648540093
1910.16 70.57539401691568
1916.02 70.5463150374807
1921.88 70.51894274812267
1927.73 70.49350427722754
1933.59 70.47007246216037
1939.45 70.44876769133698
1945.31 70.42958510053403
1951.17 70.41254863291054
1957.03 70.3976359005544
1962.89 70.38466724393759
1968.75 70.37347401649488
1974.61 70.36391434120601
1980.47 70.3556529350557
1986.33 70.34856040802931
1992.19 70.34232191179522
1998.05 70.33658071995306
2003.91 70.33114397736936
2009.77 70.32575281526884
2015.62 70.32015351823827
2021.48 70.3141171259254
2027.34 70.30756459917262
2033.2 70.30024556819963
2039.06 70.29223282182434
2044.92 70.28336676874515
2050.78 70.27373070365505
2056.64 70.26345373896842
2062.5 70.25258551387591
2068.36 70.24131549664837
2074.22 70.22983784294046
2080.08 70.21839384502404
2085.94 70.20727843039431
2091.8 70.1966926904232
2097.66 70.18699937602914
2103.52 70.1783771887902
2109.38 70.1711704985373
2115.23 70.16555042826981
2121.09 70.16172409132413
2126.95 70.15986120050054
2132.81 70.16003272045805
2138.67 70.16231194805086
2144.53 70.16666413283333
2150.39 70.17309955331991
2156.25 70.18139167015576
2162.11 70.19150837473335
2167.97 70.2031743297231
2173.83 70.21616417192097
2179.69 70.2302320491575
2185.55 70.24505007515806
2191.41 70.26037048641483
2197.27 70.27591721494849
2203.12 70.29138019152968
2208.98 70.3065362653464
2214.84 70.32115051449799
2220.7 70.33500681476858
2226.56 70.34799570712899
2232.42 70.3600123162433
2238.28 70.37094168426142
2244.14 70.38087015277559
2250.0 70.38972641611015
2255.86 70.39767869469277
2261.72 70.40477459029476
2267.58 70.41120217224857
2273.44 70.41713420815859
2279.3 70.42274594710223
2285.16 70.42828016383031
2291.02 70.43393296899923
2296.88 70.43987189534958
2302.73 70.44640721904703
2308.59 70.45358734866473
2314.45 70.46163974938709
2320.31 70.47064114762577
2326.17 70.48065808233419
2332.03 70.49172929640142
2337.89 70.5038169240484
2343.75 70.51689686581717
2349.61 70.53081139915089
2355.47 70.54545162475914
2361.33 70.56060044194244
2367.19 70.57612297259735
2373.05 70.59175612404944
2378.91 70.60727554446186
2384.77 70.6224459480755
2390.62 70.63703040999826
2396.48 70.65082770027495
2402.34 70.66359882917074
2408.2 70.67519281701135
2414.06 70.68550933010343
2419.92 70.69438727090557
2425.78 70.70172724267901
2431.64 70.70759228420319
2437.5 70.71190775823595
2443.36 70.71473667547484
2449.22 70.71618316991045
2455.08 70.71633409091733
2460.94 70.71534663482468
2466.8 70.71336448086248
2472.66 70.7105975782274
2478.52 70.70720362841091
2484.38 70.70337489100903
2490.23 70.69933322658767
2496.09 70.69521728420425
2501.95 70.69120124921851
2507.81 70.68580352746926
2513.67 70.6826823280753
2519.53 70.68141013835998
2525.39 70.67898239790406
2531.25 70.6770689075378
2537.11 70.67561076939661
2542.97 70.67457070020528
2548.83 70.67387786641011
2554.69 70.67344932447277
2560.55 70.6731336944264
2566.41 70.67279070316143
2572.27 70.67228048363886
2578.12 70.67146429759191
2583.98 70.67010631062824
2589.84 70.6680960576514
2595.7 70.66533787636338
2601.56 70.66164834316284
2607.42 70.65698364403023
2613.28 70.65119089493162
2619.14 70.64427093792445
2625.0 70.63617827950229
2630.86 70.62690979681561
2636.72 70.61652679274827
2642.58 70.60506267252167
2648.44 70.59260645481137
2654.3 70.57926150500455
2660.16 70.56516894759089
2666.02 70.55048201374021
2671.88 70.53530068751381
2677.73 70.51981323897276
2683.59 70.50413334854835
2689.45 70.48845471513103
2695.31 70.4729317186678
2701.17 70.45764308904495
2707.03 70.44272264051115
2712.89 70.42824675244354
2718.75 70.41426641033742
2724.61 70.4008199030627
2730.47 70.38789969657392
2736.33 70.37548315906757
2742.19 70.36357886005558
2748.05 70.35206068011232
2753.91 70.34082129200998
2759.77 70.3297834443219
2765.62 70.31884205509007
2771.48 70.3077899617844
2777.34 70.2965539554494
2783.2 70.28495399810808
2789.06 70.27289684542801
2794.92 70.26020235745763
2800.78 70.2468085430044
2806.64 70.23260750422467
2812.5 70.21746226536668
2818.36 70.20139018060306
2824.22 70.18436901956939
2830.08 70.1663564767277
2835.94 70.14739989075112
2841.8 70.12750458148801
2847.66 70.10679229319273
2853.52 70.08535783855422
2859.38 70.06331045648714
2865.23 70.04077445434773
2871.09 70.01784969549576
2876.95 69.99478749949738
2882.81 69.97164920278588
2888.67 69.94863635559265
2894.53 69.9258340515201
2900.39 69.9034297101219
2906.25 69.88148563021399
2912.11 69.86011708791395
2917.97 69.8394072135949
2923.83 69.81943409498744
2929.69 69.80015759509675
2935.55 69.78159746324506
2941.41 69.76369863654422
2947.27 69.74643251149179
2953.12 69.72970374796135
2958.98 69.71338398871218
2964.84 69.6974547192124
2970.7 69.68169163383115
2976.56 69.66604218215676
2982.42 69.65032690201886
2988.28 69.63448592835452
2994.14 69.61834682573961
3000.0 69.60180516296134
3005.86 69.58484334128737
3011.72 69.56730840211954
3017.58 69.54922419312065
3023.44 69.53053732805961
3029.3 69.51127560218978
3035.16 69.49143457460183
3041.02 69.47109882611973
3046.88 69.45029843061083
3052.73 69.42915309801826
3058.59 69.40776778832237
3064.45 69.38621800829324
3070.31 69.36466439914139
3076.17 69.34326109354244
3082.03 69.32204246038793
3087.89 69.30124570688638
3093.75 69.28087649921211
3099.61 69.26111326985706
3105.47 69.24194826364428
3111.33 69.22353440822837
3117.19 69.20585512477273
3123.05 69.18895719908858
3128.91 69.17282726112752
3134.77 69.15745391425206
3140.62 69.14278361454484
3146.48 69.12867819310581
3152.34 69.11520295281676
3158.2 69.10211196347544
3164.06 69.08936322104005
3169.92 69.07686159936557
3175.78 69.06443651956977
3181.64 69.0520549889232
3187.5 69.0394884377423
3193.36 69.0267235057373
3199.22 69.01363606787031
3205.08 69.00019961198899
3210.94 68.98629501074701
3216.8 68.97189332903467
3222.66 68.95703181331284
3228.52 68.94166256755716
3234.38 68.92585051915388
3240.23 68.9096136316546
3246.09 68.89305181199879
3251.95 68.8762525590445
3257.81 68.85931609686841
3263.67 68.84235643467488
3269.53 68.82550404097174
3275.39 68.8088490349818
3281.25 68.79260757320993
3287.11 68.77683590143756
3292.97 68.76161958885741
3298.83 68.74715265523177
3304.69 68.73347561943346
3310.55 68.72056014751065
3316.41 68.70858969051521
3322.27 68.69746965187556
3328.12 68.68725082368907
3333.98 68.67779054952064
3339.84 68.66910732635544
3345.7 68.66103894961087
3351.56 68.65346931190682
3357.42 68.64629976036345
3363.28 68.6393374509208
3369.14 68.63239829528028
3375.0 68.62534336467277
3380.86 68.61799579614362
3386.72 68.6101578104451
3392.58 68.60172704224469
3398.44 68.5925228817806
3404.3 68.58246990019865
3410.16 68.57147255444342
3416.02 68.55947166016662
3421.88 68.54638272835446
3427.73 68.53225555633668
3433.59 68.51718408416045
3439.45 68.50111624611625
3445.31 68.48423239871804
3451.17 68.46660861043571
3457.03 68.44843819491199
3462.89 68.42979641639985
3468.75 68.41096830671351
3474.61 68.39206320431596
3480.47 68.37327338885733
3486.33 68.35478236647518
3492.19 68.3367660547981
3498.05 68.31933772019038
3503.91 68.30267830497134
3509.77 68.28684753974099
3515.62 68.27190285205585
3521.48 68.25794829320542
3527.34 68.24489490824446
3533.2 68.23273945690825
3539.06 68.22147467868942
3544.92 68.21095931278607
3550.78 68.20107597318176
3556.64 68.1917059457602
3562.5 68.18264566042322
3568.36 68.17383630105266
3574.22 68.16499092112069
3580.08 68.15601622009116
3585.94 68.14667259095867
3591.8 68.13692420772496
3597.66 68.12660723717676
3603.52 68.11560439742323
3609.38 68.10381438555835
3615.23 68.09125518061819
3621.09 68.07782997622962
3626.95 68.06362212085556
3632.81 68.04866327375505
3638.67 68.03299427659992
3644.53 68.0167452586502
3650.39 68.000048383751
3656.25 67.98307985373788
3662.11 67.96592051050752
3667.97 67.94887156724955
3673.83 67.9319947847908
3679.69 67.9155006776468
3685.55 67.89957079652042
3691.41 67.88440824500832
3697.27 67.87008370705486
3703.12 67.85680091312658
