Freq "Side Wall Bounce"
20.0 53.581674835523856
20.290899 54.20867383552384
20.586 54.82267583552384
20.8855 55.42267383552384
21.189301 56.00367583552385
21.497499 56.567674835523846
21.8102 57.11467583552384
22.127399 57.64667283552386
22.4492 58.164674835523854
22.775801 58.66967583552385
23.1071 59.16567383552386
23.443199 59.65267383552383
23.7841 60.13567583552383
24.1301 60.61767383552386
24.4811 61.099675835523854
24.8372 61.582673835523835
25.1984 62.06967383552383
25.564899 62.55867583552384
25.9368 63.04967283552385
26.3141 63.54167383552384
26.6968 64.03367083552384
27.0851 64.52367583552385
27.479099 65.00967583552385
27.878799 65.49167083552386
28.2843 65.96767583552385
28.6957 66.43766983552383
29.1131 66.90167383552385
29.536501 67.35867483552384
29.966101 67.80967083552385
30.402 68.25467083552384
30.8442 68.69367383552384
31.2929 69.20066983552384
31.748 69.71267083552384
32.209801 69.96067183552384
32.678299 70.35667583552383
33.153599 70.74366983552385
33.635899 71.11167283552386
34.125099 71.45266883552382
34.621498 71.76467283552384
35.125 72.04567183552385
35.635899 72.29267283552385
36.154301 72.51167483552385
36.680199 72.70867383552384
37.213699 72.89167183552385
37.755 73.07167283552384
38.3041 73.26067583552384
38.861301 73.46466983552385
39.426498 73.68866883552384
40.0 73.93067383552385
40.581799 74.18766983552385
41.1721 74.45266883552384
41.771 74.72067483552385
42.378502 74.98667283552385
42.9949 75.24767483552382
43.6203 75.50967583552385
44.254799 75.81767483552385
44.898499 76.01667183552385
45.551498 76.22866983552385
46.2141 76.46466983552385
46.886299 76.69767183552385
47.568298 76.92667583552384
48.260201 77.15267383552384
48.962101 77.37467383552385
49.674301 77.59367583552385
50.396801 77.80011207599436
51.129902 78.00243074033793
51.8736 78.20163009287891
52.628101 78.39870791795376
53.3936 78.59266313874961
54.1702 78.78348677359291
54.958099 78.9731827259163
55.7575 79.15975884934483
56.568501 79.38519024454934
57.391399 79.56349867477711
58.226101 79.69466950657824
59.073 79.8637043905961
59.932301 80.02359920357468
60.804 80.17535828779693
61.6884 80.314975385765
62.585701 80.44244646225901
63.496 80.55276770029607
64.419601 80.64395086597646
65.356598 80.71197419817116
66.307297 80.75685146423673
67.271698 80.77557602304061
68.250198 80.77414760244352
69.242897 80.7515594150461
70.250099 80.72181430389718
71.271896 80.69090959823772
72.308601 80.65183706384663
73.360298 80.60760414722033
74.427399 80.55619749247684
75.509903 80.49262256063916
76.608299 80.41287413483609
77.722603 80.3139565059071
78.853104 80.19486481060638
80.0 80.05659125685564
81.163597 79.89113681931114
82.3442 79.72549850406357
83.541901 79.57567379452574
84.757 79.45666078819347
85.989899 79.34545942890661
87.240601 79.2740672753821
88.509598 79.25248327555342
89.797 79.28669479278149
91.103104 79.37671505952126
92.4282 79.51852641085377
93.772598 79.7331399755566
95.136597 79.94753703207394
96.520401 80.1577279672711
97.924301 80.3707131953045
99.348602 80.58747399507384
100.794 80.78602322218782
102.26 80.96335331387945
103.747 81.12446655458447
105.256 81.27334843517204
106.787 81.43099783524782
108.34 81.55742764539313
109.916 81.64661047204804
111.515 81.71156127073503
113.137 81.71627900878573
114.783 81.64374641407586
116.452 81.5019797584008
118.146 81.32496160254244
119.865 81.14568205293084
121.608 81.02916441950227
123.377 80.97738544007348
125.171 80.96835546696475
126.992 80.99905337641515
128.839 81.05148756542302
130.713 81.1066511622114
132.615 81.14153837640173
134.543 81.1321707253358
136.5 81.08651231664709
138.486 81.01757260146734
140.5 80.93035307016711
142.544 80.8378421454764
144.617 80.75805036901718
146.721 80.69595432384521
148.855 80.64857460509074
151.02 80.61788689105789
153.217 80.61089395366035
155.445 80.62760644319621
157.706 80.67100433554701
160.0 80.72708848678162
162.327 80.7858597730351
164.688 80.84630827888253
167.084 80.91043319080752
169.514 80.96423933883268
171.98 80.95670424420429
174.481 80.87584880062981
177.019 80.72165172090244
179.594 80.50011228070626
182.206 80.25123577866357
184.856 80.07101189692213
187.545 79.98243743046947
190.273 79.93950788245269
193.041 79.92421821013484
195.849 79.90356603474387
198.697 79.85956400193612
201.587 79.79719078432838
204.52 79.72543474672436
207.494 79.65932572635437
210.512 79.61082126551587
213.574 79.58794342929026
216.681 79.58267293589799
219.833 79.59901998054141
223.03 79.63597878516536
226.274 79.6725380069099
229.565 79.69269307848877
232.905 79.65744197665344
236.292 79.5598037800635
239.729 79.41474344154746
243.216 79.262273749093
246.754 79.1583813880488
250.343 79.13306728675407
253.984 79.17134132736973
257.678 79.2361815342872
261.426 79.29159207570513
265.229 79.32156226515762
269.087 79.33409151839386
273.001 79.34618735312878
276.972 79.3678404348209
281.0 79.39804644161164
285.088 79.42978657968816
289.234 79.46508246163347
293.441 79.47491962677553
297.709 79.41629523225583
302.04 79.33819005048771
306.433 79.27463315396285
310.89 79.24559858992224
315.412 79.30108529728074
320.0 79.39208637003232
324.655 79.42760905765091
329.377 79.40165426943635
334.168 79.33220099356457
339.028 79.279260381165
343.959 79.30682879956379
348.962 79.41189027590384
354.038 79.54444699276787
359.188 79.65149528772177
364.412 79.64504390941003
369.713 79.50406795359042
375.09 79.3385926950133
380.546 79.20458867982855
386.081 79.13906722896324
391.697 79.19201152069674
397.394 79.26743709996927
403.175 79.29132651972608
409.039 79.26668761361607
414.989 79.19550037636155
421.025 79.11478189361168
427.149 79.05152455333281
433.362 79.02371783910844
439.665 79.02072436990734
446.06 79.02545417451233
452.548 79.02060425352626
459.131 78.99618609233708
465.809 78.96983266611916
472.584 78.93961378587325
479.458 78.88963654187982
486.432 78.81858878166
493.507 78.73738346307961
503.906 78.73738346307961
509.766 78.74842731905886
515.625 78.75599691508968
521.484 78.76057460288818
527.344 78.7629943584435
533.203 78.76403467655058
539.062 78.76476773674649
544.922 78.76621236789714
550.781 78.76951198292919
556.641 78.77563881784425
562.5 78.78565408218388
568.359 78.80033567019511
574.219 78.82036607575799
580.078 78.84621765971325
585.938 78.87812227969037
591.797 78.91611695604966
597.656 78.96002215962496
603.516 79.0093328905768
609.375 79.0634676040855
615.234 79.12175024635464
621.094 79.18316988186497
626.953 79.2468916836955
632.812 79.31188149977498
638.672 79.37723563035391
644.531 79.44200968785618
650.391 79.50530286658847
656.25 79.56647564788751
662.109 79.624868199798
667.969 79.68002412880254
673.828 79.73150912493061
679.688 79.7792087189015
685.547 79.82297158507782
691.406 79.86286087659323
697.266 79.89909877363753
703.125 79.93196264274617
708.984 79.96178936202276
714.844 79.98910213127944
720.703 80.01442678121792
726.562 80.03828807122945
732.422 80.06125507330667
738.281 80.08395261035574
744.141 80.10689605630354
750.0 80.13059331735872
755.859 80.15545583218565
761.719 80.18178845962926
767.578 80.20989277083301
773.438 80.2397887447188
779.297 80.27156798287452
785.156 80.30509453469689
791.016 80.340212566864
796.875 80.37657676202546
802.734 80.41378568659944
808.594 80.4514245124824
814.453 80.48905068408385
820.312 80.52604763019689
826.172 80.56203566241832
832.031 80.59640938461092
837.891 80.64361370441388
843.75 80.65754035241234
849.609 80.68451762164455
855.469 80.70840395499816
861.328 80.72896953417872
867.188 80.74605737607537
873.047 80.75969732929656
878.906 80.76979295876986
884.766 80.77656124265106
890.625 80.78012873387563
896.484 80.78075195265593
902.344 80.77875300310382
908.203 80.7745228716784
914.062 80.76837961806133
919.922 80.76082591271387
925.781 80.7523307639526
931.641 80.74324432898166
937.5 80.73407225473446
943.359 80.72513364214701
949.219 80.71689584133163
955.078 80.7095713982282
960.938 80.70342781593706
966.797 80.69864104809274
972.656 80.69532853897306
978.516 80.69344554651805
984.375 80.69303222924808
990.234 80.6938618590212
996.094 80.69585362338009
1001.95 80.69874196434142
1007.81 80.70219641919566
1013.67 80.70596206869776
1019.53 80.70972862092694
1025.39 80.71314865974902
1031.25 80.7158792679141
1037.11 80.71768065310393
1042.97 80.71828354940237
1048.83 80.71744187690385
1054.69 80.71492611138785
1060.55 80.71069712615063
1066.41 80.7046610152671
1072.27 80.69681089876227
1078.12 80.6871130457511
1083.98 80.67580558515088
1089.84 80.66297878101992
1095.7 80.6488738661042
1101.56 80.63373284662524
1107.42 80.6178084840535
1113.28 80.60150538555128
1119.14 80.58507149368606
1125.0 80.56894244057145
1130.86 80.55343230561017
1136.72 80.5388696298401
1142.58 80.52555810515585
1148.44 80.5137621693262
1154.3 80.50375589517904
1160.16 80.49566957901878
1166.02 80.48968512852993
1171.88 80.48585944949782
1177.73 80.4842338774614
1183.59 80.4847093965651
1189.45 80.48720634540473
1195.31 80.49158496170058
1201.17 80.49760911399957
1207.03 80.50510791078035
1212.89 80.51377249314045
1218.75 80.52330738518584
1224.61 80.53348760639793
1230.47 80.54399907190653
1236.33 80.55452111895333
1242.19 80.56486500307511
1248.05 80.57474902795416
1253.91 80.58404874144695
1259.77 80.59257530672433
1265.62 80.6001634705876
1271.48 80.60684572562533
1277.34 80.6125204372421
1283.2 80.61722996622319
1289.06 80.62107727301515
1294.92 80.62415166389782
1300.78 80.62654863704537
1306.64 80.62848809584321
1312.5 80.6301415894191
1318.36 80.6316605102846
1324.22 80.63334155826728
1330.08 80.63533859333965
1335.94 80.63784151360677
1341.8 80.64101551244602
1347.66 80.64508771224847
1353.52 80.6500420423508
1359.38 80.65607558046467
1365.23 80.66315918833227
1371.09 80.67132167946254
1376.95 80.68045371531716
1382.81 80.69053175840344
1388.67 80.70130562326428
1394.53 80.71273633712194
1400.39 80.72450494394518
1406.25 80.73649567602223
1412.11 80.74836198602837
1417.97 80.75989654509827
1423.83 80.77082255747753
1429.69 80.78097959470152
1435.55 80.7900118523281
1441.41 80.79785195365628
1447.27 80.80421956321864
1453.12 80.80903477160076
1458.98 80.81218915479012
1464.84 80.81359147144848
1470.7 80.81326341939626
1476.56 80.81121920857314
1482.42 80.80749826585377
1488.28 80.80223454436825
1494.14 80.79554473324092
1500.0 80.7875731601796
1505.86 80.77856241534747
1511.72 80.76868011892145
1517.58 80.75823732955665
1523.44 80.74726774274018
1529.3 80.73621131265715
1535.16 80.72508649114529
1541.02 80.7141505420039
1546.88 80.70358579054552
1552.73 80.69346980966668
1558.59 80.68391586167807
1564.45 80.67497341608785
1570.31 80.66666238873898
1576.17 80.65891233909446
1582.03 80.65167542572458
1587.89 80.64485227500818
1593.75 80.6382648865631
1599.61 80.63174786431186
1605.47 80.62519021959106
1611.33 80.61832454863192
1617.19 80.61093680756387
1623.05 80.60285763401659
1628.91 80.59390577183015
1634.77 80.58389783203886
1640.62 80.57270316996154
1646.48 80.56015965079912
1652.34 80.54622311293288
1658.2 80.53076753523327
1664.06 80.51384010285588
1669.92 80.4953609676585
1675.78 80.4755425461599
1681.64 80.4543534796378
1687.5 80.43198104291767
1693.36 80.40852703977681
1699.22 80.38421475901033
1705.08 80.35925874923889
1710.94 80.33380951771937
1716.8 80.3081279634281
1722.66 80.28240246741709
1728.52 80.25687045831097
1734.38 80.23173641517467
1740.23 80.20711897766644
1746.09 80.1832928437126
1751.95 80.16019263610484
1757.81 80.13803241589558
1763.67 80.11681060013025
1769.53 80.09654054619507
1775.39 80.07721365370277
1781.25 80.05872940575803
1787.11 80.04100255340948
1792.97 80.02393764830514
1798.83 80.007360249121
1804.69 79.99117235304709
1810.55 79.97510669775768
1816.41 79.95909061949021
1822.27 79.94288262286949
1828.12 79.92637873119469
1833.98 79.90942607023153
1839.84 79.89196765543075
1845.7 79.873801038569
1851.56 79.85498825864792
1857.42 79.83545738407629
1863.28 79.81522406512393
1869.14 79.79432088684047
1875.0 79.77285513978457
1880.86 79.75096617928234
1886.72 79.72875294334287
1892.58 79.70643580692509
1898.44 79.6841394518922
1904.3 79.66214759425519
1910.16 79.64060559321993
1916.02 79.61975092970206
1921.88 79.59983543166904
1927.73 79.58103384068419
1933.59 79.56358567644071
1939.45 79.5475450874924
1945.31 79.53315588156813
1951.17 79.52043926738033
1957.03 79.50951547390642
1962.89 79.50042946679159
1968.75 79.49312917689211
1974.61 79.4876353676665
1980.47 79.4837786210395
1986.33 79.48152849190379
1992.19 79.48080387253147
1998.05 79.48137044656325
2003.91 79.48308602136429
2009.77 79.48583048958538
2015.62 79.48939628229054
2021.48 79.49359947497908
2027.34 79.49831085955138
2033.2 79.50336916323973
2039.06 79.5086531486291
2044.92 79.51408776789559
2050.78 79.51955298940604
2056.64 79.52503776696567
2062.5 79.53055734492237
2068.36 79.53611777253946
2074.22 79.54170536346103
2080.08 79.54743772766605
2085.94 79.55345486786545
2091.8 79.5597913800737
2097.66 79.56661590818072
2103.52 79.57409605189515
2109.38 79.58232983975796
2115.23 79.59154825972003
2121.09 79.60183440939865
2126.95 79.61333329752532
2132.81 79.62616305733071
2138.67 79.64036237391667
2144.53 79.6561165312752
2150.39 79.67337198455469
2156.25 79.69219750007339
2162.11 79.71252484674251
2167.97 79.73427277100205
2173.83 79.75744077562835
2179.69 79.7818567570266
2185.55 79.8074013586752
2191.41 79.83388578442437
2197.27 79.86118077161262
2203.12 79.88908404435288
2208.98 79.9173864108661
2214.84 79.94589849253174
2220.7 79.97449902938554
2226.56 80.0029266066488
2232.42 80.03111087482016
2238.28 80.05883202123958
2244.14 80.0860289054138
2250.0 80.11262489171966
2255.86 80.13854782943525
2261.72 80.1637314203379
2267.58 80.18826071305351
2273.44 80.21207613356027
2279.3 80.2352591513253
2285.16 80.25790158967823
2291.02 80.28002016499897
2296.88 80.30182002302739
2302.73 80.32335035814968
2308.59 80.3447659824425
2314.45 80.36617342616852
2320.31 80.38766813070771
2326.17 80.40940398693073
2332.03 80.43144089205335
2337.89 80.45384704191517
2343.75 80.47668808312737
2349.61 80.50000541530989
2355.47 80.52381155115073
2361.33 80.54802049736941
2367.19 80.57267750184216
2373.05 80.59768246924675
2378.91 80.62297992705388
2384.77 80.64836343589164
2390.62 80.67382518728421
2396.48 80.69915760655205
2402.34 80.72428616133841
2408.2 80.74903623287942
2414.06 80.77331972469494
2419.92 80.79694945486325
2425.78 80.81986504486103
2431.64 80.84201113433004
2437.5 80.86324726419521
2443.36 80.8834947703727
2449.22 80.90280449194799
2455.08 80.92113840060043
2460.94 80.93852088051005
2466.8 80.95498190460874
2472.66 80.97057470759957
2478.52 80.98539850380261
2484.38 80.99956871953533
2490.23 81.01312750734137
2496.09 81.02630003102855
2501.95 81.03914379851247
2507.81 81.05802851841808
2513.67 81.07065210586825
2519.53 81.07700106440701
2525.39 81.08975582448848
2531.25 81.10275104568981
2537.11 81.11598127310349
2542.97 81.12952831765254
2548.83 81.143416348768
2554.69 81.1575594213278
2560.55 81.17201884933927
2566.41 81.18673403816473
2572.27 81.20155031415256
2578.12 81.21647249700952
2583.98 81.23137550186098
2589.84 81.24615798074505
2595.7 81.26063966253322
2601.56 81.27479214422674
2607.42 81.28851420922521
2613.28 81.301560547422
2619.14 81.31394084976853
2625.0 81.32557142472868
2630.86 81.33634121706005
2636.72 81.34622671119372
2642.58 81.35513281179269
2648.44 81.36319281529079
2654.3 81.37027786664872
2660.16 81.37649864267662
2666.02 81.38188025553873
2671.88 81.3865413978181
2677.73 81.39047851366058
2683.59 81.39387728005677
2689.45 81.39679863575579
2695.31 81.39944790863913
2701.17 81.40177449633049
2707.03 81.40404802688897
2712.89 81.40627916862576
2718.75 81.40862606255544
2724.61 81.41114277816415
2730.47 81.4138919791743
2736.33 81.41691757515575
2742.19 81.4203166938671
2748.05 81.42404446584841
2753.91 81.42808788379732
2759.77 81.4324304999004
2765.62 81.43703389801274
2771.48 81.44179373836437
2777.34 81.44663573776502
2783.2 81.451546116046
2789.06 81.45634267178495
2794.92 81.46095283957693
2800.78 81.4653078123723
2806.64 81.46923067453888
2812.5 81.47272579108402
2818.36 81.47564794967526
2824.22 81.47798602342807
2830.08 81.47954384499904
2835.94 81.48047199023998
2841.8 81.48066414822956
2847.66 81.48009319264925
2853.52 81.47884428828561
2859.38 81.47687203318164
2865.23 81.47432975757872
2871.09 81.47121547173548
2876.95 81.46760031151095
2882.81 81.46362362363514
2888.67 81.45931646618655
2894.53 81.45478445501621
2900.39 81.45019410516944
2906.25 81.44552110943675
2912.11 81.44091885707772
2917.97 81.43649019300953
2923.83 81.43221540893688
2929.69 81.42820069740388
2935.55 81.42442636870226
2941.41 81.42095751869267
2947.27 81.41777801596616
2953.12 81.41483815503913
2958.98 81.4121131481646
2964.84 81.4095462643824
2970.7 81.40708809242794
2976.56 81.40464202426382
2982.42 81.40210447771689
2988.28 81.3995155734754
2994.14 81.39662514021364
3000.0 81.39345750129671
3005.86 81.38989057704484
3011.72 81.38585931438588
3017.58 81.38134091340387
3023.44 81.37617844489684
3029.3 81.37047210338845
3035.16 81.36412834069787
3041.02 81.35710985975378
3046.88 81.3495148660421
3052.73 81.34130083021901
3058.59 81.3325485882505
3064.45 81.32328457369651
3070.31 81.3135507620378
3076.17 81.30347935480691
3082.03 81.293072503208
3087.89 81.28249425923553
3093.75 81.2717770800767
3099.61 81.26094901921287
3105.47 81.2501612607892
3111.33 81.23943993106253
3117.19 81.2288218349495
3123.05 81.21837345515299
3128.91 81.20809367664144
3134.77 81.19804634916697
3140.62 81.18816741337479
3146.48 81.1784635120694
3152.34 81.16889572255353
3158.2 81.15941482847988
3164.06 81.15000784346005
3169.92 81.14058936241464
3175.78 81.13105615853557
3181.64 81.12139455014254
3187.5 81.11153304847325
3193.36 81.10134260589888
3199.22 81.09083682548139
3205.08 81.07990681043809
3210.94 81.06854153143932
3216.8 81.05668612662585
3222.66 81.04433845163315
3228.52 81.03146765585804
3234.38 81.01812146511318
3240.23 81.00426775927072
3246.09 80.98995092246376
3251.95 80.97526575036309
3257.81 80.96026612646858
3263.67 80.94496419731199
3269.53 80.9295240308209
3275.39 80.9138736557876
3281.25 80.89826629533752
3287.11 80.88265426625192
3292.97 80.86723448126905
3298.83 80.85199825061214
3304.69 80.83699941084916
3310.55 80.82234153296645
3316.41 80.8080008942704
3322.27 80.79404469078968
3328.12 80.78048689006833
3333.98 80.76729868393737
3339.84 80.75446797682834
3345.7 80.74198078129655
3351.56 80.7297454530055
3357.42 80.71782258973617
3363.28 80.70599630324064
3369.14 80.69428309989135
3375.0 80.68259626253608
3380.86 80.67083516682222
3386.72 80.65897058231495
3392.58 80.64692517615252
3398.44 80.63459755302473
3404.3 80.6219504612811
3410.16 80.60898191561077
3416.02 80.59563484255459
3421.88 80.58189073199458
3427.73 80.5677356034354
3433.59 80.55321657510245
3439.45 80.53838694079461
3445.31 80.52323925982832
3451.17 80.50785771718758
3457.03 80.49229524295863
3462.89 80.47665322117778
3468.75 80.46094369788858
3474.61 80.44536344175552
3480.47 80.42989474513989
3486.33 80.41466699244985
3492.19 80.39978740490064
3498.05 80.38529618081246
3503.91 80.37123212421162
3509.77 80.3576284820758
3515.62 80.3446497910446
3521.48 80.33216002840258
3527.34 80.3203024674258
3533.2 80.30896578262873
3539.06 80.29815840402883
3544.92 80.28785054147686
3550.78 80.27800669314995
3556.64 80.2685621657924
3562.5 80.25940691515778
3568.36 80.25047122860178
3574.22 80.241756444323
3580.08 80.2330812509439
3585.94 80.22441505213861
3591.8 80.21565835415522
3597.66 80.20679182898803
3603.52 80.19771299130238
3609.38 80.188389568896
3615.23 80.17877696169654
3621.09 80.16889335155014
3626.95 80.15869754095164
3632.81 80.14820251676797
3638.67 80.13750355796246
3644.53 80.12651698711429
3650.39 80.11535067584988
3656.25 80.10409155742931
3662.11 80.09282961713038
3667.97 80.081546736027
3673.83 80.07048265481204
3679.69 80.05952965481224
3685.55 80.04891972054591
3691.41 80.03866297844239
3697.27 80.02883108362707
3703.12 80.01949637346944
3708.98 80.01074638659209
