Freq "Estimated In-Room Response"
20.0 20.039115334276786
20.2909 22.324011296107543
20.586 24.376258546832346
20.8855 25.90076966199139
21.1893 26.75835794007405
21.4975 27.05483693393704
21.8102 26.814886348934706
22.1274 26.10209302113465
22.4492 25.182970661514403
22.7758 24.634186558862424
23.1071 25.18180076513427
23.4432 26.667223765229537
23.7841 28.11482603035664
24.1301 29.075739970082694
24.4811 29.533732229576728
24.8372 29.651193376039046
25.1984 29.754981327002284
25.5649 30.20614421038333
25.9368 31.067602567499634
26.3141 32.0748120890586
26.6968 32.933027236735526
27.0851 33.530154480125006
27.4791 33.942364795174385
27.8788 34.38286608439587
28.2843 34.999795386610444
28.6957 35.75007032352595
29.1131 36.46838860636528
29.5365 37.02650465806916
29.9661 37.415578501590616
30.402 37.74834788709144
30.8442 38.20531707285669
31.2929 38.816474380375624
31.748 39.48574971613938
32.2098 40.09521003481056
32.6783 40.597456236637086
33.1536 41.090485565477834
33.6359 41.669561075725895
34.1251 42.35236340267785
34.6215 43.03965534548128
35.125 43.6456800275311
35.6359 44.163133704645944
36.1543 44.68652022136452
36.6802 45.28614534780145
37.2137 45.943964246126185
37.755 46.584811869054064
38.3041 47.17372298776108
38.8613 47.75298164683507
39.4265 48.36110107346785
40.0 48.992946549194826
40.5818 49.61852500052153
41.1721 50.23346734490083
41.771 50.85238617503414
42.3785 51.47131125592527
42.9949 52.07453899371764
43.6203 52.664146034133736
44.2548 53.26078012866179
44.8985 53.86597492512469
45.5515 54.468469023788415
46.2141 55.066871899923754
46.8863 55.67184407598309
47.5683 56.28537347185663
48.2602 56.89450775285924
48.9621 57.49211726930501
49.6743 58.08721192665068
50.3968 58.69018923747153
51.1299 59.297576585709706
51.8736 59.90598975128523
52.6281 60.50964538248009
53.3936 61.107563524970274
54.1702 61.70405709890534
54.9581 62.30292784097382
55.7575 62.901038948463224
56.5685 63.4849216875741
57.3914 64.06496806301183
58.2261 64.6435012535083
59.073 65.20945109051458
59.9323 65.76433726107912
60.804 66.3259472775037
61.6884 66.88972022653178
62.5857 67.44889908895156
63.496 68.00242125953196
64.4196 68.53944807313299
65.3566 69.04454395641827
66.3073 69.52024674262395
67.2717 69.97755663608784
68.2502 70.42575655906079
69.2429 70.85723527903438
70.2501 71.28179604301569
71.2719 71.70808297139833
72.3086 72.11491595786515
73.3603 72.49324793812778
74.4274 72.838660647093
75.5099 73.1600689059022
76.6083 73.4633276720538
77.7226 73.73359564940709
78.8531 73.98988529030773
80.0 74.23539286711926
81.1636 74.45959110558162
82.3442 74.6653022937304
83.5419 74.83729438646985
84.757 74.98157439216659
85.9899 75.1101195865436
87.2406 75.23237320097341
88.5096 75.34069176948891
89.797 75.42823716589844
91.1031 75.48417002398928
92.4282 75.4944742331981
93.7726 75.4594656921658
95.1366 75.42271087555852
96.5204 75.43958772499498
97.9243 75.49551889601464
99.3486 75.54779595427776
100.794 75.59366238499483
102.26 75.62873697010072
103.747 75.6554126479425
105.256 75.67187778755756
106.787 75.68287283617111
108.34 75.67654741031534
109.916 75.65149907341944
111.515 75.6105037753938
113.137 75.59805864531226
114.783 75.59140987036838
116.452 75.58080005118067
118.146 75.57637724505103
119.865 75.57573980382041
121.608 75.5768792414852
123.377 75.58266502622716
125.171 75.58774500096212
126.992 75.58379442529939
128.839 75.57003387699203
130.713 75.549912949723
132.615 75.48017037263716
134.543 75.42686055390283
136.5 75.42450898810547
138.486 75.41166593485617
140.5 75.36582210384496
142.544 75.2976123869209
144.617 75.25245267645238
146.721 75.2356458988482
148.855 75.24535348316739
151.02 75.21133711979746
153.217 75.15905393612903
155.445 75.08649554206069
157.706 74.96373679002849
160.0 74.83132347294597
162.327 74.82550003394783
164.688 74.79701807514579
167.084 74.82060919355088
169.514 74.81473777404842
171.98 74.4978690430177
174.481 74.33435547502613
177.019 74.29908390987325
179.594 74.30566968960261
182.206 74.28681656886246
184.856 74.33757117978223
187.545 74.38258669300895
190.273 74.44435008400922
193.041 74.4823262505238
195.849 74.45288038623166
198.697 74.43057513262258
201.587 74.38990423929296
204.52 74.32446260074488
207.494 74.32738985748504
210.512 74.36258423355191
213.574 74.20764485333764
216.681 73.9833322709331
219.833 73.91091330612181
223.03 73.93694209461718
226.274 73.89839862434282
229.565 73.7552247000658
232.905 73.70100032534832
236.292 73.74339927821963
239.729 73.80298325902395
243.216 73.78328122792173
246.754 73.7596523483787
250.343 73.82192642818426
253.984 73.84467812699553
257.678 73.83026299738515
261.426 73.85267591078498
265.229 73.81077600818672
269.087 73.60591742247803
273.001 73.59233906465964
276.972 73.62445537288765
281.0 73.63584752324353
285.088 73.68300328831067
289.234 73.72275874945691
293.441 73.6921476652997
297.709 73.42737843049225
302.04 73.48967366557514
306.433 73.31404468070377
310.89 73.55810850735394
315.412 73.67403587823917
320.0 73.62272850328719
324.655 73.20760672717152
329.377 73.19764724047705
334.168 73.39087701870858
339.028 73.40116924183162
343.959 73.43860392691698
348.962 73.47587356429077
354.038 73.41612059422575
359.188 73.38153110953661
364.412 73.18552445036592
369.713 73.23065080449825
375.09 73.2687503561469
380.546 73.31028415901726
386.081 73.35079494043703
391.697 73.29200525680905
397.394 73.2282184154129
403.175 73.16928502692424
409.039 73.02913946429999
414.989 72.93377210380096
421.025 72.87207131511511
427.149 72.87175525211208
433.362 72.7363590656356
439.665 72.69095894325977
446.06 72.51713147467053
452.548 72.37172975985071
459.131 72.2020973190796
465.809 71.98399376195998
472.584 71.85985749347448
479.458 71.72855409619017
486.432 71.60313106418472
493.507 71.4822763594474
500.686 71.34152438725633
507.968 71.28389680159896
515.357 71.19206114495444
522.853 71.13570508661655
530.458 71.09620778814164
538.174 71.08964531377009
546.002 71.0813815214352
553.943 71.08995846279369
562.001 71.10869496953252
570.175 71.13097549557544
578.469 71.14956479127325
586.883 71.16033370796805
595.419 71.16077458735366
604.08 71.1491120245823
612.866 71.12383883543876
621.78 71.08374847214198
630.824 71.02971704324064
640.0 70.96407275322076
649.309 70.89031391860645
658.753 70.81157960165737
668.335 70.73226475435852
678.056 70.66285774058424
687.919 70.61102819975828
697.925 70.58594626348103
708.077 70.59671308862126
718.376 70.64980543629784
728.825 70.75015270507632
739.426 70.89815247993842
750.181 71.0908779845241
761.093 71.32071982492671
772.163 71.57344464835425
783.394 71.84088682389987
794.789 72.11513459030691
806.349 72.37633997005088
818.078 72.61774286590321
829.977 72.83086148345309
842.05 73.00791558012531
854.298 73.14344208086591
866.724 73.2317645746149
879.33 73.27282037094632
892.12 73.26445095889329
905.097 73.20728488248922
918.262 73.10399511054572
931.618 72.9597557379398
945.169 72.78280454955826
958.917 72.58358941165669
972.864 72.37534485516268
987.015 72.17298147508421
1001.37 71.98490604871351
1015.94 71.83242379374799
1030.71 71.72385483737266
1045.71 71.65665843431127
1060.92 71.62414663174893
1076.35 71.6133690679013
1092.0 71.60629270580895
1107.89 71.58424796398164
1124.0 71.53133822269974
1140.35 71.43513005056333
1156.94 71.28815722386834
1173.77 71.09351029966572
1190.84 70.86248014522458
1208.16 70.6167939897255
1225.73 70.38636777614751
1243.56 70.21122778178027
1261.65 70.13247828692121
1280.0 70.17278186742494
1298.62 70.33240621434202
1317.51 70.58924920307673
1336.67 70.90518578003474
1356.11 71.23469259051969
1375.84 71.54389049315218
1395.85 71.80623878406355
1416.15 72.00429128761947
1436.75 72.13304734508884
1457.65 72.19534421384624
1478.85 72.197359179735
1500.36 72.14905841087882
1522.19 72.06057372433837
1544.33 71.94225803408038
1566.79 71.80192432362172
1589.58 71.6454146003769
1612.7 71.47954670290973
1636.16 71.3085951448122
1659.95 71.1411347093162
1684.1 70.98832057455498
1708.6 70.86095036345021
1733.45 70.76596486292745
1758.66 70.69782532696604
1784.24 70.63966640172684
1810.19 70.56476773631707
1836.52 70.44085460060002
1863.24 70.24236053056175
1890.34 69.95655260693378
1917.83 69.59343033206932
1945.73 69.19145087599358
1974.03 68.81594777692048
2002.74 68.55411005250562
2031.87 68.4713759061739
2061.43 68.57734271892492
2091.41 68.82177832562942
2121.83 69.12311956963566
2152.69 69.40239303978761
2184.01 69.61460512116385
2215.77 69.74451509241347
2248.0 69.80559657091335
2280.7 69.8420832581586
2313.87 69.91184688704041
2347.53 70.06246990301365
2381.68 70.29773150989789
2416.32 70.56899439956426
2451.46 70.79627321318465
2487.12 70.90916545305448
2523.3 70.880640012246
2560.0 70.74450284256942
2597.24 70.58861347095718
2635.01 70.50957766862626
2673.34 70.54626489206306
2712.23 70.65152700778434
2751.68 70.74161619252334
2791.7 70.76870283931125
2832.31 70.75153804967458
2873.5 70.74275366571071
2915.3 70.77017380600412
2957.7 70.8111453017484
3000.72 70.8294378982104
3044.37 70.82446069727038
3088.65 70.835822435705
3133.58 70.88535090607974
3179.16 70.937540851715
3225.4 70.93304737382375
3272.31 70.85663141452385
3319.91 70.7570248093273
3368.2 70.69496505862095
3417.19 70.68284174906059
3466.89 70.6976573741796
3517.32 70.7349022463839
3568.48 70.7985985076295
3620.39 70.85223789467459
3673.05 70.8351680278071
3726.47 70.75069156125097
3780.67 70.69259451961246
3835.67 70.73003609650459
3891.46 70.80826108557605
3948.06 70.83523369104971
4005.49 70.81706816344753
4063.75 70.82067819067827
4122.86 70.84454661122392
4182.82 70.82783110993614
4243.66 70.7667992850048
4305.39 70.71045714459711
4368.01 70.67151957126681
4431.55 70.62934278071047
4496.01 70.58594463750559
4561.4 70.52291944350891
4627.75 70.39866624551142
4695.06 70.24049172379183
4763.35 70.12839993426584
4832.64 70.06765877562788
4902.93 70.0324222678485
4974.24 70.04879247157245
5046.6 70.10172280288783
5120.0 70.13874401859
5194.47 70.17684151940757
5270.03 70.22060595014197
5346.68 70.2222040534962
5424.45 70.2012671538791
5503.35 70.1928197006016
5583.4 70.18998073421943
5664.61 70.20561121519275
5747.01 70.21483224072885
5830.6 70.19004463899147
5915.41 70.18212229567222
6001.45 70.18693681090146
6088.74 70.1824016502684
6177.3 70.1956158860623
6267.15 70.2340421209053
6358.31 70.28825719142442
6450.8 70.3349108157062
6544.62 70.40609688058393
6639.82 70.48772784109264
6736.4 70.53983073682646
6834.38 70.59637554812763
6933.79 70.65519945111208
7034.64 70.73000991805317
7136.96 70.80181612506557
7240.77 70.85811397682063
7346.09 70.85724272824078
7452.94 70.80791542531134
7561.35 70.79074880787333
7671.33 70.84089669456046
7782.91 70.93885282094232
7896.12 71.04521217951591
8010.97 71.08500731476438
8127.49 71.02530632524319
8245.71 70.74639603925725
8365.65 70.56205239342212
8487.33 70.59708214585667
8610.78 70.5652741664123
8736.03 70.43610954075685
8863.09 70.25466343536606
8992.01 70.13194754932236
9122.8 70.0385812122373
9255.5 69.91185675247215
9390.12 69.78463706215993
9526.7 69.68388651634751
9665.27 69.66069788798042
9805.86 69.73231855037609
9948.49 69.94867938820717
10093.2 70.14090480869878
10240.0 70.2565901923373
10388.9 70.41896382734949
10540.1 70.57188377455594
10693.4 70.65676697162387
10848.9 70.74695765398418
11006.7 70.89364568657824
11166.8 71.0909600640199
11329.2 71.25450042116198
11494.0 71.40445947638263
11661.2 71.62767565057383
11830.8 71.74522402713424
12002.9 71.80578473687663
12177.5 71.8463867900657
12354.6 71.86569704776251
12534.3 71.89767892622316
12716.6 71.94713940817569
12901.6 71.98852994407004
13089.2 71.96879746261358
13279.6 71.90881250162035
13472.8 71.86224900592175
13668.8 71.79823845292331
13867.6 71.66469674711348
14069.3 71.42967093561803
14273.9 71.16631855382809
14481.5 71.00172772100943
14692.2 70.94673018985627
14905.9 70.89281099762083
15122.7 70.74537065328084
15342.7 70.4895655324277
15565.8 70.13961183856378
15792.2 69.65147209464975
16021.9 69.10460665970278
16255.0 68.66139967912386
16491.4 68.3041700773791
16731.3 67.8611363200626
16974.7 67.18297251258808
17221.6 66.44503832290054
17472.1 65.8158814089601
17726.2 65.23071834259862
17984.0 64.51385015768174
18245.6 63.897404114309424
18511.0 63.50688519321156
18780.2 63.14179364354975
19053.4 62.678508164321215
19330.5 62.343015514221335
19611.7 62.55299523045372
19897.0 64.49677192962427
