Freq,Floor Bounce,Ceiling Bounce,Front Wall Bounce,Side Wall Bounce,Rear Wall Bounce,Total Early Reflection
22.4,58.995581895493174,59.04253964635433,59.816083318655416,60.024720206271525,61.07961825031066,59.8606639561346
23.0,59.32800727645109,59.442539646354334,60.216083318655436,60.40572280009367,61.4299566812918,60.232572141891026
23.6,59.728007276451095,59.808694003059216,60.61608331865543,60.784796598014466,61.818761602112616,60.61964056801983
24.0,60.09844471119921,60.24253964635432,61.01608331865542,61.16424885491841,62.174804579930765,61.00466678287866
25.0,60.49844471119921,60.67536197877868,61.416083318655424,61.564248854918404,62.561534789406394,61.406725747870425
25.8,60.898444711199204,61.008694003059205,61.816083318655416,61.90388556150563,62.911856499959256,61.77007016450759
26.5,61.269359344734625,61.408694003059225,62.186229335936574,62.24407447253921,63.24026009279088,62.12838925751011
27.2,61.59844471119921,61.70869400305921,62.51409707268806,62.56424885491842,63.5282917098512,62.439895169549885
28.0,61.898444711199204,62.0417721518987,62.88622933593658,62.88342814827028,63.82244359649938,62.76269892308062
29.0,62.26935934473465,62.40869400305921,63.18622933593659,63.18342814827028,64.12244359649938,63.08578147019192
30.0,62.569359344734636,62.70869400305921,63.51409707268806,63.46334286935368,64.41267781412694,63.384927836102364
30.7,62.99844471119921,63.10869400305921,63.92861661352926,63.88297198314356,64.73362920060185,63.77691106842212
31.5,63.43160071863343,63.47536197877868,64.32861661352926,64.24269312897081,65.06796569381858,64.15224878992731
32.5,63.83160071863344,63.808694003059216,64.69952882654404,64.58297198314357,65.37783242292558,64.50043962770984
33.5,64.13160071863342,64.17536197877868,65.08491154723653,64.92241812968462,65.65640154067391,64.83267657458435
34.5,64.53160071863344,64.4753619787787,65.38491154723653,65.22241812968463,65.92387944146722,65.14204894205375
35.5,64.83160071863344,64.77536197877869,65.69952882654403,65.50251277688108,66.19707255062254,65.43469425998582
36.5,65.33160071863344,65.20946736495168,66.15619961529619,65.92241812968462,66.54312814369908,65.86150263809104
37.5,65.79438168392089,65.60946736495166,66.59952882654403,66.32195551074858,66.88410456791081,66.26820165001729
38.7,66.26093920692625,66.00946736495166,67.0279566569182,66.70204803260776,67.23144029311331,66.67029886122253
40.0,66.66093920692626,66.34253964635434,67.3709136879577,67.08204888086918,67.51450893219061,67.01596879233006
41.2,67.02397182522176,66.70946736495165,67.75619961529617,67.40204803260777,67.79200376737583,67.35675774063633
42.5,67.46093920692626,67.10946736495166,68.1709136879577,67.80204803260776,68.12234284654974,67.75158581807563
43.7,67.99075730069421,67.57690274367854,68.65619961529619,68.24223266484788,68.48937624257509,68.2075836692586
45.0,68.42397182522174,67.94484172294125,69.0709136879577,68.62241812968463,68.77807592957633,68.58417175249781
46.2,68.85404393505489,68.31178703447347,69.44276656617944,69.00296689424054,69.10894612641515,68.95969995770415
47.5,69.2540439350549,68.64484172294122,69.84276656617944,69.34316426814634,69.42891535557766,69.3196593867113
48.7,69.75404393505491,69.14484172294124,70.32795665691822,69.80436092930822,69.78180518274003,69.77869703714501
50.0,70.28460245661844,69.57998345078614,70.8279566569182,70.26334286935369,70.16976844072313,70.24317385883873
51.5,70.7540439350549,69.97998345078615,71.24276656617944,70.64407447253922,70.49039774028037,70.64137292843557
53.0,71.18460245661846,70.37998345078614,71.67156714945776,71.06519733574176,70.84298956762959,71.04942713320142
54.5,71.68460245661844,70.87998345078614,72.17156714945776,71.50572280009366,71.2213971038171,71.51456279615141
56.0,72.18460245661846,71.31565176412688,72.6150827751351,71.92703256218415,71.58415839690686,71.94916113411358
58.0,72.6156517641269,71.71565176412687,73.07156714945776,72.32703256218416,71.90544182280627,72.3546480430946
60.0,73.11565176412688,72.1486771622533,73.47156714945775,72.72703256218415,72.25240755879088,72.77231396625979
61.5,73.64719615922533,72.64867716225332,74.04406691883563,73.26935210507258,72.67360055512566,73.29086307726307
63.0,74.14719615922533,73.1486771622533,74.54406691883564,73.73026950799829,73.09469063445937,73.7695002397454
65.0,74.64719615922533,73.58460245661846,75.04406691883565,74.16935210507258,73.47924875535105,74.22676933259773
67.0,75.21491426325954,74.05404393505489,75.54406691883564,74.63209562130062,73.8686789567764,74.71081998294204
69.0,75.71491426325956,74.55404393505489,76.04406691883564,75.11398587294731,74.27924875535103,75.19264990148643
71.0,76.21491426325954,75.05404393505489,76.51574469082242,75.55427237296956,74.65832484352057,75.65463989567556
73.0,76.77923986741186,75.5540439350549,77.04406691883564,76.07618900207002,75.13244973515879,76.17645191481154
75.0,77.34719615922535,76.09075730069422,77.64406691883565,76.6185753520749,75.57998653169517,76.7231561528882
77.5,77.91491426325955,76.62397182522176,78.14406691883563,77.11857535207491,76.0532566392616,77.24054890083191
80.0,78.44719615922534,77.12397182522176,78.68852365565226,77.59998496392447,76.49077413726559,77.74607160282397
82.5,78.94719615922533,77.66093920692626,79.21702337832329,78.06247403311113,76.91229203311998,78.24073355661015
85.0,79.54719615922534,78.19075730069423,79.78852365565226,78.64407100760869,77.402041500631,78.80170183957395
87.5,80.14719615922533,78.76093920692625,80.35916518042406,79.18553173428546,77.91229203311997,79.36495285609364
90.0,80.71565176412687,79.32800727645109,80.91702337832328,79.72682567060404,78.39152709643886,79.91261883986606
92.5,81.27998345078615,79.86093920692625,81.48852365565226,80.25007290836983,78.8436096303572,80.44975531953322
95.0,81.77998345078615,80.33160071863344,81.98852365565226,80.71338852298393,79.30180244647997,80.9318856749473
97.5,82.2156517641269,80.73160071863344,82.38852365565225,81.09520043528444,79.63828715994131,81.32847601582385
100.0,82.6156517641269,81.09844471119922,82.78852365565226,81.4785460266747,79.97041600260106,81.71040357416896
103.0,82.97998345078614,81.43160071863343,83.13221578543194,81.80048744358253,80.28098157956039,82.04882613600847
106.0,83.3486771622533,81.73160071863344,83.48852365565227,82.0785460266747,80.53876677693994,82.370750150632
109.0,83.47998345078615,81.83160071863344,83.61702337832328,82.24422442853474,80.60716422956514,82.4941989267937
112.0,83.5486771622533,81.86935934473463,83.68852365565226,82.24422442853474,80.62857861510894,82.53930466499357
115.0,83.5486771622533,81.86935934473463,83.68852365565226,82.24422442853474,80.60836358095423,82.53670599316985
118.0,83.5486771622533,81.76935934473464,83.64666714563492,82.20825373106769,80.54542389239877,82.49396556776935
122.0,83.5132801597681,81.66935934473464,83.56175638591316,82.10825373106766,80.44081183950404,82.41386872551722
125.0,83.38221383135364,81.46935934473463,83.44666714563493,81.97453856867727,80.29917195086426,82.27360481194637
128.0,83.2132801597681,81.24074660320797,83.24666714563493,81.77453856867729,80.12112994987046,82.0797042028923
132.0,82.98221383135363,80.90766061249559,82.98852365565226,81.47453856867727,79.88577911586329,81.81149768836474
136.0,82.68221383135362,80.479299924899,82.68852365565226,81.17453856867728,79.60857224310377,81.49385191905228
140.0,82.28221383135363,79.97929992489898,82.28852365565226,80.77453856867727,79.26584215336355,81.08566123839704
145.0,81.98221383135362,79.57929992489898,81.91702337832328,80.47453856867727,78.995779837682,80.7554738385543
150.0,81.58221383135363,79.05140471871492,81.54406691883563,80.07453856867727,78.69799349991506,80.35713084127698
155.0,81.051638438622,78.45140471871491,81.07352729051777,79.59239808390058,78.30929223267293,79.86092429477382
160.0,80.31786390639093,77.69075574340714,80.37352729051779,78.97453856867727,77.77208643855923,79.1821140603193
165.0,79.451638438622,76.93065762344874,79.64406691883563,78.21041998135813,77.15675057918766,78.4233826502907
170.0,78.5576990741658,76.36356953878767,78.9170233783233,77.47453856867727,76.52722450819789,77.69100411622215
175.0,77.60273729427055,76.06356953878768,78.31702337832328,76.85892351552846,75.93228761909745,77.05116701293866
180.0,76.62397027979928,76.16356953878767,77.88852365565226,76.2836457519412,75.30296925771424,76.53603200150208
185.0,75.75119463615891,76.62397027979928,77.66175638591315,75.8986762454444,74.66091270818951,76.23382286081832
190.0,75.30314052812635,77.38492041299305,77.86564201286085,75.79259754876321,74.15138309250801,76.31058469958177
195.0,75.62338423723293,78.4126018547417,78.48101490911864,76.2132255808242,73.95473591428009,76.86718915709338
200.0,76.57052825318185,79.41260185474171,79.35541155796751,76.93308726897436,74.03856492524997,77.68861811465342
206.0,78.00903774049482,80.6126018547417,80.47117891881499,77.94701786971167,74.58701191695769,78.81864622288013
212.0,79.44442665530211,81.64074660320796,81.52716345753996,78.99834945956121,75.3325110208823,79.90853731923785
218.0,80.29075574340715,82.07434433236429,82.07117891881498,79.53093665574104,75.82652594001235,80.47097408600985
224.0,80.879299924899,82.24074660320797,82.35541155796753,79.83093665574104,76.1696133564644,80.78854135287631
230.0,81.16935934473463,82.14074660320797,82.35541155796753,79.93093665574104,76.41747849746822,80.855500492073
236.0,81.23160071863344,81.81260185474169,82.18101490911863,79.83093665574104,76.55557204101751,80.7279725197626
240.0,81.12397182522176,81.34074660320798,81.93543805286654,79.60348966307839,76.61899125790144,80.48472924938355
250.0,80.82397182522178,80.71260185474169,81.53543805286654,79.26672074017031,76.57339839244284,80.09474634056707
258.0,80.3875393462834,79.85140471871492,81.02025693336887,78.76672074017033,76.32568096250434,79.54860475465281
265.0,79.72397182522178,78.92397027979928,80.42025693336889,78.17735404702988,75.93098273812701,78.88702297118705
272.0,79.13160071863342,77.9511946361589,79.89177849206945,77.59236678264742,75.34175349012366,78.2407490160739
280.0,78.64074660320797,77.18435488852886,79.60956378734352,77.16405950479917,74.62928190240001,77.75106772811976
290.0,78.42397027979928,76.92338423723292,79.67117891881497,77.01256691671695,73.74511649314647,77.56586668351522
300.0,78.60372082753638,77.30042939207742,79.96227166324574,77.09261625685743,72.6599915929198,77.70849582089181
307.0,79.03683673225702,77.95635110943182,80.3850657596347,77.36069152545123,71.61297307811525,78.07267325629171
315.0,79.60372082753638,78.77953949475412,80.93298800154886,77.77281260934757,71.00089098256477,78.61196346160563
325.0,80.06356953878766,79.4271592565577,81.30938323724055,78.11363731373014,70.99055207806411,79.04862283091202
335.0,80.39075574340714,79.88435488852886,81.53298800154887,78.33955613609483,71.35991962847321,79.35529121123345
345.0,80.57929992489899,80.00903774049483,81.69263428578057,78.51625238366279,71.9130916836691,79.5301786254674
355.0,80.8126018547417,79.88435488852886,81.79998924009371,78.59721781906123,72.39174460439244,79.62886279621804
365.0,81.18492041299307,79.64674883866678,82.0999892400937,78.85824163246177,72.90816655401207,79.84216228865388
375.0,81.49699184498252,79.46779667546562,82.49998924009371,79.1813217557528,73.3868085339349,80.10368487924515
387.0,81.71055249186661,79.41422464397516,82.84464843490272,79.33956265972648,73.66292676085945,80.31249758434478
400.0,81.75119463615891,79.37168172575015,83.06935235934775,79.28928030239284,73.72841219422216,80.39361118769175
412.0,81.60903774049483,79.46635208877768,83.11817272237444,78.97926482546491,73.46876771311024,80.3309673672787
425.0,81.48435488852886,79.69825528604699,83.09555588664418,78.54452387140238,72.8259378150215,80.24232388237105
437.0,81.58435488852888,79.798255286047,83.13521074996206,78.33233128430814,72.0194176017346,80.24776543877127
450.0,81.86009759374843,79.81872990804789,83.2955558866442,78.42989369415871,71.17238286347502,80.3799560956528
462.0,82.0362608412216,79.61872990804788,83.31817272237444,78.54613053573638,70.50079714624087,80.4050653696355
475.0,81.7362608412216,78.98697731289255,83.06340672571169,78.38430535080776,70.46269620054306,80.09335626822428
487.0,80.93357030867278,77.7834916752085,82.38480585659752,77.6249596116422,71.13658910075354,79.32523686657056
500.0,80.13357030867279,76.39062351107178,81.6801926949063,76.69146234442383,72.09630384372524,78.53460362119999
515.0,80.05635110943182,75.2532311323242,81.34065872988451,76.24891356288782,72.38974686326223,78.20186627545962
530.0,80.29354652724612,74.63818258246498,81.31268269974717,76.34053743500702,71.64234364050965,78.18268958480641
545.0,81.31761822717017,74.83900809621413,81.94647917204146,77.15610910771817,71.02930356025882,78.88844517691388
560.0,82.52750996347828,74.95500789593004,82.76935235934774,78.04766795509087,70.71954435473859,79.77773897313878
580.0,83.26722338598582,74.38349167520848,83.42987294777824,78.71728107469089,70.76487748947974,80.38433474867833
600.0,83.2916236587657,73.38649458497974,83.80145769931362,78.94412559177091,70.97987469464923,80.53927933367956
615.0,82.72002960893973,71.34414492572483,83.77333949502739,78.65098737201424,70.94089595087908,80.21048930775783
630.0,81.68102967723443,67.65243079567645,83.62324494020604,78.03766813047281,70.51120311171759,79.62180982629644
650.0,80.28406422832411,64.37043775717807,83.37010438523757,77.43375459264941,69.70983823487887,78.93769456746546
670.0,78.80081745803213,65.0918946784281,83.02160990319983,76.99108418750846,68.69108243037233,78.28707957168933
690.0,77.17387024712349,66.52521276023276,82.57369031450193,76.5564298599685,67.70103637499565,77.61434964501487
710.0,75.51464267515021,66.35318304617462,81.95333080498098,75.96249325452284,66.73280781009099,76.82859657026536
730.0,73.87639676232584,66.13415428401592,81.07185882274773,75.0915654845759,65.83921434945577,75.85789694868001
750.0,72.42323456692363,66.4111454976088,79.85195540430861,73.9204081487957,64.86203931574101,74.66043638758865
775.0,71.3774939723813,66.71429335930864,78.7053001058764,72.78517352968484,63.84975235718359,73.58174600561233
800.0,71.08161425761355,66.8505148098557,78.05333080498097,72.153442726837,62.839597207127156,73.00541187198287
825.0,71.24499720507993,66.58765775875517,77.77010438523756,72.08411596948838,61.98304948037338,72.80842245241183
850.0,71.57009223759569,66.0790343262754,77.4913390866536,72.03304198824148,61.531979790716164,72.64460957097302
875.0,71.9578173069283,65.9587261079913,77.14259486119263,71.66360806586155,61.27237285265154,72.42734385926306
900.0,72.32228275459946,66.09004768029126,76.82160990319983,71.04991397087545,61.2856920333719,72.21754960611068
925.0,72.84377118352027,66.87687765919844,76.6351478476579,70.68923420149736,61.36628594985696,72.2161893190935
950.0,73.66501273192854,67.86416372622332,76.10100418990169,70.26404605716972,60.64502807004128,72.1433454002734
975.0,74.74899632562236,67.91614673016312,75.252747201208,70.3029999518025,59.8786738393306,72.10846051804484
1000.0,75.32241276851035,66.91151223987099,74.69824781292462,70.47766494971131,59.43523548426636,72.06887374409088
1030.0,75.68243471481202,65.31821285382613,74.70935406462442,70.31075216442683,58.89258216130105,72.12180359814937
1060.0,75.71422041835714,65.54300787816511,75.04044457886218,70.36177310291106,59.028681892541044,72.27607804290241
1090.0,75.6041295813195,68.11392880083554,75.15541155796751,70.85975952032638,59.60432433017459,72.48937227120186
1120.0,75.88313365613459,69.78858198710685,75.10956378734352,70.80490229448668,59.562391082844954,72.72536120811894
1150.0,76.37690274367853,70.19438168392088,75.52513611529913,70.67053447064463,59.1864673351177,73.09901708418772
1180.0,76.42397027979926,70.20845623236536,76.24610316152538,70.70188116956324,58.16983154279478,73.38165088984981
1220.0,75.70042939207741,69.97189580453518,76.44464843490272,70.24436655179079,56.40159642194578,73.10526959638167
1250.0,74.69276038691089,69.66424865155439,75.92400964974303,68.94109410807566,54.697515697051074,72.35378856446818
1280.0,74.74351816314643,69.23677274430409,76.18516096507659,68.79257957801606,54.71189696513986,72.43589464847031
1320.0,75.46234980667904,69.2179463380328,76.86339939166132,69.43950650697974,55.64843475498421,73.0642664567941
1360.0,75.66789141442534,68.88204506665454,77.39190084380283,69.65362572641976,57.00030898841467,73.39239256466736
1400.0,75.6017822433331,68.64779629127017,77.99190084380282,69.84199072941303,57.807588965340386,73.68739489823705
1450.0,75.84496189670627,69.2360808500143,78.66323523481437,70.56071765049205,57.45252072014938,74.22399800931152
1500.0,76.32449221242794,70.02417075950643,79.1423500133898,71.04171852225856,57.038235112602536,74.72027505861065
1550.0,76.65565726366594,69.91173336308118,78.99952128075961,70.37750417979808,57.551423825607344,74.68342671598867
1600.0,76.67494087364163,69.8330920428375,78.9918730460309,69.7663979551539,58.40910938345482,74.64135592438673
1650.0,76.12082392737669,69.58514244000665,79.30644999967494,69.44562943851092,58.83663340888347,74.61887711141355
1700.0,75.60787794960213,67.99252884720077,78.97077903373716,69.59996777236182,59.253245254680564,74.20070278581018
1750.0,74.97460619997996,66.79978511742648,78.37344508537706,69.38526797137553,59.280251806442564,73.59885787012068
1800.0,73.27176032492375,66.49532331409931,78.05091955871578,69.14152914926812,58.93409441246163,72.94606036671183
1850.0,72.10222630436039,66.70762942785126,78.08529987901908,70.06402216486244,59.13372709697063,72.84326571285612
1900.0,72.27237253342837,66.71314894896697,77.95072631595605,70.44089597987264,58.564201041907495,72.82110746821249
1950.0,72.90711403921394,66.36101000628545,78.23230121820157,69.72871519607222,55.97327201822063,73.01937809332745
2000.0,72.30711403921393,65.73818076755941,78.36884717015144,69.58122448344102,52.18324082059874,72.9531691972421
2060.0,71.25722741424198,65.51388240989208,78.34468183412504,69.98383646912511,52.356971521890586,72.80393069141178
2120.0,71.5946660576048,66.14226561028448,78.64264202278228,70.29659340472641,53.76461324499488,73.1240344891704
2180.0,72.45005353824247,67.2969955017848,79.02403291136761,70.14802897711847,54.00962803615448,73.55712492256606
2240.0,72.13441666609178,68.29945343011825,78.8673545774792,69.97045072480711,53.83719022924433,73.43702574575035
2300.0,71.6105494069636,68.81260598571222,78.44143808096179,70.2028261988296,54.87517076591874,73.12723531878467
2360.0,71.3629767580484,69.18392193246987,78.54309563179592,70.10954046746949,55.72091995663732,73.18492869662143
2400.0,70.16021034979939,69.4478654603826,78.67850002423691,69.86136122750585,55.160680463061055,73.13702107931618
2500.0,69.1967208189416,69.4503118363198,79.11947530885746,70.9999214043016,54.98276937635856,73.4898539398322
2580.0,70.44590906054617,71.47265482547967,79.62511700413906,72.5610137705454,57.74295310928197,74.32896104800514
2650.0,70.4904619473654,72.88834630340955,78.83186971937465,72.70331718215243,58.67082183953018,74.02879035653996
2720.0,71.74642127401466,72.41906968474831,78.34520814180718,72.12148347331873,57.69332223237281,73.71462154866703
2800.0,74.05190563897148,71.66866432034176,77.60920621094074,68.85681878431343,55.339442917693276,73.255129471481
2900.0,75.57913749583057,71.3220025335581,77.22028030901159,57.89000559722041,53.86946447915878,73.15034751931609
3000.0,76.08319629263913,70.94899632562237,77.83950427887397,65.2452238744521,49.38570968409448,73.7018848217666
3070.0,76.34568357173474,71.41188202805074,78.24495337329861,69.03769019171392,54.05940349577415,74.21520484342675
3150.0,76.72035479199589,73.73365360594426,78.91741637005903,70.34760779043236,55.58148181416337,75.04469134828834
3250.0,76.82892434661115,73.62423968336199,79.03585205464626,70.62580134553515,56.31481795451927,75.13986934930733
3350.0,77.13667476562132,74.03113063022656,81.16868717279475,70.79169520490548,58.08751249902798,76.4452274604367
