Freq "Floor Bounce"
22.4 57.75380974359446
23.0 58.086235124552374
23.6 58.48623512455238
24.0 58.85667255930049
25.0 59.2566725593005
25.8 59.65667255930049
26.5 60.02758719283591
27.2 60.35667255930049
28.0 60.65667255930049
29.0 61.02758719283594
30.0 61.32758719283592
30.7 61.7566725593005
31.5 62.18982856673472
32.5 62.589828566734724
33.5 62.88982856673471
34.5 63.28982856673473
35.5 63.589828566734724
36.5 64.08982856673472
37.5 64.55260953202217
38.7 65.01916705502754
40.0 65.41916705502754
41.2 65.78219967332305
42.5 66.21916705502754
43.7 66.7489851487955
45.0 67.18219967332303
46.2 67.61227178315617
47.5 68.01227178315618
48.7 68.5122717831562
50.0 69.04283030471973
51.5 69.51227178315618
53.0 69.94283030471975
54.5 70.44283030471972
56.0 70.94283030471975
58.0 71.37387961222818
60.0 71.87387961222817
61.5 72.40542400732662
63.0 72.90542400732662
65.0 73.40542400732662
67.0 73.97314211136083
69.0 74.47314211136084
71.0 74.97314211136083
73.0 75.53746771551315
75.0 76.10542400732663
77.5 76.67314211136083
80.0 77.20542400732663
82.5 77.70542400732661
85.0 78.30542400732662
87.5 78.90542400732662
90.0 79.47387961222816
92.5 80.03821129888743
95.0 80.53821129888743
97.5 80.97387961222819
100.0 81.37387961222818
103.0 81.73821129888742
106.0 82.10690501035458
109.0 82.23821129888744
112.0 82.30690501035458
115.0 82.30690501035458
118.0 82.30690501035458
122.0 82.27150800786939
125.0 82.14044167945492
128.0 81.97150800786939
132.0 81.74044167945492
136.0 81.4404416794549
140.0 81.04044167945491
145.0 80.7404416794549
150.0 80.34044167945491
155.0 79.80986628672329
160.0 79.07609175449221
165.0 78.20986628672328
170.0 77.31592692226708
175.0 76.36096514237184
180.0 75.38219812790057
185.0 74.5094224842602
190.0 74.06136837622763
195.0 74.38161208533421
200.0 75.32875610128313
206.0 76.7672655885961
212.0 78.2026545034034
218.0 79.04898359150843
224.0 79.63752777300029
230.0 79.92758719283592
236.0 79.98982856673473
240.0 79.88219967332304
250.0 79.58219967332306
258.0 79.14576719438469
265.0 78.48219967332307
272.0 77.8898285667347
280.0 77.39897445130926
290.0 77.18219812790056
300.0 77.36194867563766
307.0 77.7950645803583
315.0 78.36194867563766
325.0 78.82179738688895
335.0 79.14898359150843
345.0 79.33752777300028
355.0 79.57082970284299
365.0 79.94314826109435
375.0 80.2552196930838
387.0 80.46878033996789
400.0 80.5094224842602
412.0 80.36726558859611
425.0 80.24258273663014
437.0 80.34258273663016
450.0 80.61832544184972
462.0 80.79448868932289
475.0 80.49448868932288
487.0 79.69179815677407
500.0 78.89179815677407
515.0 78.8145789575331
530.0 79.0517743753474
545.0 80.07584607527146
560.0 81.28573781157957
580.0 82.0254512340871
600.0 82.04985150686699
615.0 81.47825745704101
630.0 80.43925752533572
650.0 79.0422920764254
670.0 77.55904530613341
690.0 75.93209809522477
710.0 74.2728705232515
730.0 72.63462461042712
750.0 71.18146241502491
775.0 70.13572182048259
800.0 69.83984210571484
825.0 70.00322505318121
850.0 70.32832008569697
875.0 70.71604515502959
900.0 71.08051060270074
925.0 71.60199903162156
950.0 72.42324058002983
975.0 73.50722417372364
1000.0 74.08064061661163
1030.0 74.4406625629133
1060.0 74.47244826645843
1090.0 74.36235742942078
1120.0 74.64136150423587
1150.0 75.13513059177981
1180.0 75.18219812790055
1220.0 74.4586572401787
1250.0 73.45098823501218
1280.0 73.50174601124772
1320.0 74.22057765478033
1360.0 74.42611926252663
1400.0 74.36001009143439
1450.0 74.60318974480755
1500.0 75.08272006052923
1550.0 75.41388511176723
1600.0 75.43316872174292
1650.0 74.87905177547798
1700.0 74.36610579770341
1750.0 73.73283404808124
1800.0 72.02998817302503
1850.0 70.86045415246167
1900.0 71.03060038152965
1950.0 71.66534188731522
2000.0 71.06534188731521
2060.0 70.01545526234327
2120.0 70.35289390570608
2180.0 71.20828138634376
2240.0 70.89264451419307
2300.0 70.36877725506488
2360.0 70.12120460614969
2400.0 68.91843819790067
2500.0 67.95494866704288
2580.0 69.20413690864746
2650.0 69.24868979546669
2720.0 70.50464912211595
2800.0 72.81013348707276
2900.0 74.33736534393185
3000.0 74.84142414074041
3070.0 75.10391141983602
3150.0 75.47858264009717
3250.0 75.58715219471243
3350.0 75.8949026137226
3450.0 76.42269060187874
3550.0 77.20937829065056
3650.0 77.65355465961784
3750.0 75.96687251848888
3870.0 74.21832544184971
4000.0 74.55153961443574
4120.0 74.58726440923253
4250.0 73.23106624342584
4370.0 71.68231976916437
4500.0 72.59919162048432
4620.0 72.98560267018479
4750.0 72.49871493216502
4870.0 73.18587764658548
5000.0 74.98587764658548
5150.0 74.99108911457458
5300.0 72.7423230662524
5450.0 69.59430485278091
5600.0 72.32799825355812
5800.0 76.23456576856323
6000.0 74.14284828345322
6150.0 73.65080615918106
6300.0 73.8790630956635
6500.0 71.2024167856679
6700.0 69.13735504756247
6900.0 71.70025898090121
7100.0 70.29611123275457
7300.0 70.17173086495735
7500.0 70.4752717407642
7750.0 70.76373727955803
8000.0 73.60942076110277
8250.0 72.6705352212647
8500.0 71.98838259233904
8750.0 70.6361070797735
9000.0 71.60544216262848
9250.0 72.26356812319426
9500.0 69.7940285626378
9750.0 71.364979708917
10000.0 74.55003912656687
10300.0 75.29540175394477
10600.0 75.72843721098675
10900.0 70.79530478451622
11200.0 71.66815474248806
11500.0 68.07064617133645
11800.0 72.71832544184971
12200.0 74.96921935575968
12500.0 74.75488231603009
12800.0 70.76416251123858
13200.0 64.87700326852077
13600.0 62.036341537252895
14000.0 61.396668715976205
14500.0 64.6865421406001
15000.0 66.73955252761748
15500.0 71.2233091781901
16000.0 70.1586096117203
16500.0 68.7315554640684
17000.0 65.56810685779121
17500.0 64.1043887629199
18000.0 62.8770397714101
18500.0 60.528121004899475
19000.0 63.10937829065057
19500.0 60.47901969700523
