Freq,Floor Bounce,Ceiling Bounce,Front Wall Bounce,Side Wall Bounce,Rear Wall Bounce,Total Early Reflection
20.5078,61.4917229861193,61.02531867405003,62.390364687144995,58.53850355814825,61.819841882761466,61.23513618055381
21.9727,60.172050315404164,59.2794908182716,61.20611886684139,56.46806502479615,63.54159769357969,60.72715410070026
23.4375,58.83422731504271,57.33552964068056,59.88903462730332,53.650061178506206,65.11565875070704,60.61464812477357
24.9023,60.20885031599329,58.627288763101745,61.038531757000214,56.35468578841687,67.19568366744481,62.41708698457029
26.3672,62.74487250839783,61.10117920723329,63.29653088404126,59.202854129565566,68.29844299398106,64.1151861993637
27.832,63.916761131838115,63.51053685845511,64.51538297915437,62.38522069837836,70.44168513522102,66.09363293371962
29.2969,66.0697604319028,65.46024986387843,66.34921509610749,64.89713852471618,71.90557250387846,67.84931887584465
30.7617,68.30967289514733,68.10447247443236,68.60845636284145,67.57331020367239,73.22738817547537,69.75356972554496
32.2266,70.96832699755346,71.02109000799317,71.29585801053794,70.39919114075707,74.81669159466574,72.03596513034712
33.6914,71.92367643626035,71.56043597350731,72.12028109682144,71.10808417244007,75.70821195076576,72.84748747478723
35.1562,72.95594406672572,72.54107341666023,73.00557483302757,72.4552602848693,77.22267453532004,74.08366410225666
36.6211,74.31154466462544,74.25213817151558,74.32478811512001,74.2473027396747,78.83875167299735,75.65387658178909
38.0859,76.37991307535073,76.27299965150554,76.30387910051262,76.40273147959866,80.25630914524874,77.45540398085687
39.5508,77.3265452563312,77.31533007489878,77.26574179391238,77.36120665863629,80.82282661066819,78.280565580799
41.0156,78.16310761211334,78.28126105963565,78.11239446805402,78.31645030802996,81.68570290092458,79.168404009354
42.4805,79.02446950214353,79.20160061800844,78.98890185388794,79.24303692116038,82.40024472541337,80.00098457950598
43.9453,79.78938367289834,79.94971458125607,79.7238499768361,80.02964056643192,82.99523498191589,80.70367825687185
45.4102,80.48277975069844,80.6273704811833,80.38958305435331,80.76013591867496,83.57442056251493,81.35802558192252
46.875,81.0471250488917,81.2157813899212,80.95525318044423,81.34542769621387,83.96076906509944,81.87192465797293
48.3398,81.6430403465933,81.82042350721396,81.54999830348144,81.95501669988494,84.3924384002345,82.41916093825635
51.2695,82.54797350233757,82.70297709801348,82.43434828369195,82.87175513678281,85.02726058726688,83.23556914320335
52.7344,82.96602872964777,83.12269185246635,82.85196015450808,83.29430394716164,85.30068516172163,83.61148930469784
54.1992,83.33823289197909,83.50618061658928,83.22780192472364,83.67407104892408,85.5410928250113,83.94928797995925
55.6641,83.70147246322028,83.89068094742652,83.60455519137494,84.0433528023789,85.76901136056968,84.2812480480396
58.5938,84.3193136202801,84.51390900990654,84.23143882926873,84.67057686291577,86.18926601638876,84.84869554930046
60.0586,84.60554634310186,84.79573272935309,84.51928590170235,84.95974347517327,86.38716986891549,85.11107930753272
62.9883,85.04976210123793,85.24326397013546,84.96205390041715,85.42350205579716,86.6982142054271,85.52414195015722
64.4531,85.36500655229318,85.5225585920126,85.2707829994543,85.72553394195096,86.87992343693212,85.79425415494113
67.3828,86.01242264766466,86.17587252684467,85.93895551474924,86.34270885011608,87.21548905593785,86.36254274002093
68.8477,86.20641152035714,86.42006367698683,86.14694079920486,86.57501613428425,87.46160117381429,86.58905250242894
71.7773,86.75736185870443,86.95291661174522,86.71097878388127,87.12664813857731,87.853797784466,87.10074049967936
74.707,87.22974812460993,87.40636197931252,87.19025121827644,87.59916310253737,88.21988955922606,87.54569565680418
77.6367,87.57426712887634,87.74173953100157,87.54536600292724,87.95489741278273,88.48486647723384,87.87423447004755
79.1016,87.7375704944888,87.89751463063195,87.71445424628385,88.12039655274299,88.599043828759,88.02634030554816
82.0312,88.04520528217648,88.17165697628452,88.02539024333045,88.4256247259029,88.81426166030252,88.30666872145162
84.9609,88.26739047371598,88.36463836282184,88.25630845611778,88.65075293627262,88.96407261337437,88.50927608267631
87.8906,88.59655382700237,88.67002922396259,88.61577978100132,88.97523763999715,89.17847145262488,88.81340049812235
90.8203,88.9748761549767,89.06728951757958,89.02795477608451,89.3751616527909,89.505509971806,89.19529351146357
95.2148,89.21796786749391,89.25998582418066,89.27914116200363,89.6240384742249,89.68523767747752,89.41786064200407
98.1445,89.26806776005647,89.27280723686485,89.33433458775112,89.66705364315274,89.6706710201253,89.4465992730666
101.074,89.2685449749083,89.24484378502832,89.34792465718174,89.66430170908737,89.5893384049158,89.42639341182138
105.469,89.30448795295706,89.30103883213086,89.43517976002195,89.70977907989008,89.50605447943177,89.4539565695577
108.398,89.33310303041904,89.23978637866648,89.45646070126583,89.72510224647301,89.47529746515696,89.44905872746287
112.793,89.05231012283436,88.95059648076656,89.21000097878542,89.47632382630103,89.23514313833097,89.18858860434682
117.188,88.71475604318262,88.518844449489,88.90184623136035,89.08578949530452,88.6897384578895,88.78656279860984
120.117,88.78067349836871,88.52127094187502,88.99168954228065,89.08772847610314,88.46588858969527,88.77645977585783
124.512,89.49237980985559,89.21837822244919,89.7077750691362,89.84475043537162,89.25721068082204,89.51102652427466
128.906,89.30284255693108,88.9936312391017,89.53701169220705,89.6643463193486,89.11678788998867,89.33015392128232
133.301,89.06833140085922,88.7551373549997,89.34889347316862,89.41690708878896,88.67425465046074,89.06310330786229
139.16,88.72855419219343,88.47355450637045,89.04754775522365,89.13160719677562,88.20033371826196,88.73021990650983
143.555,88.46026259096459,88.1631996348627,88.82503959747977,88.89696321376101,87.97325092315785,88.47864700829263
147.949,88.28728002065486,87.91990818033908,88.76775762599635,88.72813116656415,87.74963656013122,88.31004197732584
153.809,88.6479146204936,88.08572676792875,89.0529871113967,89.02449064151496,87.84259151474464,88.55810490324012
159.668,87.92226943099095,87.29010243670689,88.37136417030547,88.48228174616354,87.25414358022435,87.89483837302825
165.527,87.72995797582566,87.05173735572424,88.30770727059347,88.2975873217035,87.14131528731185,87.73913368975931
171.387,87.80315738581409,86.9566677064642,88.41464001202911,88.22769604543493,86.75918511862605,87.68260558451914
177.246,88.13191605764723,87.55638393508981,88.75625526871387,88.7704581106987,87.45056640907544,88.16969137195508
183.105,87.89455148596599,87.06509017419974,88.53368776432823,88.48436413311086,87.2857779378372,87.89399270647033
188.965,87.64846631385385,86.74393169622023,88.35889951623165,88.21579275393091,86.98797443788338,87.63817872228934
196.289,87.35925553196202,86.48300938915717,88.173630700438,88.01062375751222,86.88525507462712,87.42986459996757
203.613,86.96989653693593,85.94838910357323,87.87452355532032,87.60511467025623,86.3962801842768,87.01805880759458
210.938,86.9098769262265,85.83322636246754,87.91502666283405,87.45421519657032,85.59307187916404,86.83349447647684
218.262,87.09640220540737,85.86879347596081,88.03739351478,87.75307767656639,85.85413768334745,87.01766970388667
225.586,86.50073830170383,85.12682372262297,87.54980709649702,87.22551733044622,85.87351755443693,86.5432400530618
232.91,86.29613475976518,84.55030486448202,87.3831158250029,86.72698572477049,85.24505347982662,86.1573234904644
241.699,86.68127764542739,84.82319554598962,87.76021933006334,87.15329117446703,84.54500671598046,86.37563477998347
250.488,86.4162413500943,84.6256622347456,87.66232678121466,86.69452383361376,83.15710118832962,85.99018685332332
259.277,87.23667209639598,85.24024271423167,88.59014114016853,87.9814846008743,84.2544076661761,86.95635843560943
268.066,87.11099290839434,85.48785257084448,88.52225045638247,88.42576898612343,85.53747337496928,87.2154716040805
276.855,86.25129167423536,84.2351879290047,87.84025332334102,87.40426166729694,85.28272279571496,86.400316510685
287.109,85.51098089406018,83.39661084997054,87.40511287204613,87.13393833240984,84.5100821265057,85.85208787190754
297.363,85.89336201710141,83.25385952368234,87.2152543745227,87.25963239845483,84.47332344364881,85.88566918271184
307.617,85.6607796026858,83.5632920545217,87.40387738382033,87.20306492692848,85.00136231202657,85.992038929661
319.336,85.49990063686383,82.45191437603552,87.16119465701843,86.51573184725777,84.02717165150334,85.44535321512117
329.59,85.9442501066263,83.4363626649149,87.76609430141906,86.84837798511435,83.79849487562583,85.8778062931452
341.309,85.55984849365095,82.62067865239791,87.6630878061833,87.00541596949996,84.0189820912304,85.75311885851937
353.027,84.84345560117974,81.53448671018694,86.91093903232245,85.89796436800941,83.61726030945147,84.93398909437164
366.211,84.65090684913135,81.62916090324856,87.04085000519567,86.89986904702906,83.21060007249052,85.16521973938346
379.395,84.46255094144891,80.31477093860477,86.83020430815884,86.6045303272038,83.19906711589564,84.87239059759517
392.578,84.16299653983913,79.6284344083225,87.09072388883871,86.26649569980128,83.57220299759261,84.81525458915368
405.762,84.30429840172907,80.33133384893438,87.06917551304754,86.53185575593429,83.90510984347057,85.0032265914004
420.41,82.62264183934845,78.32161283161923,85.84442508586508,86.02755145860138,83.76563382295333,84.06062567024064
435.059,84.16784531455463,79.16529534184758,87.27138467143817,86.11604590236125,83.73202708692946,84.8348805632715
451.172,85.1868930804699,80.66522167065592,88.33860683638466,86.53836182359413,86.15847180973908,86.00396643389848
465.82,87.08217265907851,81.58676473666836,90.08922484179493,88.02574238222215,85.14115145016454,87.22140899146281
483.398,86.08674589506207,80.34992723049457,89.48061301269757,89.04896610898402,84.35237197562807,86.95055009558962
499.512,84.94749575765846,79.39554704561198,89.15325929280898,88.73328617879031,84.46370756858128,86.52981111230247
517.09,83.89123603959014,78.08748092501718,88.27963769395234,86.97183143000413,84.73030922999902,85.50817838488996
536.133,83.51241318116453,77.44823448425052,88.17926723921235,87.82624866865056,85.84072317239033,85.86049445877248
555.176,83.7496098802802,79.00106259208539,88.56365639550178,86.0899031308589,85.18003216744188,85.49251895853806
574.219,84.86146086115085,77.76419704392765,89.09235353651943,85.73491993095908,83.22262893941055,85.4704008774512
594.727,84.22617030359952,77.16112940889315,89.39878492255163,87.324118663337,82.15309181306024,85.77847353911065
615.234,84.62236198178255,79.79354706411158,89.4886424958011,87.35995094166469,82.54443453845917,86.01696308533809
637.207,83.74149541913243,77.45008238910374,89.28180610187911,86.51203927752229,81.9031028543602,85.42267752240419
659.18,82.61240750797036,77.71678616277939,88.25836278844555,87.21926428174628,82.36587697342162,85.0807048625388
682.617,81.56133966584184,75.93274276635566,87.99306680147977,85.94834071672332,83.47626066044562,84.55899371505224
707.52,82.01439342479587,78.13366847002455,88.59743218701111,86.1531284675437,81.6057171885709,84.78629972836315
732.422,81.68227795756906,77.5293314738674,87.94138940473887,85.1105532043405,82.48835094408122,84.24278967065312
757.324,81.86890876404803,78.94789502573616,88.49997181377701,85.79517618879031,81.38794507956123,84.64676300551709
785.156,81.24953211599724,79.93138739483726,88.01136996217885,87.12401489694378,83.99874757798355,85.13538031998928
811.523,81.44662428276459,78.61146214416529,88.4144074150346,88.89314795225695,82.97875619260252,85.7515764005322
840.82,82.93816107060165,79.42023001439327,88.81628161061926,87.19999509113741,82.60407470326587,85.44708565709129
870.117,82.49176702645293,79.34552880020753,88.93280414784454,85.69061425803432,82.31174697542878,85.01511697086416
900.879,82.84807030107613,80.43285341626017,89.22656525764936,85.51808214113922,81.87864313454679,85.18627129829058
933.105,79.78447627566239,80.35170636682095,88.40539131306235,85.83861109192044,77.80968386207911,84.28218778487741
965.332,80.61151408632827,81.1452213771118,87.79421462053237,86.45335107452826,79.66849436154442,84.41416444626054
1000.49,81.08425042500176,83.63673636931529,87.74706707039856,85.71226695771479,81.69381230295612,84.69803707042531
1035.64,83.4732217061878,83.72443302217633,89.2408436596123,85.95916082929173,83.82075941852301,85.87324366096323
1072.27,81.48587177796627,86.18411918437059,89.00238266701078,84.81519389478959,80.4112093469181,85.47501908197076
1108.89,83.12040945269447,86.5484485033734,88.75390904692921,83.68664746597993,79.96672800194455,85.41664010863198
1148.44,82.42647515903383,86.77511784543748,87.23450698669033,84.84956025242938,80.38729504464898,85.03660253424373
1189.45,82.01133714899272,86.73372440572201,87.19863227115384,84.20431987597247,81.25152323705471,84.91813875754671
1230.47,84.214857529317,87.5933037717515,86.99679694547903,85.2525243150979,81.9504557081457,85.63754157631392
1274.41,84.79953359154875,88.63217362522215,86.60321248270272,85.00613533065261,80.49720089257617,85.83882273398201
1319.82,85.34258173971665,87.87144223653284,88.57363086304892,84.73445451629959,77.21880566713284,86.07448019306992
1366.7,84.54175279217515,87.77584780382992,88.09159521302577,84.39199358502165,79.35814714105089,85.77345030849486
1413.57,84.44659214708102,86.01341672251158,88.09353121619603,84.76593674545964,77.51789864517073,85.259585674468
1463.38,83.88367783246704,83.95267933149961,88.34614446579701,83.54495408423642,78.97424528456467,84.71727548037384
1516.11,82.83672082730678,83.6415689955777,87.73481318388973,83.77812755076027,78.35945387006288,84.2300170367966
1568.85,82.27388380618993,79.86184799660462,87.41574122599475,83.08908315318858,75.83259110211081,83.25998966705208
1624.51,80.83023241902806,79.11974058968696,87.76267609012082,82.98087108733101,74.69046406947544,83.13115888716754
1681.64,79.77959851044238,76.94834980251449,87.94040033231173,82.52582431387951,76.13445759905666,82.95297238585374
1741.7,79.21397420449324,75.3415898036717,87.92026933575244,83.58279417502439,74.6255854275158,82.98558830790049
1803.22,77.59796787686582,72.31262503983638,88.94607205635795,84.68818132851645,76.41679457106049,83.79201894274716
1866.21,76.54771267774163,73.3334372387105,89.55740823328823,85.09007441409207,75.80310967266655,84.25116072446193
1932.13,76.82084964463297,76.55989877335159,89.65005256939726,85.30209648169419,76.37623222620147,84.46656985011101
1999.51,77.79812923265082,78.70952427131378,89.78141548671857,85.04061696787258,74.81487080259127,84.57863945355183
2069.82,78.95975595335501,80.87116228685426,90.16386558688174,83.98861920362451,74.67033179531339,84.8264711154896
2143.07,79.26940423024982,81.94936558223765,89.97998343931718,83.98071746803734,73.87201534778049,84.80304635325369
2219.24,80.97085039709708,82.69583525990024,89.25199659808455,83.54405128392278,73.58826329017774,84.47735866907315
2296.88,83.85830797731438,84.07991130105643,89.14255878903653,83.271539367214,72.51308108095878,84.91375759906794
2378.91,84.45360315908898,85.29567971796119,89.03943826469404,82.37406672630415,73.03279405883315,85.08334227885072
2462.4,85.24609632143522,84.32390758412944,88.64163486988858,82.11653178844317,72.60312183447442,84.82223864140218
2548.83,87.22046887935277,85.04301697934828,89.15824966480108,81.96053877000043,72.02941150023598,85.66668610173306
2639.65,87.44049711533927,85.89418876438683,89.16452807404801,81.8001481594757,71.98515792969249,85.87793574126565
2731.93,87.609527017883,84.20056711354414,88.81232935772584,81.89847807477265,72.41007440875438,85.4967620441297
2828.61,88.45084886757991,84.86563660954963,89.06869489613206,82.2448341677727,71.23375766479192,86.00870907276709
2928.22,88.19069681664061,84.94418706540644,88.82048558638893,81.21606130671795,71.31547684326495,85.75068992802905
3030.76,87.91153738738697,84.1852874131373,88.68097137694784,81.12449612440619,70.17138809012997,85.46147157938185
3137.7,87.98937994160887,84.6059386349136,88.41216928332047,81.47326501160694,70.39422467362597,85.47361976466952
3249.02,87.82629592788959,84.51545474485081,88.61290939272132,82.10461468850987,70.49902705806197,85.53695133816993
3363.28,87.7579944959981,83.93181236695442,88.68619966370063,82.39749966583307,72.28431013135628,85.49884414471698
3481.93,87.58091291811954,83.8372614564563,88.9117069334253,82.21238955155843,72.90801106000578,85.51249006370747
3604.98,87.8582522040945,83.55131005927183,89.03078000421635,82.24548785569057,71.76082160846232,85.61080536030804
3732.42,87.34909572361687,83.14494155993975,89.10441976704,82.37582724776728,71.81880126814994,85.44343363684052
3864.26,87.61858545354667,83.39100133480825,89.22724778813622,81.8084334159402,70.34640006191859,85.55266296388005
4000.49,87.17415814811383,83.23562735369924,89.06373951345381,82.36965696013331,69.8012370605346,85.36694669320741
4141.11,87.67015279667109,83.7915192690812,89.29080198380132,81.43984820636956,68.90592047034012,85.61255780617593
4287.6,87.25331575579054,83.83216492655876,89.07010951448419,81.27609138521434,68.28399233680844,85.36836980027905
4438.48,87.44847648121288,84.07270563870767,88.97421525794607,81.39670274430726,69.24775710160107,85.43349727771052
4595.21,87.49308984275302,85.02305260735508,88.75698716102863,81.39070948671758,69.49280299043849,85.50742086620494
4756.35,87.58987647203432,85.01704248138242,88.56331981734493,81.37988014124258,69.40933508976195,85.45565203078968
4924.8,87.36738631222194,85.21689798017505,88.47298610623281,81.65962954378662,69.36487751630185,85.40727093632995
5097.66,87.74598315287632,84.66087341082067,88.85395863153266,81.68404503147057,67.67326357967124,85.58436756650174
5277.83,88.01458254074251,83.50122066901659,89.0354371499347,81.61755862804208,65.62699991655359,85.5790011809163
5463.87,88.01604467854634,83.30474319859371,89.30746180783049,81.404134853382,68.07921743551745,85.66913322414959
5657.23,87.4454289829366,83.25553765718854,89.61275572889213,81.29557876815419,65.97181350714791,85.61183900829283
5856.45,87.49439951494799,83.2322463116071,89.996502388379,80.5671133991749,66.77669900681748,85.77493679789401
6062.99,87.95195341981616,82.28144538234613,89.99832631147063,80.02838666192994,64.97757162648793,85.78990230432132
6276.86,87.9782665786246,81.29379628460968,89.8083662974559,79.42455595839967,64.75346823447063,85.58690217434872
6498.05,87.91503175632506,81.3045186984557,89.80388459245023,79.28912580305482,64.09556194598642,85.55598727531317
6726.56,87.71544778624664,81.51368805515523,89.61788993511375,79.03747664781076,64.1021801223373,85.39354641114228
6963.87,87.29655224290745,80.79359910758826,89.40141950753659,79.04536992808951,64.24759822252878,85.080795882828
7209.96,87.23402114174769,80.20699286143696,89.33513848167642,79.0048380880232,63.54148810406596,84.97938254671611
7464.84,87.20651619148936,80.00010190443146,89.30122349313623,78.71806237685593,62.40388506124589,84.92244798152336
7727.05,87.46186850462543,80.30188694964164,89.28781286661825,78.2903858929889,61.99708978751789,85.00351643291752
7999.51,87.43693100602813,80.12542562307607,89.4124216717797,77.94400709302553,62.52802182399765,85.03708881895314
8282.23,87.23893266856764,79.45970124565206,89.48119641117015,77.72864631890201,61.9520458439151,84.95843159848525
8573.73,87.14384430682128,79.05865059488269,89.50804167443573,77.2721347150076,62.35869682363057,84.90397292484451
8876.95,86.63006133663572,79.41651344625127,89.42966907756482,77.27568561019385,61.68891423376374,84.71146118321204
9188.96,86.47078925250646,80.07080267054278,89.28413360670781,76.76122956011548,61.00703286422433,84.60015043680784
9514.16,87.01788318497863,80.11172308397937,89.30489879403326,76.1409855814675,60.964166882205916,84.77217567026145
