Freq,Floor Bounce,Ceiling Bounce,Front Wall Bounce,Side Wall Bounce,Rear Wall Bounce,Total Early Reflection
20.0,43.96857099999998,43.96857099999998,43.96857099999998,43.96857099999998,43.96857099999998,43.96857099999998
20.290899,43.841572,43.841572,43.841572,43.841572,43.841572,43.841572
20.586,43.710571,43.710571,43.710571,43.710571,43.710571,43.710571
20.8855,43.575569000000016,43.575569000000016,43.575569000000016,43.575569000000016,43.575569000000016,43.575569000000016
21.189301,43.437572,43.437572,43.437572,43.437572,43.437572,43.437572
21.497499,43.299572,43.299572,43.299572,43.299572,43.299572,43.299572
21.8102,43.16357000000001,43.16357000000001,43.16357000000001,43.16357000000001,43.16357000000001,43.16357000000001
22.127399,43.02857199999998,43.02857199999998,43.02857199999998,43.02857199999998,43.02857199999998,43.02857199999998
22.4492,42.89357,42.89357,42.89357,42.89357,42.89357,42.89357
22.775801,42.76057100000001,42.76057100000001,42.76057100000001,42.76057100000001,42.76057100000001,42.76057100000001
23.1071,42.624568999999994,42.624568999999994,42.624568999999994,42.624568999999994,42.624568999999994,42.624568999999994
23.443199,42.48257099999999,42.48257099999999,42.48257099999999,42.48257099999999,42.48257099999999,42.48257099999999
23.7841,42.33256899999999,42.33256899999999,42.33256899999999,42.33256899999999,42.33256899999999,42.33256899999999
24.1301,42.17157000000002,42.17157000000002,42.17157000000002,42.17157000000002,42.17157000000002,42.17157000000002
24.4811,41.999568999999994,41.999568999999994,41.999568999999994,41.999568999999994,41.999568999999994,41.999568999999994
24.8372,41.81657,41.81657,41.81657,41.81657,41.81657,41.81657
25.1984,41.624568999999994,41.624568999999994,41.624568999999994,41.624568999999994,41.624568999999994,41.624568999999994
25.564899,41.42756999999999,41.42756999999999,41.42756999999999,41.42756999999999,41.42756999999999,41.42756999999999
25.9368,41.22856900000001,41.22856900000001,41.22856900000001,41.22856900000001,41.22856900000001,41.22856900000001
26.3141,41.030570999999995,41.030570999999995,41.030570999999995,41.030570999999995,41.030570999999995,41.030570999999995
26.6968,40.837570000000014,40.837570000000014,40.837570000000014,40.837570000000014,40.837570000000014,40.837570000000014
27.0851,40.64556900000001,40.64556900000001,40.64556900000001,40.64556900000001,40.64556900000001,40.64556900000001
27.479099,40.453571,40.453571,40.453571,40.453571,40.453571,40.453571
27.878799,40.258572,40.258572,40.258572,40.258572,40.258572,40.258572
28.2843,40.056572,40.056572,40.056572,40.056572,40.056572,40.056572
28.6957,39.845569999999995,39.845569999999995,39.845569999999995,39.845569999999995,39.845569999999995,39.845569999999995
29.1131,39.62356900000002,39.62356900000002,39.62356900000002,39.62356900000002,39.62356900000002,39.62356900000002
29.536501,39.389572,39.389572,39.389572,39.389572,39.389572,39.389572
29.966101,39.14957,39.14957,39.14957,39.14957,39.14957,39.14957
30.402,38.905570999999995,38.905570999999995,38.905570999999995,38.905570999999995,38.905570999999995,38.905570999999995
30.8442,38.66556899999999,38.66556899999999,38.66556899999999,38.66556899999999,38.66556899999999,38.66556899999999
31.2929,38.434569999999994,38.434569999999994,38.434569999999994,38.434569999999994,38.434569999999994,38.434569999999994
31.748,38.214569,38.214569,38.214569,38.214569,38.214569,38.214569
32.209801,38.01057100000001,38.01057100000001,38.01057100000001,38.01057100000001,38.01057100000001,38.01057100000001
32.678299,37.829571,37.829571,37.829571,37.829571,37.829571,37.829571
33.153599,37.672568999999996,37.672568999999996,37.672568999999996,37.672568999999996,37.672568999999996,37.672568999999996
33.635899,37.544571000000005,37.544571000000005,37.544571000000005,37.544571000000005,37.544571000000005,37.544571000000005
34.125099,37.45557000000001,37.45557000000001,37.45557000000001,37.45557000000001,37.45557000000001,37.45557000000001
34.621498,37.41457000000001,37.41457000000001,37.41457000000001,37.41457000000001,37.41457000000001,37.41457000000001
35.125,37.424572,37.424572,37.424572,37.424572,37.424572,37.424572
35.635899,37.49457199999999,37.49457199999999,37.49457199999999,37.49457199999999,37.49457199999999,37.49457199999999
36.154301,37.620571,37.620571,37.620571,37.620571,37.620571,37.620571
36.680199,37.809569999999994,37.809569999999994,37.809569999999994,37.809569999999994,37.809569999999994,37.809569999999994
37.213699,38.06856900000001,38.06856900000001,38.06856900000001,38.06856900000001,38.06856900000001,38.06856900000001
37.755,38.387569,38.387569,38.387569,38.387569,38.387569,38.387569
38.3041,38.757571999999996,38.757571999999996,38.757571999999996,38.757571999999996,38.757571999999996,38.757571999999996
38.861301,39.16457000000001,39.16457000000001,39.16457000000001,39.16457000000001,39.16457000000001,39.16457000000001
39.426498,39.609570000000005,39.609570000000005,39.609570000000005,39.609570000000005,39.609570000000005,39.609570000000005
40.0,40.085571,40.085571,40.085571,40.085571,40.085571,40.085571
40.581799,40.579571,40.579571,40.579571,40.579571,40.579571,40.579571
41.1721,41.087570000000014,41.087570000000014,41.087570000000014,41.087570000000014,41.087570000000014,41.087570000000014
41.771,41.609570000000005,41.609570000000005,41.609570000000005,41.609570000000005,41.609570000000005,41.609570000000005
42.378502,42.14556900000001,42.14556900000001,42.14556900000001,42.14556900000001,42.14556900000001,42.14556900000001
42.9949,42.68257100000001,42.68257100000001,42.68257100000001,42.68257100000001,42.68257100000001,42.68257100000001
43.6203,43.21857099999998,43.21857099999998,43.21857099999998,43.21857099999998,43.21857099999998,43.21857099999998
44.254799,43.75456999999999,43.75456999999999,43.75456999999999,43.75456999999999,43.75456999999999,43.75456999999999
44.898499,44.28957000000001,44.28957000000001,44.28957000000001,44.28957000000001,44.28957000000001,44.28957000000001
45.551498,44.822570999999996,44.822570999999996,44.822570999999996,44.822570999999996,44.822570999999996,44.822570999999996
46.2141,45.354572000000005,45.354572000000005,45.354572000000005,45.354572000000005,45.354572000000005,45.354572000000005
46.886299,45.880568999999994,45.880568999999994,45.880568999999994,45.880568999999994,45.880568999999994,45.880568999999994
47.568298,46.40156900000001,46.40156900000001,46.40156900000001,46.40156900000001,46.40156900000001,46.40156900000001
48.260201,46.91556899999999,46.91556899999999,46.91556899999999,46.91556899999999,46.91556899999999,46.91556899999999
48.962101,47.422568999999996,47.422568999999996,47.422568999999996,47.422568999999996,47.422568999999996,47.422568999999996
49.674301,47.925571000000005,47.925571000000005,47.925571000000005,47.925571000000005,47.925571000000005,47.925571000000005
50.396801,48.42649237507099,48.42611688323096,48.426619604151924,48.42584124312039,48.42485452041073,48.42598497069871
51.129902,48.92141159851094,48.920655110477085,48.92166792295872,48.92009981001159,48.9181118594053,48.920389444951596
51.8736,49.4113326708427,49.41018968456363,49.411719956217,49.409350706078854,49.40634702665777,49.409788430453304
52.628101,49.92425056973953,49.922715476335085,49.92477071785292,49.92158872466909,49.9175545329408,49.922176764730025
53.3936,50.369167274075195,50.367234363562275,50.36982222105529,50.365815670294225,50.3607359151673,50.36655629440712
54.1702,50.842081772737416,50.83974528184898,50.8428734728255,50.83803044042391,50.83188992882329,50.83892594084138
54.958099,51.30999504428006,51.30724910710343,51.310925486559015,51.30523383664128,51.298017103707096,51.3062865485535
55.7575,51.77290906671665,51.76974771210517,51.77398027599064,51.767427655539606,51.75911895774577,51.76863995820476
56.568501,52.23281982948858,52.22923703563451,52.23403384779253,52.22660779978766,52.21719125832281,52.22798209568974
57.391399,52.69173030038958,52.68771989142256,52.69308922203025,52.6847769711833,52.67423630006341,52.686315725908045
58.226101,53.14764048964774,53.14319633830506,53.14914639252801,53.13993526533612,53.12825430412211,53.141640929747226
59.073,53.59754535461987,53.59266112970987,53.5992003858171,53.589077287238084,53.576239337071954,53.5909523947539
59.932301,54.046452873121254,54.04112213722807,54.04825921578133,54.03721083176394,54.02319891212623,54.03925796094434
60.804,54.494360045707126,54.48857636380025,54.496319882241565,54.48433290482386,54.469130039022204,54.48655463764716
61.6884,54.9402628395391,54.934019619460415,54.94237840568256,54.92943920248025,54.91302799817116,54.93183818594731
62.585701,55.38316623298856,55.37645677898497,55.38543979966083,55.37153452484493,55.35389731468864,55.37411345052125
63.496,55.82306621563505,55.81588378188742,55.82550007080327,55.81061477605412,55.791733758391146,55.81337635955457
64.419601,56.26296375454602,56.25530143762548,56.26556023967292,56.24968065138954,56.22953760734303,56.252627674063675
65.356598,56.698862839635936,56.69071368762836,56.701624312701355,56.68473605815011,56.66331263850462,56.68787132509583
66.307297,57.1327614377651,57.12411834013382,57.135690310593944,57.11777868975939,57.0950561252091,57.121105072569364
67.271698,57.56565554908029,57.55651139566395,57.568754233460865,57.549804548506344,57.52576406774308,57.5533249239207
68.250198,57.99554913055469,57.98589660531631,57.998820108141175,57.97881723614877,57.95343952327748,57.98253456606197
69.242897,58.42044017146871,58.41027190681605,58.42388594148419,58.40281465421886,58.376080254554964,58.40673192612128
70.250099,58.845330638921965,58.83463910973545,58.8489537540771,58.8267984984998,58.79868753970264,58.83091876673602
71.271896,59.27122152307463,59.25999915686087,59.27502455223801,59.25176967874863,59.22226216048726,59.25609602198877
72.308601,59.69710779005935,59.68534685215171,59.7010933571688,59.67672288185024,59.64579837367832,59.68125844783732
73.360298,60.11999343091638,60.107686143456746,60.124164174656514,60.09866202579134,60.06629998006717,60.10340998533353
74.427399,60.54387740102591,60.53101577258575,60.54823603257894,60.52158569779273,60.48776500126543,60.52654931120553
75.509903,60.96775970068198,60.954335740825925,60.9723089310077,60.94449390175127,60.909193440010355,60.94967643562633
76.608299,61.3936382769066,61.37964374166556,61.39838090301653,61.36938414744618,61.332582135022264,61.374788973942756
77.722603,61.81952012815695,61.80494676575394,61.82445894983057,61.79426342180987,61.755938048676526,61.799893923203754
78.853104,62.24539522321412,62.23023463226643,62.25053309106487,62.219121436542096,62.17925049483246,62.22498106068174
80.0,62.672272540759664,62.65651621756656,62.67761234021093,62.64496699521901,62.60352800353799,62.65105923733306
81.163597,63.10214304774125,63.08578233020383,63.1076877180398,63.07379079262897,63.03076084829716,63.080119217477275
82.3442,63.53501671122372,63.51804277938594,63.54076924526164,63.50560252470031,63.46095830500609,63.5121707666636
83.541901,63.97188752143312,63.95429150813409,63.97785092824397,63.941396102217325,63.895114155560165,63.948207822278604
84.757,64.40975844599224,64.39153132884825,64.415935787371,64.37817422637515,64.33023068776134,64.38523315462207
85.989899,64.84862044144653,64.82975298989821,64.85501484990561,64.8159274956972,64.76629794712927,64.82323745240413
87.240601,65.2894855077172,65.26996849028033,65.29610011623562,65.255667911016,65.20432792702049,65.2632327256858
88.509598,65.73334859158504,65.71317252190123,65.74018661970055,65.69838998041095,65.64531445919467,65.70621359166331
89.797,66.17920768135743,66.15836301661196,66.18627236790904,66.14309159711279,66.08825528286228,66.15117797513668
91.103104,66.62506474502653,66.60354178885117,66.63235938107573,66.5877744660162,66.53115169303643,66.59612765098781
92.4282,67.07492575135493,67.05271465748798,67.08245367895081,67.03644429922053,66.97800900137729,67.0450684002064
93.772598,67.53077266694167,67.50786342886738,67.53853728263974,67.49108278882822,67.43080847205553,67.49998198821646
95.136597,67.98762545959156,67.9640079162789,67.99563021251443,67.94670963818565,67.88456939539186,67.9558881897902
96.520401,68.44647510744132,68.42213899270098,68.4547234825513,68.40431564649697,68.34028228739116,68.41377785643327
97.924301,68.90732857918434,68.88226347651602,68.91582411259763,68.8639075254712,68.79795345741547,68.87365777030858
99.348602,69.37117084200369,69.34536617735411,69.37991712345254,69.32646997288315,69.25856718159221,69.33651270288613
100.794,69.83801682061826,69.81146165939296,69.84701756228286,69.79201729291695,69.72213680729779,69.80235711283201
102.26,70.30985756914184,70.28254123463651,70.319116395974,70.26254098938851,70.19065451101012,70.27318241399304
103.747,70.78369504468314,70.75560665442593,70.79321565161611,70.73504266685927,70.66112134800214,70.74599030472174
105.256,71.26352613897778,71.23465429221721,71.27331239690118,71.2135183240063,71.13753194361588,71.22477700210536
106.787,71.74836085239956,71.71869414934348,71.75841663211007,71.69697796666294,71.61889629858196,71.70855252493148
108.34,72.23619118532766,72.20571822715739,72.24652035752787,72.18341360074757,72.10320641364176,72.19530889225335
109.916,72.73002302954832,72.69873189929561,72.7406296408846,72.67583022572661,72.59346591423618,72.6880513236856
111.515,73.2268513854696,73.19473016721405,73.23773948248703,73.17122284796933,73.08666980116303,73.18377483972036
113.137,73.72167025350545,73.68870703239,73.73284388264638,73.66458547393792,73.57781207523179,73.67747346113936
114.783,74.2144955254957,74.18067786865169,74.22595890913304,74.15593310393562,74.06690636198825,74.16916241023205
116.452,74.70331231045886,74.66862830523431,74.71506949482203,74.6432517510579,74.55194003756502,74.65682750777165
118.146,75.1881293916919,75.15256608842928,75.20018477496647,75.1265484099399,75.03291735230565,75.1404761791295
119.865,75.67394276967153,75.6374872199383,75.68630074992487,75.61081908802304,75.51483430714227,75.62510444820438
121.608,76.16375155343589,76.12639132906747,76.17641635258711,76.0990637987107,76.00069227824618,76.11371213672528
123.377,76.65456452635996,76.616286162387,76.66754071826502,76.58828953785608,76.48749551611348,76.6033066739588
125.171,77.1483647975025,77.109155349277,77.16165677986406,77.08048031918433,76.97722939695579,77.09587188264399
126.992,77.64716815029949,77.60701363652598,77.660780672742,77.57765013950238,77.47190517138867,77.59342219509693
128.839,78.1499656938316,78.1088526535928,78.16390332982093,78.07879101287807,77.97051621566673,78.09494943513056
130.713,78.65976432011878,78.61767877495079,78.6740318190069,78.58690894243053,78.47606715568855,78.60345983400111
132.615,79.17255892121712,79.1294863752024,79.18716120823329,79.09799793184287,78.98455061742332,79.1149476247664
134.543,79.68834871473763,79.64427571130126,79.70329036293029,79.61205900066174,79.4959703523043,79.62941342746942
136.5,80.1931333757484,80.1480449031236,80.20841948607006,80.11508914275515,79.9963192360867,80.13285488624582
138.486,80.6239249048878,80.57780595295182,80.63956057813313,80.54410036809516,80.42260927001989,80.56228403298961
140.5,81.06370141128737,81.01653749042886,81.07969157208015,80.98207169154725,80.85782083045852,81.00067969396966
142.544,81.50747967862942,81.45925526322517,81.52382960345452,81.42401811376803,81.2969661685005,81.44305731376062
144.617,81.88925881607183,81.8399589010789,81.90597360523681,81.80393965003644,81.67404666055232,81.82341671991728
146.721,82.25103060737014,82.20063915192267,82.26811571302565,82.16382630215294,82.0310495578553,82.18374836064852
148.855,82.63379416171016,82.58229564559548,82.65125485982277,82.54467808583415,82.40897623687079,82.56505206486752
151.02,83.00056437136757,82.94794275748818,83.0184061137273,82.90950900819934,82.77083932399864,82.93034207649548
153.217,83.35032412866123,83.29656286314591,83.36855254287084,83.25730107704024,83.11561944572308,83.27860064158801
155.445,83.67308054280915,83.61816359252465,83.69170108027966,83.57806230858004,83.43332597856902,83.59983559060312
157.706,83.96783339774971,83.911743694213,83.98685186169035,83.87079070747843,83.72295417413608,83.8930453808035
160.0,84.23158469432178,84.17430517121481,84.25100688773503,84.13248828684534,83.98150603406701,84.1552320539107
162.327,84.46033643337636,84.4018500265782,84.48016815905517,84.35915705998195,84.20498356002855,84.38239765222703
164.688,84.63508350738383,84.57537263639314,84.65533074389684,84.53179103705169,84.37437937880222,84.55553642926562
167.084,84.78581780886256,84.72486437692216,84.80648671054247,84.68038122897029,84.51968311726374,84.70463964091623
169.514,84.90855544712988,84.84634187848074,84.92965199209372,84.80094465351837,84.63691315213345,84.82572412243198
171.98,84.9912882063833,84.92779589058777,85.01281872448277,84.88147131940852,84.71405673551895,84.9067803438654
174.481,85.0260211959766,84.96123204369103,85.04799184083899,84.91396724499405,84.74312124421242,84.93981414222425
177.019,85.01774220020017,84.9516370876433,85.04015947716475,84.90341844044117,84.7290899305037,84.9298119921332
179.594,84.97446422010921,84.90702402622877,84.99733463425606,84.857837922249,84.67997579646055,84.88478694586577
182.206,84.90418125677418,84.83538686328731,84.9275113129206,84.78521970715708,84.60377284418094,84.81273305641774
184.856,84.82489220296357,84.75472397598244,84.84868858163001,84.70356180999757,84.5184777010317,84.73164859191738
187.545,84.7486049515015,84.67704274167771,84.77287450889796,84.62487124647265,84.43609599448874,84.65354082322298
190.273,84.66131150356604,84.5883351646013,84.68606109561365,84.53514003500749,84.34261972686141,84.56440180856482
193.041,84.57100775206563,84.49659662242105,84.59624441035463,84.44236319262592,84.24604252579141,84.47222682291331
195.849,84.47770069824378,84.40183411960221,84.50343145405978,84.3465477387804,84.14637139371695,84.37702292766434
198.697,84.37539534336193,84.29805266067531,84.4016272276817,84.24169869320438,84.03761133311153,84.27279518504952
201.587,84.27008647219027,84.19124599722073,84.29682686758565,84.13380907357637,83.92575259720698,84.16553709321143
204.52,84.16376697784823,84.08340650766714,84.19102344250899,84.02487090022505,83.8127858140594,84.05724093741188
207.494,84.06044007821662,83.97853844996045,84.08821981808902,83.91888919695133,83.70271873563662,83.95191135012637
210.512,83.96011545000108,83.87664994985813,83.98842619853437,83.81587098324111,83.59555424090506,83.84955605630721
213.574,83.85578709469233,83.77073501272,83.8846365849716,83.70881028242353,83.4842863327893,83.74316912929366
216.681,83.7514469056048,83.66478501767979,83.78084304628597,83.60169811788357,83.37290463972893,83.63674186377824
219.833,83.63810688430766,83.54981197038255,83.66805758366374,83.48554651418357,83.25242116480328,83.52128633685913
223.03,83.50676503239286,83.41681387655619,83.53727819830856,83.35135349624127,83.11383391113647,83.38780062667796
226.274,83.3534141351507,83.26178248965864,83.38449802697983,83.19511008988563,82.95313113298252,83.23227625668699
229.565,83.19605319429203,83.10271681584867,83.22771607097151,83.0348153219009,82.78831183369972,83.07271231077002
232.905,83.055691995278,82.96062560920073,83.08794246717248,82.8914772207914,82.64038126787774,82.9301173206757
236.292,82.92932675619362,82.83250612841125,82.96217308137669,82.76209381357727,82.50634018788907,82.80148892832676
239.729,82.81195815448973,82.71335750192723,82.84540911835745,82.64166313141968,82.38118247416449,82.68182589493726
243.216,82.70957619209396,82.60916973669478,82.74364057957364,82.53617520450601,82.2708981304895,82.57711831475517
246.754,82.60619676287637,82.50395821386114,82.6408835343327,82.42964506493959,82.15950078639767,82.4713815092329
250.343,82.48681286886051,82.38271594072218,82.52213098416672,82.30706574441534,82.03198344586382,82.34960857714775
253.984,82.38141640404058,82.27543429887635,82.41737499847764,82.1984282769852,81.91833573866627,82.2417908458637
