Freq,Floor Bounce,Ceiling Bounce,Front Wall Bounce,Side Wall Bounce,Rear Wall Bounce,Total Early Reflection
20.0,43.968571,43.968571,43.968571,43.968571,43.968571,43.968571
20.290899,43.841571999999985,43.841571999999985,43.841571999999985,43.841571999999985,43.841571999999985,43.841571999999985
20.586,43.710571000000016,43.710571000000016,43.710571000000016,43.710571000000016,43.710571000000016,43.710571000000016
20.8855,43.575569,43.575569,43.575569,43.575569,43.575569,43.575569
21.189301,43.43757199999999,43.43757199999999,43.43757199999999,43.43757199999999,43.43757199999999,43.43757199999999
21.497499,43.29957200000001,43.29957200000001,43.29957200000001,43.29957200000001,43.29957200000001,43.29957200000001
21.8102,43.16356999999999,43.16356999999999,43.16356999999999,43.16356999999999,43.16356999999999,43.16356999999999
22.127399,43.028572,43.028572,43.028572,43.028572,43.028572,43.028572
22.4492,42.89357000000001,42.89357000000001,42.89357000000001,42.89357000000001,42.89357000000001,42.89357000000001
22.775801,42.760571,42.760571,42.760571,42.760571,42.760571,42.760571
23.1071,42.62456900000001,42.62456900000001,42.62456900000001,42.62456900000001,42.62456900000001,42.62456900000001
23.443199,42.48257100000001,42.48257100000001,42.48257100000001,42.48257100000001,42.48257100000001,42.48257100000001
23.7841,42.33256900000001,42.33256900000001,42.33256900000001,42.33256900000001,42.33256900000001,42.33256900000001
24.1301,42.17157,42.17157,42.17157,42.17157,42.17157,42.17157
24.4811,41.99956900000001,41.99956900000001,41.99956900000001,41.99956900000001,41.99956900000001,41.99956900000001
24.8372,41.81657000000001,41.81657000000001,41.81657000000001,41.81657000000001,41.81657000000001,41.81657000000001
25.1984,41.62456900000001,41.62456900000001,41.62456900000001,41.62456900000001,41.62456900000001,41.62456900000001
25.564899,41.42757,41.42757,41.42757,41.42757,41.42757,41.42757
25.9368,41.22856899999999,41.22856899999999,41.22856899999999,41.22856899999999,41.22856899999999,41.22856899999999
26.3141,41.03057100000001,41.03057100000001,41.03057100000001,41.03057100000001,41.03057100000001,41.03057100000001
26.6968,40.83757,40.83757,40.83757,40.83757,40.83757,40.83757
27.0851,40.645568999999995,40.645568999999995,40.645568999999995,40.645568999999995,40.645568999999995,40.645568999999995
27.479099,40.45357100000001,40.45357100000001,40.45357100000001,40.45357100000001,40.45357100000001,40.45357100000001
27.878799,40.258572000000015,40.258572000000015,40.258572000000015,40.258572000000015,40.258572000000015,40.258572000000015
28.2843,40.05657200000002,40.05657200000002,40.05657200000002,40.05657200000002,40.05657200000002,40.05657200000002
28.6957,39.84557000000001,39.84557000000001,39.84557000000001,39.84557000000001,39.84557000000001,39.84557000000001
29.1131,39.623569,39.623569,39.623569,39.623569,39.623569,39.623569
29.536501,39.38957199999999,39.38957199999999,39.38957199999999,39.38957199999999,39.38957199999999,39.38957199999999
29.966101,39.14956999999998,39.14956999999998,39.14956999999998,39.14956999999998,39.14956999999998,39.14956999999998
30.402,38.90557100000001,38.90557100000001,38.90557100000001,38.90557100000001,38.90557100000001,38.90557100000001
30.8442,38.665569000000005,38.665569000000005,38.665569000000005,38.665569000000005,38.665569000000005,38.665569000000005
31.2929,38.43457000000001,38.43457000000001,38.43457000000001,38.43457000000001,38.43457000000001,38.43457000000001
31.748,38.21456899999998,38.21456899999998,38.21456899999998,38.21456899999998,38.21456899999998,38.21456899999998
32.209801,38.010571,38.010571,38.010571,38.010571,38.010571,38.010571
32.678299,37.82957099999999,37.82957099999999,37.82957099999999,37.82957099999999,37.82957099999999,37.82957099999999
33.153599,37.67256900000001,37.67256900000001,37.67256900000001,37.67256900000001,37.67256900000001,37.67256900000001
33.635899,37.54457099999999,37.54457099999999,37.54457099999999,37.54457099999999,37.54457099999999,37.54457099999999
34.125099,37.455569999999994,37.455569999999994,37.455569999999994,37.455569999999994,37.455569999999994,37.455569999999994
34.621498,37.41457,37.41457,37.41457,37.41457,37.41457,37.41457
35.125,37.42457200000001,37.42457200000001,37.42457200000001,37.42457200000001,37.42457200000001,37.42457200000001
35.635899,37.494572000000005,37.494572000000005,37.494572000000005,37.494572000000005,37.494572000000005,37.494572000000005
36.154301,37.620570999999984,37.620570999999984,37.620570999999984,37.620570999999984,37.620570999999984,37.620570999999984
36.680199,37.80957000000001,37.80957000000001,37.80957000000001,37.80957000000001,37.80957000000001,37.80957000000001
37.213699,38.068569,38.068569,38.068569,38.068569,38.068569,38.068569
37.755,38.387568999999985,38.387568999999985,38.387568999999985,38.387568999999985,38.387568999999985,38.387568999999985
38.3041,38.75757200000001,38.75757200000001,38.75757200000001,38.75757200000001,38.75757200000001,38.75757200000001
38.861301,39.16457,39.16457,39.16457,39.16457,39.16457,39.16457
39.426498,39.60956999999999,39.60956999999999,39.60956999999999,39.60956999999999,39.60956999999999,39.60956999999999
40.0,40.085571000000016,40.085571000000016,40.085571000000016,40.085571000000016,40.085571000000016,40.085571000000016
40.581799,40.57957099999999,40.57957099999999,40.57957099999999,40.57957099999999,40.57957099999999,40.57957099999999
41.1721,41.08757,41.08757,41.08757,41.08757,41.08757,41.08757
41.771,41.60956999999999,41.60956999999999,41.60956999999999,41.60956999999999,41.60956999999999,41.60956999999999
42.378502,42.145568999999995,42.145568999999995,42.145568999999995,42.145568999999995,42.145568999999995,42.145568999999995
42.9949,42.682570999999996,42.682570999999996,42.682570999999996,42.682570999999996,42.682570999999996,42.682570999999996
43.6203,43.218571,43.218571,43.218571,43.218571,43.218571,43.218571
44.254799,43.75457,43.75457,43.75457,43.75457,43.75457,43.75457
44.898499,44.28957,44.28957,44.28957,44.28957,44.28957,44.28957
45.551498,44.82257100000001,44.82257100000001,44.82257100000001,44.82257100000001,44.82257100000001,44.82257100000001
46.2141,45.35457199999999,45.35457199999999,45.35457199999999,45.35457199999999,45.35457199999999,45.35457199999999
46.886299,45.88056900000001,45.88056900000001,45.88056900000001,45.88056900000001,45.88056900000001,45.88056900000001
47.568298,46.401568999999995,46.401568999999995,46.401568999999995,46.401568999999995,46.401568999999995,46.401568999999995
48.260201,46.915569000000005,46.915569000000005,46.915569000000005,46.915569000000005,46.915569000000005,46.915569000000005
48.962101,47.42256900000001,47.42256900000001,47.42256900000001,47.42256900000001,47.42256900000001,47.42256900000001
49.674301,47.92557099999999,47.92557099999999,47.92557099999999,47.92557099999999,47.92557099999999,47.92557099999999
50.396801,48.42649237507101,48.426116883230975,48.42661960415191,48.4258412431204,48.42485452041069,48.42598497069869
51.129902,48.92141159851096,48.9206551104771,48.92166792295873,48.92009981001161,48.918111859405315,48.92038944495164
51.8736,49.41133267084271,49.41018968456365,49.411719956216984,49.40935070607884,49.406347026657755,49.40978843045332
52.628101,49.92425056973951,49.9227154763351,49.92477071785291,49.92158872466911,49.91755453294081,49.92217676473001
53.3936,50.36916727407518,50.36723436356229,50.3698222210553,50.36581567029421,50.36073591516728,50.36655629440713
54.1702,50.84208177273743,50.83974528184896,50.84287347282549,50.83803044042389,50.8318899288233,50.838925940841364
54.958099,51.30999504428004,51.307249107103445,51.31092548655903,51.305233836641264,51.29801710370711,51.30628654855349
55.7575,51.772909066716636,51.76974771210516,51.77398027599065,51.76742765553962,51.759118957745784,51.768639958204744
56.568501,52.23281982948859,52.229237035634526,52.234033847792574,52.22660779978767,52.21719125832283,52.227982095689754
57.391399,52.691730300389594,52.687719891422546,52.69308922203027,52.68477697118328,52.6742363000634,52.68631572590803
58.226101,53.14764048964773,53.1431963383051,53.149146392527996,53.139935265336135,53.128254304122095,53.14164092974724
59.073,53.59754535461988,53.59266112970988,53.599200385817085,53.5890772872381,53.57623933707194,53.59095239475391
59.932301,54.04645287312124,54.041122137228086,54.048259215781314,54.03721083176396,54.02319891212625,54.039257960944326
60.804,54.49436004570711,54.48857636380026,54.49631988224155,54.48433290482387,54.46913003902222,54.486554637647146
61.6884,54.940262839539116,54.9340196194604,54.942378405682575,54.92943920248027,54.913027998171174,54.93183818594733
62.585701,55.38316623298857,55.37645677898499,55.385439799660844,55.37153452484492,55.35389731468865,55.374113450521264
63.496,55.823066215635066,55.815883781887436,55.82550007080326,55.81061477605414,55.79173375839116,55.81337635955458
64.419601,56.26296375454601,56.25530143762546,56.265560239672936,56.24968065138955,56.22953760734302,56.25262767406366
65.356598,56.69886283963595,56.690713687628374,56.70162431270137,56.684736058150094,56.663312638504635,56.68787132509584
66.307297,57.13276143776511,57.12411834013383,57.13569031059396,57.117778689759405,57.09505612520911,57.12110507256938
67.271698,57.565655549080276,57.55651139566393,57.56875423346085,57.54980454850633,57.52576406774307,57.553324923920684
68.250198,57.99554913055471,57.9858966053163,57.99882010814116,57.978817236148785,57.953439523277495,57.982534566061986
69.242897,58.42044017146873,58.410271906816064,58.42388594148417,58.40281465421887,58.37608025455495,58.40673192612127
70.250099,58.84533063892195,58.834639109735434,58.848953754077115,58.826798498499784,58.798687539702655,58.83091876673603
71.271896,59.271221523074644,59.259999156860886,59.275024552237994,59.251769678748616,59.222262160487276,59.25609602198878
72.308601,59.697107790059334,59.685346852151724,59.70109335716879,59.676722881850225,59.6457983736783,59.68125844783731
73.360298,60.11999343091637,60.10768614345676,60.12416417465653,60.09866202579133,60.066299980067186,60.10340998533354
74.427399,60.543877401025924,60.53101577258576,60.54823603257893,60.521585697792716,60.487765001265416,60.526549311205514
75.509903,60.967759700681995,60.95433574082591,60.9723089310077,60.94449390175127,60.909193440010355,60.949676435626316
76.608299,61.3936382769066,61.37964374166555,61.398380903016516,61.36938414744618,61.33258213502228,61.37478897394274
77.722603,61.81952012815697,61.80494676575394,61.82445894983056,61.79426342180987,61.75593804867651,61.79989392320374
78.853104,62.24539522321413,62.230234632266416,62.25053309106488,62.219121436542096,62.179250494832445,62.22498106068174
80.0,62.67227254075965,62.656516217566576,62.67761234021091,62.64496699521902,62.60352800353799,62.651059237333044
81.163597,63.10214304774122,63.08578233020383,63.107687718039784,63.073790792628984,63.03076084829718,63.080119217477275
82.3442,63.53501671122372,63.51804277938592,63.54076924526163,63.50560252470031,63.46095830500609,63.51217076666359
83.541901,63.9718875214331,63.954291508134105,63.97785092824398,63.94139610221731,63.89511415556015,63.94820782227859
84.757,64.40975844599222,64.39153132884825,64.41593578737098,64.37817422637515,64.33023068776136,64.38523315462206
85.989899,64.84862044144654,64.82975298989822,64.85501484990563,64.81592749569721,64.76629794712927,64.82323745240414
87.240601,65.28948550771719,65.26996849028032,65.29610011623562,65.25566791101599,65.20432792702047,65.26323272568578
88.509598,65.73334859158504,65.71317252190121,65.74018661970055,65.69838998041094,65.64531445919465,65.70621359166331
89.797,66.17920768135744,66.15836301661197,66.18627236790905,66.14309159711277,66.08825528286229,66.15117797513669
91.103104,66.62506474502655,66.60354178885117,66.63235938107574,66.58777446601619,66.53115169303643,66.59612765098782
92.4282,67.07492575135491,67.05271465748797,67.08245367895083,67.03644429922052,66.97800900137729,67.0450684002064
93.772598,67.53077266694166,67.5078634288674,67.53853728263975,67.49108278882824,67.43080847205553,67.49998198821645
95.136597,67.98762545959156,67.96400791627889,67.99563021251444,67.94670963818564,67.88456939539186,67.9558881897902
96.520401,68.44647510744132,68.422138992701,68.45472348255129,68.40431564649698,68.34028228739116,68.41377785643328
97.924301,68.90732857918434,68.88226347651603,68.91582411259762,68.8639075254712,68.79795345741547,68.87365777030858
99.348602,69.37117084200369,69.34536617735411,69.37991712345254,69.32646997288316,69.25856718159221,69.33651270288613
100.794,69.83801682061826,69.81146165939295,69.84701756228287,69.79201729291697,69.72213680729779,69.802357112832
102.26,70.30985756914185,70.28254123463651,70.31911639597402,70.2625409893885,70.19065451101014,70.27318241399303
103.747,70.78369504468313,70.75560665442593,70.79321565161612,70.73504266685927,70.66112134800215,70.74599030472173
105.256,71.26352613897778,71.23465429221723,71.27331239690116,71.21351832400629,71.13753194361587,71.22477700210537
106.787,71.74836085239954,71.71869414934348,71.75841663211008,71.69697796666293,71.61889629858196,71.70855252493149
108.34,72.23619118532767,72.20571822715739,72.24652035752788,72.18341360074757,72.10320641364177,72.19530889225337
109.916,72.7300230295483,72.69873189929561,72.7406296408846,72.6758302257266,72.59346591423616,72.68805132368558
111.515,73.22685138546959,73.19473016721405,73.23773948248702,73.17122284796932,73.08666980116301,73.18377483972036
113.137,73.72167025350544,73.68870703238998,73.73284388264636,73.6645854739379,73.57781207523178,73.67747346113936
114.783,74.21449552549569,74.18067786865167,74.22595890913306,74.15593310393561,74.06690636198825,74.16916241023203
116.452,74.70331231045884,74.66862830523431,74.71506949482205,74.64325175105792,74.55194003756503,74.65682750777165
118.146,75.18812939169192,75.1525660884293,75.20018477496649,75.1265484099399,75.03291735230563,75.14047617912951
119.865,75.67394276967153,75.6374872199383,75.68630074992487,75.61081908802305,75.51483430714227,75.6251044482044
121.608,76.16375155343589,76.12639132906747,76.1764163525871,76.0990637987107,76.00069227824618,76.11371213672527
123.377,76.65456452635996,76.61628616238701,76.66754071826502,76.58828953785608,76.48749551611348,76.60330667395881
125.171,77.14836479750248,77.10915534927702,77.16165677986405,77.08048031918435,76.97722939695579,77.095871882644
126.992,77.64716815029949,77.60701363652599,77.66078067274202,77.57765013950237,77.47190517138868,77.59342219509692
128.839,78.1499656938316,78.1088526535928,78.16390332982093,78.07879101287809,77.97051621566675,78.09494943513056
130.713,78.65976432011878,78.61767877495078,78.6740318190069,78.58690894243053,78.47606715568855,78.60345983400111
132.615,79.1725589212171,79.12948637520239,79.18716120823328,79.09799793184285,78.98455061742332,79.11494762476639
134.543,79.68834871473763,79.64427571130125,79.7032903629303,79.61205900066176,79.49597035230428,79.62941342746943
136.5,80.1931333757484,80.1480449031236,80.20841948607006,80.11508914275517,79.99631923608669,80.13285488624582
138.486,80.62392490488782,80.57780595295183,80.63956057813313,80.54410036809516,80.42260927001989,80.56228403298961
140.5,81.06370141128737,81.01653749042887,81.07969157208016,80.98207169154725,80.85782083045851,81.00067969396966
142.544,81.50747967862942,81.45925526322517,81.52382960345452,81.42401811376801,81.29696616850049,81.44305731376062
144.617,81.88925881607183,81.83995890107892,81.90597360523681,81.80393965003645,81.67404666055232,81.82341671991729
146.721,82.25103060737014,82.20063915192269,82.26811571302564,82.16382630215294,82.03104955785528,82.18374836064852
148.855,82.63379416171014,82.58229564559548,82.65125485982279,82.54467808583415,82.40897623687077,82.5650520648675
151.02,83.00056437136757,82.94794275748819,83.01840611372731,82.90950900819934,82.77083932399863,82.93034207649548
153.217,83.35032412866124,83.2965628631459,83.36855254287084,83.25730107704024,83.11561944572307,83.278600641588
155.445,83.67308054280913,83.61816359252467,83.69170108027967,83.57806230858003,83.43332597856902,83.59983559060312
157.706,83.96783339774971,83.91174369421302,83.98685186169034,83.87079070747845,83.72295417413609,83.89304538080351
160.0,84.23158469432178,84.17430517121483,84.25100688773503,84.13248828684536,83.981506034067,84.15523205391068
162.327,84.46033643337637,84.40185002657822,84.48016815905517,84.35915705998195,84.20498356002855,84.38239765222703
164.688,84.63508350738383,84.57537263639313,84.65533074389684,84.53179103705169,84.37437937880222,84.5555364292656
167.084,84.78581780886256,84.72486437692214,84.80648671054247,84.68038122897026,84.51968311726375,84.7046396409162
169.514,84.90855544712988,84.84634187848073,84.92965199209372,84.80094465351837,84.63691315213345,84.82572412243198
171.98,84.99128820638332,84.92779589058777,85.01281872448276,84.88147131940852,84.71405673551897,84.90678034386542
174.481,85.02602119597661,84.96123204369101,85.04799184083899,84.91396724499407,84.7431212442124,84.93981414222425
177.019,85.01774220020019,84.95163708764332,85.04015947716475,84.90341844044117,84.72908993050369,84.92981199213318
179.594,84.97446422010921,84.90702402622875,84.99733463425606,84.857837922249,84.67997579646054,84.88478694586576
182.206,84.90418125677417,84.8353868632873,84.92751131292061,84.78521970715707,84.60377284418094,84.81273305641773
184.856,84.82489220296357,84.75472397598246,84.84868858163,84.70356180999758,84.5184777010317,84.73164859191739
187.545,84.74860495150152,84.67704274167772,84.77287450889797,84.62487124647267,84.43609599448874,84.653540823223
190.273,84.66131150356604,84.5883351646013,84.68606109561365,84.5351400350075,84.34261972686143,84.56440180856482
193.041,84.57100775206563,84.49659662242107,84.59624441035461,84.44236319262592,84.24604252579142,84.47222682291331
195.849,84.47770069824378,84.4018341196022,84.50343145405978,84.3465477387804,84.14637139371693,84.37702292766433
198.697,84.37539534336193,84.29805266067532,84.4016272276817,84.24169869320438,84.03761133311153,84.27279518504953
201.587,84.27008647219026,84.19124599722073,84.29682686758566,84.13380907357636,83.92575259720698,84.16553709321143
204.52,84.16376697784821,84.08340650766712,84.19102344250899,84.02487090022505,83.8127858140594,84.05724093741186
207.494,84.06044007821662,83.97853844996044,84.088219818089,83.91888919695133,83.70271873563664,83.95191135012637
210.512,83.96011545000108,83.87664994985813,83.98842619853437,83.81587098324113,83.59555424090507,83.84955605630722
213.574,83.85578709469235,83.77073501272001,83.88463658497159,83.70881028242351,83.48428633278928,83.74316912929366
216.681,83.75144690560478,83.6647850176798,83.78084304628595,83.60169811788356,83.37290463972892,83.63674186377823
219.833,83.63810688430767,83.54981197038256,83.66805758366375,83.48554651418355,83.25242116480327,83.52128633685915
223.03,83.50676503239285,83.41681387655619,83.53727819830854,83.35135349624126,83.11383391113645,83.38780062667794
226.274,83.35341413515069,83.26178248965866,83.38449802697981,83.19511008988563,82.9531311329825,83.23227625668699
229.565,83.19605319429206,83.10271681584867,83.22771607097152,83.0348153219009,82.78831183369972,83.07271231077003
232.905,83.05569199527801,82.96062560920075,83.0879424671725,82.89147722079142,82.64038126787776,82.9301173206757
236.292,82.92932675619363,82.83250612841124,82.9621730813767,82.76209381357728,82.50634018788907,82.80148892832678
239.729,82.81195815448974,82.71335750192725,82.84540911835745,82.64166313141968,82.38118247416449,82.68182589493728
243.216,82.70957619209396,82.6091697366948,82.74364057957364,82.53617520450602,82.27089813048948,82.57711831475518
246.754,82.60619676287638,82.50395821386115,82.64088353433269,82.4296450649396,82.15950078639766,82.4713815092329
250.343,82.48681286886051,82.38271594072216,82.52213098416672,82.30706574441535,82.03198344586383,82.34960857714776
