Freq "Rear Wall Bounce"
20.0 40.85785058507486
20.290899 40.73085158507487
20.586 40.599850585074876
20.8855 40.46484858507489
21.189301 40.32685158507488
21.497499 40.18885158507487
21.8102 40.05284958507488
22.127399 39.91785158507486
22.4492 39.78284958507487
22.775801 39.64985058507489
23.1071 39.51384858507487
23.443199 39.37185058507487
23.7841 39.221848585074866
24.1301 39.06084958507489
24.4811 38.88884858507487
24.8372 38.70584958507487
25.1984 38.51384858507487
25.564899 38.31684958507486
25.9368 38.11784858507488
26.3141 37.91985058507487
26.6968 37.72684958507489
27.0851 37.53484858507488
27.479099 37.34285058507487
27.878799 37.147851585074875
28.2843 36.94585158507488
28.6957 36.73484958507487
29.1131 36.51284858507489
29.536501 36.278851585074875
29.966101 36.03884958507487
30.402 35.79485058507487
30.8442 35.554848585074865
31.2929 35.32384958507487
31.748 35.10384858507487
32.209801 34.89985058507489
32.678299 34.718850585074875
33.153599 34.56184858507487
33.635899 34.43385058507488
34.125099 34.34484958507488
34.621498 34.303849585074886
35.125 34.31385158507487
35.635899 34.383851585074865
36.154301 34.50985058507487
36.680199 34.69884958507487
37.213699 34.957848585074885
37.755 35.27684858507487
38.3041 35.64685158507487
38.861301 36.053849585074886
39.426498 36.49884958507488
40.0 36.974850585074876
40.581799 37.468850585074875
41.1721 37.97684958507489
41.771 38.49884958507488
42.378502 39.03484858507488
42.9949 39.571850585074884
43.6203 40.10785058507486
44.254799 40.64384958507486
44.898499 41.178849585074886
45.551498 41.71185058507487
46.2141 42.24385158507488
46.886299 42.76984858507487
47.568298 43.29084858507488
48.260201 43.804848585074865
48.962101 44.31184858507487
49.674301 44.81485058507488
50.396801 45.31413410548561
51.129902 45.807391444480174
51.8736 46.295626611732644
52.628101 46.80683411801567
53.3936 47.25001550024217
54.1702 47.72116951389816
54.958099 48.18729668878197
55.7575 48.648398542820644
56.568501 49.10647084339769
57.391399 49.56351588513829
58.226101 50.01753388919698
59.073 50.46551892214683
59.932301 50.91247849720111
60.804 51.35840962409708
61.6884 51.802307583246034
62.585701 52.24317689976351
63.496 52.68101334346602
64.419601 53.11881719241791
65.356598 53.552592223579495
66.307297 53.98433571028397
67.271698 54.41504365281796
68.250198 54.842719108352355
69.242897 55.26535983962984
70.250099 55.687967124777515
71.271896 56.111541745562135
72.308601 56.53507795875319
73.360298 56.955579565142045
74.427399 57.377044586340304
75.509903 57.79847302508523
76.608299 58.22186172009714
77.722603 58.6452176337514
78.853104 59.06853007990733
80.0 59.49280758861286
81.163597 59.92004043337204
82.3442 60.35023789008096
83.541901 60.78439374063504
84.757 61.21951027283622
85.989899 61.65557753220415
87.240601 62.09360751209536
88.509598 62.53459404426954
89.797 62.97753486793715
91.103104 63.42043127811131
92.4282 63.86728858645216
93.772598 64.3200880571304
95.136597 64.77384898046674
96.520401 65.22956187246604
97.924301 65.68723304249035
99.348602 66.14784676666709
100.794 66.61141639237266
102.26 67.079934096085
103.747 67.55040093307701
105.256 68.02681152869076
106.787 68.50817588365683
108.34 68.99248599871663
109.916 69.48274549931105
111.515 69.9759493862379
113.137 70.46709166030666
114.783 70.95618594706312
116.452 71.44121962263989
118.146 71.92219693738052
119.865 72.40411389221714
121.608 72.88997186332105
123.377 73.37677510118836
125.171 73.86650898203067
126.992 74.36118475646354
128.839 74.85979580074161
130.713 75.36534674076343
132.615 75.8738302024982
134.543 76.38524993737917
136.5 76.88559882116158
138.486 77.31188885509476
140.5 77.7471004155334
142.544 78.18624575357538
144.617 78.5633262456272
146.721 78.92032914293017
148.855 79.29825582194566
151.02 79.66011890907352
153.217 80.00489903079796
155.445 80.32260556364389
157.706 80.61223375921095
160.0 80.87078561914188
162.327 81.09426314510343
164.688 81.26365896387709
167.084 81.40896270233861
169.514 81.52619273720832
171.98 81.60333632059383
174.481 81.63240082928729
177.019 81.61836951557858
179.594 81.56925538153543
182.206 81.49305242925581
184.856 81.40775728610657
187.545 81.32537557956361
190.273 81.23189931193629
193.041 81.13532211086628
195.849 81.03565097879182
198.697 80.9268909181864
201.587 80.81503218228185
204.52 80.70206539913427
207.494 80.5919983207115
210.512 80.48483382597993
213.574 80.37356591786417
216.681 80.2621842248038
219.833 80.14170074987815
223.03 80.00311349621134
226.274 79.8424107180574
229.565 79.6775914187746
232.905 79.52966085295262
236.292 79.39561977296394
239.729 79.27046205923936
243.216 79.16017771556437
246.754 79.04878037147255
250.343 78.92126303093869
253.984 78.80761532374115
257.678 78.77784087982398
261.426 78.86194532930098
265.229 79.03691430245959
269.087 79.26175580390792
273.001 79.49146146420654
276.972 79.71203791409933
281.0 79.94547115857333
285.088 80.20277208061046
289.234 80.44592743360539
293.441 80.60893710096381
297.709 80.73380708834046
302.04 80.84652665366987
306.433 80.92209617683338
310.89 80.97851791616068
315.412 81.02078450413487
320.0 81.02189457346405
324.655 80.9948457570865
329.377 80.98363706187571
334.168 81.00126474747391
339.028 81.04172282116699
343.959 81.08401954315936
348.962 81.101143547611
354.038 81.09410046894239
359.188 81.08087794183973
364.412 81.06147497470366
369.713 81.04989245584308
375.09 81.06812976762066
380.546 81.10118579907123
386.081 81.11504955969694
391.697 81.08271631265242
397.394 81.03019506796677
403.175 81.02647771633876
409.039 81.10156664159048
414.989 81.20844073523864
421.025 81.26111900856606
427.149 81.27058872705456
433.362 81.28384552965116
439.665 81.32988605565936
446.06 81.36271557190233
452.548 81.3923187185593
459.131 81.36870276344288
465.809 81.300855720346
472.584 81.22177785796417
479.458 81.1794674455966
486.432 81.2339201257073
493.507 81.27114254118499
503.906 81.27114254118499
509.766 81.28553980242876
515.625 81.2978271791022
521.484 81.3081112437863
527.344 81.31657495659708
533.203 81.32328117527669
539.062 81.32838298622552
544.922 81.33202351525183
550.781 81.33431467117461
556.641 81.33541232063934
562.5 81.3354200552846
568.359 81.33448932380661
574.219 81.33273483852756
580.078 81.33024266590789
585.938 81.32717602351705
591.797 81.32358990392261
597.656 81.31960265164857
603.516 81.315283394685
609.375 81.31073675981116
615.234 81.30593783252417
621.094 81.30101311016416
626.953 81.2959735785833
632.812 81.29087991504947
638.672 81.28568025953265
644.531 81.28045837366722
650.391 81.27512013346525
656.25 81.26970637290944
662.109 81.26415852562332
667.969 81.25846341799074
673.828 81.25257028733033
679.688 81.24641660365893
685.547 81.23996537405608
691.406 81.23312661969818
697.266 81.22586196687983
703.125 81.21809498198618
708.984 81.20977322019382
714.844 81.20078365263853
720.703 81.19113045272601
726.562 81.18069894356844
732.422 81.16945212203376
738.281 81.1573069476993
744.141 81.14425479463665
750.0 81.13018827033797
755.859 81.11515764997777
761.719 81.0990591906143
767.578 81.08188739804696
773.438 81.06364881120031
779.297 81.04431866317216
785.156 81.02386619648384
791.016 81.00232945136955
796.875 80.9797218685963
802.734 80.95605791905469
808.594 80.93140235827961
814.453 80.90572161619905
820.312 80.87909824222751
826.172 80.85157217588613
832.031 80.82320534110893
837.891 80.77913660746208
843.75 80.76405452492382
849.609 80.73350864158796
855.469 80.70235361017545
861.328 80.67066214259201
867.188 80.6385328444409
873.047 80.60598588058267
878.906 80.57312662356075
884.766 80.53999992346844
890.625 80.50669019730736
896.484 80.47324409845737
902.344 80.4397136688337
908.203 80.40618063065354
914.062 80.37267947736723
919.922 80.3392969900344
925.781 80.30606997519257
931.641 80.27298070280104
937.5 80.24014917119727
943.359 80.2075659060479
949.219 80.1752370744178
955.078 80.14322717915175
960.938 80.1115355496146
966.797 80.08015911050393
972.656 80.04915386300902
978.516 80.01844973524464
984.375 79.98814746072907
990.234 79.95817165268758
996.094 79.92848973316278
1001.95 79.89916084736778
1007.81 79.87016313795704
1013.67 79.84147728323548
1019.53 79.81306915360412
1025.39 79.7849372388764
1031.25 79.75706405173106
1037.11 79.72943987802653
1042.97 79.70205239025908
1048.83 79.6748609099676
1054.69 79.64787372276733
1060.55 79.62106982681382
1066.41 79.59442105926769
1072.27 79.56792407539906
1078.12 79.54154269621566
1083.98 79.51529026690005
1089.84 79.48912500840615
1095.7 79.46303119835406
1101.56 79.43701202413942
1107.42 79.41101617986371
1113.28 79.38507247602877
1119.14 79.35914315327568
1125.0 79.3331850266132
1130.86 79.3071974891135
1136.72 79.28112504633634
1142.58 79.25501816799739
1148.44 79.22879376383463
1154.3 79.20240392225232
1160.16 79.17589241685702
1166.02 79.14917963071065
1171.88 79.12220412253473
1177.73 79.09503012262626
1183.59 79.06753723688999
1189.45 79.03977267515613
1195.31 79.01163698844269
1201.17 78.98313439167401
1207.03 78.95424318582043
1212.89 78.92493772310542
1218.75 78.89519374297566
1224.61 78.86497977603831
1230.47 78.83432376617756
1236.33 78.80316193908529
1242.19 78.7715459612493
1248.05 78.73945284828673
1253.91 78.70686306783409
1259.77 78.67385709081802
1265.62 78.64040000544844
1271.48 78.60657991803619
1277.34 78.57236839743112
1283.2 78.53788132418778
1289.06 78.50310164992804
1294.92 78.4681414423375
1300.78 78.4330274524404
1306.64 78.39787633232426
1312.5 78.36272648475513
1318.36 78.3277082963967
1324.22 78.29285429082672
1330.08 78.25829566252139
1335.94 78.22409815268446
1341.8 78.19039223108823
1347.66 78.15724295042332
1353.52 78.12476668307804
1359.38 78.09305596348224
1365.23 78.0621764086454
1371.09 78.0322190660165
1376.95 78.00325609752124
1382.81 77.97542187611899
1388.67 77.94865843798333
1394.53 77.92312014018637
1400.39 77.89881169511922
1406.25 77.8757536329305
1412.11 77.85397644877001
1417.97 77.83347766079642
1423.83 77.81424871207255
1429.69 77.79628242661107
1435.55 77.77951713049094
1441.41 77.7639672406326
1447.27 77.74951319695298
1453.12 77.73614700630732
1458.98 77.72377953000134
1464.84 77.7123392312803
1470.7 77.70172615761113
1476.56 77.69188342505163
1482.42 77.68274870880445
1488.28 77.67417904915487
1494.14 77.6661276697869
1500.0 77.65851106330831
1505.86 77.65123825541937
1511.72 77.64423297386301
1517.58 77.63748012564248
1523.44 77.63088148554253
1529.3 77.62442545812674
1535.16 77.61802347756257
1541.02 77.61168211428475
1546.88 77.6054073922983
1552.73 77.59916135939937
1558.59 77.5929601506474
1564.45 77.58679046455897
1570.31 77.5806822342126
1576.17 77.57470177337792
1582.03 77.5688306502962
1587.89 77.56313049173542
1593.75 77.55762571934149
1599.61 77.55239552152624
1605.47 77.54747178413291
1611.33 77.54289216750026
1617.19 77.53872272231108
1623.05 77.53498343091536
1628.91 77.53173357580323
1634.77 77.52900165815716
1640.62 77.52682521568371
1646.48 77.52519881458682
1652.34 77.52418989816161
1658.2 77.5237510180832
1664.06 77.52389536629394
1669.92 77.52458360216013
1675.78 77.52585493304966
1681.64 77.52759115968004
1687.5 77.52979058650038
1693.36 77.53236729494768
1699.22 77.5352908516288
1705.08 77.53847803583355
1710.94 77.54180232951879
1716.8 77.54524238722192
1722.66 77.5486789166774
1728.52 77.55199318770576
1734.38 77.55508952825178
1740.23 77.55792613589962
1746.09 77.56034735482126
1751.95 77.56227676735959
1757.81 77.56363122124128
1763.67 77.56430750404526
1769.53 77.56422759435759
1775.39 77.5633183113172
1781.25 77.56150667373433
1787.11 77.55876896103453
1792.97 77.55500302070311
1798.83 77.55021848815473
1804.69 77.54437613938154
1810.55 77.53743723099393
1816.41 77.52942856348282
1822.27 77.52034865087053
1828.12 77.5101879573975
1833.98 77.49898498855494
1839.84 77.48677261157624
1845.7 77.47361026142967
1851.56 77.45951870297417
1857.42 77.44457367467483
1863.28 77.42883495014418
1869.14 77.41239218355831
1875.0 77.39526122316613
1880.86 77.37762405392192
1886.72 77.35945799741985
1892.58 77.3408714210556
1898.44 77.32192532239173
1904.3 77.3027602117722
1910.16 77.28340385414691
1916.02 77.26393407866735
1921.88 77.2444088766447
1927.73 77.22495890894946
1933.59 77.20555944467239
1939.45 77.18630279787382
1945.31 77.16722673610612
1951.17 77.1483934010948
1957.03 77.12980371518742
1962.89 77.11151846544965
1968.75 77.09353198997641
1974.61 77.07586086388471
1980.47 77.05855333886385
1986.33 77.04156559799083
1992.19 77.0249556864656
1998.05 77.0086585955972
2003.91 76.99270933646501
2009.77 76.97710773527659
2015.62 76.96183341766064
2021.48 76.94688257182017
2027.34 76.93222688551703
2033.2 76.91790105901917
2039.06 76.90386057459375
2044.92 76.89013177097758
2050.78 76.8767027141996
2056.64 76.86357242293752
2062.5 76.85080016861036
2068.36 76.83833103838211
2074.22 76.82620364307968
2080.08 76.8144417152996
2085.94 76.8030451145185
2091.8 76.79204958885853
2097.66 76.78147163777119
2103.52 76.77133930145226
2109.38 76.76165654707145
2115.23 76.75245983832106
2121.09 76.74374998183895
2126.95 76.73557822474557
2132.81 76.72792025571043
2138.67 76.72075065394203
2144.53 76.71412386082952
2150.39 76.70801971906545
2156.25 76.7024004376978
2162.11 76.69727855299605
2167.97 76.69256076184618
2173.83 76.68823510521457
2179.69 76.68425633816474
2185.55 76.68056335736213
2191.41 76.67708278873414
2197.27 76.67373381006797
2203.12 76.67043220405675
2208.98 76.66708555350147
2214.84 76.66360981321118
2220.7 76.6599153383672
2226.56 76.65586010298162
2232.42 76.65141607960692
2238.28 76.64639440962426
2244.14 76.64075845755536
2250.0 76.63437982245486
2255.86 76.62717931233766
2261.72 76.61908377552959
2267.58 76.6099783332005
2273.44 76.59984508604333
2279.3 76.58854001191038
2285.16 76.57607999431583
2291.02 76.56242698658156
2296.88 76.54746634660745
2302.73 76.53129373899856
2308.59 76.51380664046833
2314.45 76.49506394135413
2320.31 76.47509556514633
2326.17 76.45387005462592
2332.03 76.43147737737661
2337.89 76.40793076999387
2343.75 76.38334150841536
2349.61 76.35779480771106
2355.47 76.33131269891719
2361.33 76.3040440373539
2367.19 76.27602424512278
2373.05 76.24742163535967
2378.91 76.21832050830929
2384.77 76.18883537628037
2390.62 76.15909063679892
2396.48 76.12919515214004
2402.34 76.09929541135955
2408.2 76.06943834210605
2414.06 76.03976862056983
2419.92 76.01038979271019
2425.78 75.98135982888336
2431.64 75.95284164174623
2437.5 75.92481336010874
2443.36 75.89737955506865
2449.22 75.87057044050987
2455.08 75.8444272925172
2460.94 75.8189625908744
2466.8 75.79417101735862
2472.66 75.77006945190674
2478.52 75.74661058689374
2484.38 75.72376680731209
2490.23 75.70146359418558
2496.09 75.67967019529746
2501.95 75.65830825767718
2507.81 75.62698344270088
2513.67 75.6063386391607
2519.53 75.59610279977035
2525.39 75.57555209706352
2531.25 75.55502391510522
2537.11 75.53439692778106
2542.97 75.51362346508279
2548.83 75.49257359034246
2554.69 75.4711731429758
2560.55 75.44937556041336
2566.41 75.42710431846793
2572.27 75.40434860614542
2578.12 75.38099402471093
2583.98 75.35703515281206
2589.84 75.33245405093973
2595.7 75.30726684845254
2601.56 75.28140797371357
2607.42 75.25491769204876
2613.28 75.22784855447112
2619.14 75.20018284612996
2625.0 75.17196052442712
2630.86 75.14325922137084
2636.72 75.11412591729881
2642.58 75.08461304307534
2648.44 75.05478221940288
2654.3 75.02475240789124
2660.16 74.9945502539174
2666.02 74.9642750914268
2671.88 74.93402276807613
2677.73 74.90386550055928
2683.59 74.87387517089466
2689.45 74.8441718588569
2695.31 74.81479550013452
2701.17 74.78583515264576
2707.03 74.75736212016383
2712.89 74.72945548097587
2718.75 74.70213425262475
2724.61 74.67549159968549
2730.47 74.6495569248706
2736.33 74.62433319725598
2742.19 74.59992760371492
2748.05 74.57629589814019
2753.91 74.55347791426128
2759.77 74.53145985894542
2765.62 74.51030037391945
2771.48 74.48995908125005
2777.34 74.47037357783236
2783.2 74.4516102037908
2789.06 74.43359793029053
2794.92 74.41635333326452
2800.78 74.39983995922307
2806.64 74.38401051826177
2812.5 74.36883482509971
2818.36 74.35430044356889
2824.22 74.34036920197236
2830.08 74.3270399017668
2835.94 74.31421877481654
2841.8 74.30195706530014
2847.66 74.29019131277667
2853.52 74.27884102723527
2859.38 74.26793966703303
2865.23 74.25746434273384
2871.09 74.24736326346186
2876.95 74.23762575548042
2882.81 74.22819607835731
2888.67 74.21908705628604
2894.53 74.210248512344
2900.39 74.20165366860712
2906.25 74.19327602368055
2912.11 74.18505422284198
2917.97 74.17697813133759
2923.83 74.1690199319025
2929.69 74.16110837815361
2935.55 74.15321582391167
2941.41 74.14529748638864
2947.27 74.13727118739756
2953.12 74.12912060794652
2958.98 74.12074392591023
2964.84 74.1121486177718
2970.7 74.10322705713762
2976.56 74.09395725743965
2982.42 74.08423215776929
2988.28 74.07402803436202
2994.14 74.06327288986625
3000.0 74.05195315074117
3005.86 74.0399496657852
3011.72 74.02729206839125
3017.58 74.01389279607089
3023.44 73.9997184129231
3029.3 73.98479748819197
3035.16 73.96902292064665
3041.02 73.9524774552788
3046.88 73.93508383027479
3052.73 73.91685130903522
3058.59 73.89785989495434
3064.45 73.8780558634559
3070.31 73.85749746607928
3076.17 73.83620997195592
3082.03 73.81422761646098
3087.89 73.7916230486338
3093.75 73.76845407705463
3099.61 73.74479299193763
3105.47 73.72064604039653
3111.33 73.69617638814492
3117.19 73.67135894172257
3123.05 73.64631510622152
3128.91 73.62114011604328
3134.77 73.59585600837983
3140.62 73.57061562234806
3146.48 73.54543674526101
3152.34 73.52044991335427
3158.2 73.49560986208941
3164.06 73.47112863077956
3169.92 73.4469809364417
3175.78 73.423178608151
3181.64 73.39988477958302
3187.5 73.37706268897917
3193.36 73.35477698962598
3199.22 73.33299710371234
3205.08 73.31183465532825
3210.94 73.29124159232873
3216.8 73.27118002582324
3222.66 73.25171280724042
3228.52 73.23275978137468
3234.38 73.21435252678074
3240.23 73.19640154446999
3246.09 73.17891983100496
3251.95 73.16184588306811
3257.81 73.14506058148054
3263.67 73.12861294027547
3269.53 73.11235182648011
3275.39 73.09629470917025
3281.25 73.0803367568127
3287.11 73.06443647520906
3292.97 73.04853087725029
3298.83 73.0325434164749
3304.69 73.01640772066656
3310.55 73.00010236339506
3316.41 72.98361306737993
3322.27 72.96684826457131
3328.12 72.94975462914985
3333.98 72.93238247408716
3339.84 72.91466668254101
3345.7 72.8965863535548
3351.56 72.87813422966025
3357.42 72.85933332699645
3363.28 72.84016184026187
3369.14 72.82063139899213
3375.0 72.80080201806676
3380.86 72.78065546873661
3386.72 72.76019647870555
3392.58 72.73948863365071
3398.44 72.71855649365057
3404.3 72.69740991038378
3410.16 72.67607967333568
3416.02 72.65464025381718
3421.88 72.63307408258592
3427.73 72.61142812575791
3433.59 72.58974234536498
3439.45 72.56801852658064
3445.31 72.54630486959259
3451.17 72.5245998408246
3457.03 72.50294362984
3462.89 72.481321514938
3468.75 72.45979299007787
3474.61 72.43830414010299
3480.47 72.41690917064392
3486.33 72.39559811310073
3492.19 72.37433856504389
3498.05 72.35318919812875
3503.91 72.33207808613199
3509.77 72.31105849471899
3515.62 72.29011013675358
3521.48 72.2691712021408
3527.34 72.24827161592913
3533.2 72.22740743967805
3539.06 72.20654834400571
3544.92 72.18570071828312
3550.78 72.16487217420733
3556.64 72.1440297424667
3562.5 72.12316356590756
3568.36 72.10230051502273
3574.22 72.0813947616578
3580.08 72.0604916739159
3585.94 72.03956711512377
3591.8 72.01864683625253
3597.66 71.99773151097449
3603.52 71.97684333373729
3609.38 71.95597511404854
3615.23 71.9351663703581
3621.09 71.91442996640107
3626.95 71.8937582646355
3632.81 71.87322975002431
3638.67 71.8528607391559
3644.53 71.83263896104144
3650.39 71.81263111444188
3656.25 71.7928428540494
3662.11 71.77332534410924
3667.97 71.75407584630649
3673.83 71.73517383952394
3679.69 71.71660150539819
3685.55 71.69835137731764
3691.41 71.68052933008565
3697.27 71.66310496952713
