Freq "Total Early Reflection"
20.0 43.96857099999998
20.290899 43.841572
20.586 43.710571
20.8855 43.575569000000016
21.189301 43.437572
21.497499 43.299572
21.8102 43.16357000000001
22.127399 43.02857199999998
22.4492 42.89357
22.775801 42.76057100000001
23.1071 42.624568999999994
23.443199 42.48257099999999
23.7841 42.33256899999999
24.1301 42.17157000000002
24.4811 41.999568999999994
24.8372 41.81657
25.1984 41.624568999999994
25.564899 41.42756999999999
25.9368 41.22856900000001
26.3141 41.030570999999995
26.6968 40.837570000000014
27.0851 40.64556900000001
27.479099 40.453571
27.878799 40.258572
28.2843 40.056572
28.6957 39.845569999999995
29.1131 39.62356900000002
29.536501 39.389572
29.966101 39.14957
30.402 38.905570999999995
30.8442 38.66556899999999
31.2929 38.434569999999994
31.748 38.214569
32.209801 38.01057100000001
32.678299 37.829571
33.153599 37.672568999999996
33.635899 37.544571000000005
34.125099 37.45557000000001
34.621498 37.41457000000001
35.125 37.424572
35.635899 37.49457199999999
36.154301 37.620571
36.680199 37.809569999999994
37.213699 38.06856900000001
37.755 38.387569
38.3041 38.757571999999996
38.861301 39.16457000000001
39.426498 39.609570000000005
40.0 40.085571
40.581799 40.579571
41.1721 41.087570000000014
41.771 41.609570000000005
42.378502 42.14556900000001
42.9949 42.68257100000001
43.6203 43.21857099999998
44.254799 43.75456999999999
44.898499 44.28957000000001
45.551498 44.822570999999996
46.2141 45.354572000000005
46.886299 45.880568999999994
47.568298 46.40156900000001
48.260201 46.91556899999999
48.962101 47.422568999999996
49.674301 47.925571000000005
50.396801 48.42598497069871
51.129902 48.920389444951596
51.8736 49.409788430453304
52.628101 49.922176764730025
53.3936 50.36655629440712
54.1702 50.83892594084138
54.958099 51.3062865485535
55.7575 51.76863995820476
56.568501 52.22798209568974
57.391399 52.686315725908045
58.226101 53.141640929747226
59.073 53.5909523947539
59.932301 54.03925796094434
60.804 54.48655463764716
61.6884 54.93183818594731
62.585701 55.37411345052125
63.496 55.81337635955457
64.419601 56.252627674063675
65.356598 56.68787132509583
66.307297 57.121105072569364
67.271698 57.5533249239207
68.250198 57.98253456606197
69.242897 58.40673192612128
70.250099 58.83091876673602
71.271896 59.25609602198877
72.308601 59.68125844783732
73.360298 60.10340998533353
74.427399 60.52654931120553
75.509903 60.94967643562633
76.608299 61.374788973942756
77.722603 61.799893923203754
78.853104 62.22498106068174
80.0 62.65105923733306
81.163597 63.080119217477275
82.3442 63.5121707666636
83.541901 63.948207822278604
84.757 64.38523315462207
85.989899 64.82323745240413
87.240601 65.2632327256858
88.509598 65.70621359166331
89.797 66.15117797513668
91.103104 66.59612765098781
92.4282 67.0450684002064
93.772598 67.49998198821646
95.136597 67.9558881897902
96.520401 68.41377785643327
97.924301 68.87365777030858
99.348602 69.33651270288613
100.794 69.80235711283201
102.26 70.27318241399304
103.747 70.74599030472174
105.256 71.22477700210536
106.787 71.70855252493148
108.34 72.19530889225335
109.916 72.6880513236856
111.515 73.18377483972036
113.137 73.67747346113936
114.783 74.16916241023205
116.452 74.65682750777165
118.146 75.1404761791295
119.865 75.62510444820438
121.608 76.11371213672528
123.377 76.6033066739588
125.171 77.09587188264399
126.992 77.59342219509693
128.839 78.09494943513056
130.713 78.60345983400111
132.615 79.1149476247664
134.543 79.62941342746942
136.5 80.13285488624582
138.486 80.56228403298961
140.5 81.00067969396966
142.544 81.44305731376062
144.617 81.82341671991728
146.721 82.18374836064852
148.855 82.56505206486752
151.02 82.93034207649548
153.217 83.27860064158801
155.445 83.59983559060312
157.706 83.8930453808035
160.0 84.1552320539107
162.327 84.38239765222703
164.688 84.55553642926562
167.084 84.70463964091623
169.514 84.82572412243198
171.98 84.9067803438654
174.481 84.93981414222425
177.019 84.9298119921332
179.594 84.88478694586577
182.206 84.81273305641774
184.856 84.73164859191738
187.545 84.65354082322298
190.273 84.56440180856482
193.041 84.47222682291331
195.849 84.37702292766434
198.697 84.27279518504952
201.587 84.16553709321143
204.52 84.05724093741188
207.494 83.95191135012637
210.512 83.84955605630721
213.574 83.74316912929366
216.681 83.63674186377824
219.833 83.52128633685913
223.03 83.38780062667796
226.274 83.23227625668699
229.565 83.07271231077002
232.905 82.9301173206757
236.292 82.80148892832676
239.729 82.68182589493726
243.216 82.57711831475517
246.754 82.4713815092329
250.343 82.34960857714775
253.984 82.2417908458637
257.678 82.2179336467851
261.426 82.30804431544448
265.229 82.48911019159145
269.087 82.7201393892234
273.001 82.95612525463186
276.972 83.18307613853993
281.0 83.42297816394135
285.088 83.68684715445806
289.234 83.93666677562156
293.441 84.10644186126595
297.709 84.23817855030053
302.04 84.35786945569856
306.433 84.4405134879256
310.89 84.50411626933997
315.412 84.55367219221678
320.0 84.56218165417307
324.655 84.54264405827108
329.377 84.53905857200664
334.168 84.56442484901422
339.028 84.61273706640996
343.959 84.6630068911306
348.962 84.68822475497176
354.038 84.68939809581245
359.188 84.684516357725
364.412 84.67357874360121
369.713 84.6705912042422
375.09 84.69755170701269
380.546 84.7394642197224
386.081 84.76231797064199
391.697 84.73911169577208
397.394 84.69585463531831
403.175 84.70154379595668
409.039 84.78618017786437
414.989 84.90274780659739
421.025 84.96526595075836
427.149 84.98472539987534
433.362 85.00812369580059
439.665 85.0644593883694
446.06 85.10774129768839
452.548 85.14795599339321
459.131 85.13511431805493
465.809 85.078204596188
472.584 85.01023069004735
479.458 84.97919447557327
486.432 85.04509357333026
493.507 85.09393661312886
503.906 85.09393661312886
509.766 85.1200868953912
515.625 85.14482281398666
521.484 85.1681415261968
527.344 85.19007040137994
533.203 85.21065710760216
539.062 85.22987799571158
544.922 85.24771531552553
550.781 85.26421522146751
556.641 85.27935311194612
562.5 85.29314878508812
568.359 85.30561250522298
574.219 85.31676249882891
580.078 85.32659206557067
585.938 85.3351243444895
591.797 85.34236883545312
597.656 85.34832691674046
603.516 85.3531144977185
609.375 85.35664641700419
615.234 85.35902766607147
621.094 85.36025973983276
626.953 85.36039329395129
632.812 85.35949928427577
638.672 85.35758700622766
644.531 85.35475261812277
650.391 85.3509827632829
656.25 85.34640843314759
662.109 85.34102496803844
667.969 85.33494649569495
673.828 85.32820822162925
679.688 85.32087209638668
685.547 85.31299930771353
691.406 85.3046808115336
697.266 85.29595897310269
703.125 85.28686263033295
708.984 85.27750572987128
714.844 85.2679107302504
720.703 85.25812739486169
726.562 85.24822172260407
732.422 85.23825568662009
738.281 85.22822214513877
744.141 85.21820759488844
750.0 85.20820484109073
755.859 85.19823952111989
761.719 85.18838045740443
767.578 85.17859777332066
773.438 85.16894905062243
779.297 85.15941627841501
785.156 85.15002437274883
791.016 85.14073552786184
796.875 85.13157687569425
802.734 85.12255562032117
808.594 85.11367291351608
814.453 85.10488827170525
820.312 85.09620839929089
826.172 85.08760364603695
832.031 85.07913490411977
837.891 85.06652615089953
843.75 85.06241757873515
849.609 85.05410525431064
855.469 85.04584528177402
861.328 85.037626643781
867.188 85.02946103638925
873.047 85.02131979563362
878.906 85.01322022540879
884.766 85.0051164520351
890.625 84.99708874272062
896.484 84.98904817824227
902.344 84.98108469827515
908.203 84.9731551821593
914.062 84.96530918696183
919.922 84.95753752413962
925.781 84.94981410588841
931.641 84.94222732073105
937.5 84.93473418853817
943.359 84.92740029598646
949.219 84.92018934238662
955.078 84.91314880799514
960.938 84.90627417094139
966.797 84.89960924019563
972.656 84.8931713955932
978.516 84.88695334652898
984.375 84.88097562551519
990.234 84.8752294505975
996.094 84.86977140243435
1001.95 84.86456320924387
1007.81 84.85964169252763
1013.67 84.85493790347174
1019.53 84.8505319500755
1025.39 84.84636669255178
1031.25 84.84245228761576
1037.11 84.8387421910454
1042.97 84.83527722892681
1048.83 84.83199299443983
1054.69 84.82887629925789
1060.55 84.82586961136835
1066.41 84.82302587213698
1072.27 84.82025046947022
1078.12 84.81748314092185
1083.98 84.81479150522017
1089.84 84.81200878156521
1095.7 84.80920501170293
1101.56 84.80629503626282
1107.42 84.80324244485122
1113.28 84.79999440244673
1119.14 84.79657730438107
1125.0 84.79289819819486
1130.86 84.78891889245214
1136.72 84.78465291726283
1142.58 84.7800331098421
1148.44 84.77507825906058
1154.3 84.76970573497043
1160.16 84.76392994915317
1166.02 84.75772040368152
1171.88 84.75107105965022
1177.73 84.74394829490177
1183.59 84.73638978621035
1189.45 84.72833586014697
1195.31 84.71983440226492
1201.17 84.71086334627348
1207.03 84.70140041584519
1212.89 84.69150870322953
1218.75 84.68114833917646
1224.61 84.67039555081979
1230.47 84.65920097905017
1236.33 84.64763029748664
1242.19 84.6356899541374
1248.05 84.62337932846667
1253.91 84.61077225490745
1259.77 84.59785094158325
1265.62 84.58464649030756
1271.48 84.57121963516866
1277.34 84.55757604950331
1283.2 84.54371158385281
1289.06 84.52969705982888
1294.92 84.51557339804067
1300.78 84.50135956204028
1306.64 84.48697953866379
1312.5 84.47260837776078
1318.36 84.45819596806466
1324.22 84.44374794745308
1330.08 84.42929388376233
1335.94 84.41488743301707
1341.8 84.40050873662308
1347.66 84.386165037406
1353.52 84.37183768699651
1359.38 84.35759990976369
1365.23 84.34339814804447
1371.09 84.32928511814318
1376.95 84.31519724351737
1382.81 84.30118442685468
1388.67 84.28722413744384
1394.53 84.27331515563601
1400.39 84.25942800978534
1406.25 84.24558614796919
1412.11 84.23175359837113
1417.97 84.21794306983777
1423.83 84.20413123491686
1429.69 84.19032087495094
1435.55 84.1764605099019
1441.41 84.16262481188012
1447.27 84.1487222676597
1453.12 84.13481894500735
1458.98 84.12089007697226
1464.84 84.10694907135287
1470.7 84.09298961163455
1476.56 84.07903896796645
1482.42 84.06508710046673
1488.28 84.05115214214773
1494.14 84.03729923492769
1500.0 84.02355075784122
1505.86 84.00990544167013
1511.72 83.99646025295003
1517.58 83.98321978570029
1523.44 83.97024862903623
1529.3 83.95764000339977
1535.16 83.94538749236293
1541.02 83.93364274009775
1546.88 83.92243812915255
1552.73 83.91184264036293
1558.59 83.90201690737727
1564.45 83.89294264057295
1570.31 83.8847715131308
1576.17 83.87759936511428
1582.03 83.8715090954988
1587.89 83.86660808115982
1593.75 83.862973070288
1599.61 83.86072792581551
1605.47 83.85993226040704
1611.33 83.86067677108538
1617.19 83.86306880179994
1623.05 83.86719944795489
1628.91 83.87308413855534
1634.77 83.88081534612193
1640.62 83.89044707837205
1646.48 83.90200340678011
1652.34 83.91553255097638
1658.2 83.93102150407195
1664.06 83.948508225168
1669.92 83.96795931870274
1675.78 83.98935161473212
1681.64 84.01265564227307
1687.5 84.03783654583542
1693.36 84.06481503268604
1699.22 84.09351345303186
1705.08 84.12386169414744
1710.94 84.1557993717813
1716.8 84.18916450246734
1722.66 84.2238716963365
1728.52 84.25979724376337
1734.38 84.29685238162692
1740.23 84.33492397823747
1746.09 84.37381589476574
1751.95 84.41343960639618
1757.81 84.45370784666795
1763.67 84.49440517534195
1769.53 84.53549472269341
1775.39 84.57679918585022
1781.25 84.6182164865646
1787.11 84.65962718778569
1792.97 84.70093135474889
1798.83 84.74206090468984
1804.69 84.78284676530676
1810.55 84.82319984821133
1816.41 84.86311610966568
1822.27 84.9024209954146
1828.12 84.94111646325307
1833.98 84.97910058131029
1839.84 85.01628621152328
1845.7 85.05266058087112
1851.56 85.08814406172907
1857.42 85.12274663788577
1863.28 85.15638395445191
1869.14 85.18902601856486
1875.0 85.22070065854328
1880.86 85.25131427253518
1886.72 85.28091002855747
1892.58 85.30945763935424
1898.44 85.33694009541604
1904.3 85.36335189016944
1910.16 85.38873480430028
1916.02 85.41305677069505
1921.88 85.43634348588785
1927.73 85.45862910344877
1933.59 85.47989317290774
1939.45 85.50019107554027
1945.31 85.51952318478139
1951.17 85.5379197178985
1957.03 85.55540857382954
1962.89 85.57206092191788
1968.75 85.5878512903632
1974.61 85.60285091245487
1980.47 85.61707622268477
1986.33 85.63056638142515
1992.19 85.64336985666871
1998.05 85.65553756068678
2003.91 85.66708885845985
2009.77 85.67809164415719
2015.62 85.68852505554577
2021.48 85.69849618386012
2027.34 85.70801050625992
2033.2 85.71712211608501
2039.06 85.72585024481344
2044.92 85.73424281833294
2050.78 85.74234111687878
2056.64 85.75014177496523
2062.5 85.75772536151258
2068.36 85.76512221805139
2074.22 85.77233032579484
2080.08 85.77935478465308
2085.94 85.78624642706451
2091.8 85.79301934827946
2097.66 85.79970898341561
2103.52 85.80630437070266
2109.38 85.81279079422322
2115.23 85.81927221784701
2121.09 85.8256220249894
2126.95 85.83194308843399
2132.81 85.83818754810848
2138.67 85.84434544466647
2144.53 85.85043502756814
2150.39 85.85643147979857
2156.25 85.86236085467756
2162.11 85.86817247742225
2167.97 85.87383934522751
2173.83 85.87939662411394
2179.69 85.88478321109936
2185.55 85.88999385362983
2191.41 85.8950003723961
2197.27 85.89980689162897
2203.12 85.90434732070418
2208.98 85.90867992012015
2214.84 85.91272808701486
2220.7 85.9164754889795
2226.56 85.91988907864304
2232.42 85.92299506876682
2238.28 85.9257514145899
2244.14 85.92818344923357
2250.0 85.93020532038994
2255.86 85.93185683365459
2261.72 85.93311823547535
2267.58 85.93394880498771
2273.44 85.93441810300364
2279.3 85.93447392346863
2285.16 85.93409166532265
2291.02 85.93329411580164
2296.88 85.93210314522081
2302.73 85.93051042924378
2308.59 85.9284995891958
2314.45 85.92612972761214
2320.31 85.92338821573513
2326.17 85.92021932748487
2332.03 85.91674507499886
2337.89 85.91290277359425
2343.75 85.9087339057004
2349.61 85.90428025101414
2355.47 85.89949236953035
2361.33 85.89446051040173
2367.19 85.88915012000652
2373.05 85.8835996919223
2378.91 85.87780630997206
2384.77 85.87180607065196
2390.62 85.86561260488374
2396.48 85.85925801170684
2402.34 85.85273635187622
2408.2 85.84606638238728
2414.06 85.83926197172359
2419.92 85.83234646381715
2425.78 85.82533312821259
2431.64 85.818217518302
2437.5 85.81100828984516
2443.36 85.80376907299842
2449.22 85.79644529844234
2455.08 85.78906000987168
2460.94 85.78167076379903
2466.8 85.77422908587312
2472.66 85.76675714932831
2478.52 85.75924143506019
2484.38 85.75176340236288
2490.23 85.74423773599568
2496.09 85.73672386552948
2501.95 85.72923370620335
2507.81 85.71805666027143
2513.67 85.7105874750094
2519.53 85.7069418788747
2525.39 85.69956130204135
2531.25 85.69224800234412
2537.11 85.6849895032936
2542.97 85.67782142353647
2548.83 85.67072485988827
2554.69 85.66373759000716
2560.55 85.6568757563005
2566.41 85.65012252814081
2572.27 85.64352279478057
2578.12 85.63709896316153
2583.98 85.63086828785823
2589.84 85.62481323757457
2595.7 85.61899333393238
2601.56 85.61342221312769
2607.42 85.60808860856001
2613.28 85.60306469465954
2619.14 85.59835327167872
2625.0 85.59392203160674
2630.86 85.58985905899083
2636.72 85.58617534649817
2642.58 85.58288058511121
2648.44 85.57996956615595
2654.3 85.57746605807061
2660.16 85.57544301521729
2666.02 85.5738600628737
2671.88 85.57271972597965
2677.73 85.5720735455181
2683.59 85.57192682810236
2689.45 85.57228317019215
2695.31 85.57313284275904
2701.17 85.5744941349214
2707.03 85.57633801496894
2712.89 85.57870777586844
2718.75 85.5815755489922
2724.61 85.5849365672894
2730.47 85.58875898812153
2736.33 85.5930509724451
2742.19 85.59783564374561
2748.05 85.60300699975649
2753.91 85.60858998846633
2759.77 85.61459439644732
2765.62 85.62095131050172
2771.48 85.62762881746386
2777.34 85.63460946524431
2783.2 85.64189157949501
2789.06 85.64941667879705
2794.92 85.65713638738269
2800.78 85.66502744438526
2806.64 85.67305607587853
2812.5 85.68120535631768
2818.36 85.6893852259647
2824.22 85.6976167764776
2830.08 85.70584098710111
2835.94 85.71402793506343
2841.8 85.72212086952833
2847.66 85.73014841604737
2853.52 85.73800374793474
2859.38 85.74567558184431
2865.23 85.75314062568194
2871.09 85.76040706959616
2876.95 85.76735688430159
2882.81 85.77407008156304
2888.67 85.78041956613566
2894.53 85.78648215581713
2900.39 85.79216492654379
2906.25 85.79749400603863
2912.11 85.80242277226445
2917.97 85.80692914731796
2923.83 85.81104433618154
2929.69 85.81474331910287
2935.55 85.81801691713532
2941.41 85.82086084964921
2947.27 85.82324327898019
2953.12 85.8252065915464
2958.98 85.82670790572875
2964.84 85.82779221017311
2970.7 85.82840703263265
2976.56 85.82862874854888
2982.42 85.82838557220246
2988.28 85.82775082790725
2994.14 85.82671647407572
3000.0 85.82528673740434
3005.86 85.82343943558737
3011.72 85.82123699296393
3017.58 85.81866653501228
3023.44 85.81574248325707
3029.3 85.81246338704268
3035.16 85.80885425478273
3041.02 85.804947939157
3046.88 85.80074934057468
3052.73 85.79621813522476
3058.59 85.79142367712224
3064.45 85.78636607400458
3070.31 85.78104228777019
3076.17 85.77544077701984
3082.03 85.76962794433952
3087.89 85.76358717149537
3093.75 85.75731355889643
3099.61 85.75083849851093
3105.47 85.74416292286806
3111.33 85.73730370591325
3117.19 85.730224379592
3123.05 85.72297677682886
3128.91 85.71557758733437
3134.77 85.70799966548564
3140.62 85.70024658010162
3146.48 85.69234915263088
3152.34 85.68434273106989
3158.2 85.67615340754863
3164.06 85.66787200599897
3169.92 85.65948591707719
3175.78 85.65097778234606
3181.64 85.64240102502417
3187.5 85.63370234042256
3193.36 85.6249433092349
3199.22 85.61614554353116
3205.08 85.60728882660473
3210.94 85.5983775586628
3216.8 85.58944398385326
3222.66 85.58051882323772
3228.52 85.57156645010961
3234.38 85.56265749811224
3240.23 85.5537644260635
3246.09 85.54488054851633
3251.95 85.53605855486389
3257.81 85.5273102058649
3263.67 85.51860878124019
3269.53 85.50997366005247
3275.39 85.50140844453831
3281.25 85.4929602591079
3287.11 85.48460782354532
3292.97 85.47633176322115
3298.83 85.46816949764461
3304.69 85.46008696021954
3310.55 85.45209090001622
3316.41 85.4442115890982
3322.27 85.43639400288387
3328.12 85.42867332477581
3333.98 85.4210277584134
3339.84 85.41345262259601
3345.7 85.40594442695503
3351.56 85.39845572124338
3357.42 85.39100420854678
3363.28 85.38358608162352
3369.14 85.37615900541378
3375.0 85.36872826173301
3380.86 85.36128448885707
3386.72 85.35381181214281
3392.58 85.34630445632318
3398.44 85.33873337481307
3404.3 85.33105806230061
3410.16 85.3233566487179
3416.02 85.31550223835161
3421.88 85.3075764699329
3427.73 85.29950362962867
3433.59 85.29133608057154
3439.45 85.28304420969285
3445.31 85.27462092503077
3451.17 85.26607306315991
3457.03 85.25737640190594
3462.89 85.24853575695437
3468.75 85.2396097502894
3474.61 85.23053347179844
3480.47 85.2213430405315
3486.33 85.21207713488421
3492.19 85.20266683330757
3498.05 85.19323087595583
3503.91 85.18369551390408
3509.77 85.17408976496745
3515.62 85.16444920313491
3521.48 85.15477459248206
3527.34 85.1450742869986
3533.2 85.13538507291888
3539.06 85.1257073631554
3544.92 85.11610206692505
3550.78 85.10653400081047
3556.64 85.0969842127743
3562.5 85.08758119839064
3568.36 85.07825532208925
3574.22 85.06901126550969
3580.08 85.05990846611657
3585.94 85.05093943143073
3591.8 85.04208631287743
3597.66 85.03341616962494
3603.52 85.02488542335122
3609.38 85.01648040957944
3615.23 85.00829465408795
3621.09 85.00020609965253
3626.95 84.99231160275554
3632.81 84.984602272354
3638.67 84.9770049116864
3644.53 84.96961096429435
3650.39 84.962356347674
3656.25 84.95524819540937
3662.11 84.94828805405622
3667.97 84.94147933408132
3673.83 84.9347621840053
3679.69 84.92821788313502
3685.55 84.92177454764563
3691.41 84.91544278503291
3697.27 84.90921430222393
3703.12 84.90307888179844
3708.98 84.89706682044005
3714.84 84.89110477237436
3720.7 84.88526553247338
3726.56 84.87942281008762
