Freq,Floor Bounce,Ceiling Bounce,Front Wall Bounce,Side Wall Bounce,Rear Wall Bounce,Total Early Reflection
22.4,48.20473530118575,57.43513059177984,52.563726193135,52.34971964041971,50.91818956944557,53.408108862662814
23.0,48.670829702842966,58.103069571042525,53.2223988030493,53.01024125667492,51.5860433950226,54.06142482602637
23.6,49.12926676879421,58.67001488257476,53.85010485343959,53.64100050317178,52.19276256537184,54.64683626092271
24.0,49.56419800295966,59.20306957104252,54.42239880304932,54.20059257867932,52.75694319868886,55.18877075750309
25.0,50.299654392771785,59.770014882574756,55.15010485343957,54.8890483856173,53.410109836959194,55.82165898679766
25.8,55.199135369514366,61.43358982687995,58.48651449586093,58.020420743537315,56.40040728543367,58.44900209461646
26.5,58.272448266458426,63.10000000000001,61.02913392494288,60.450134406914785,58.782495709537116,60.67865027668962
27.2,60.216277831777475,64.4669218511605,62.71508314243884,62.10177646298136,60.42024661809036,62.274084498438
28.0,61.61627783177748,65.5669218511605,64.00065786069426,63.381704756241575,61.68020178716709,63.50918791374015
29.0,62.716277831777475,66.4669218511605,65.0861845050195,64.44238600664343,62.70050751197657,64.52437466029133
30.0,63.68888547155004,67.2669218511605,65.97231738497824,65.32250153782708,63.57027956503558,65.391983570837
30.7,64.48888547155002,68.00076749445562,66.75774911351313,66.10265644163714,64.34496906162778,66.1611143451758
31.5,65.18888547155002,68.60076749445561,67.44379833967025,66.76104905672467,65.03891479190453,66.81854311532975
32.5,65.88888547155003,69.2007674944556,68.07231738497823,67.4137275290026,65.6556139551741,67.45160922192187
33.5,66.48888547155003,69.73435140868503,68.65808127197248,67.98262075981664,66.24997788527531,68.02161656161378
34.5,68.02758719283591,70.50076749445562,69.67231738497823,69.0321017170956,67.38057957622213,69.06532176850583
35.5,69.4489851487955,71.30076749445563,70.68618450501948,70.04146291180585,68.48910384540747,70.10043293056914
36.5,70.54283030471974,71.96845083805432,71.51508314243884,70.91145282313902,69.4208718180439,70.95705438486527
37.5,71.44283030471972,72.56845083805433,72.28618450501949,71.64989049465397,70.21085503351856,71.70574641583623
38.7,72.20690501035459,73.10076749445561,72.91508314243885,72.30019996104477,70.89837839512498,72.34976947025311
40.0,72.90690501035459,73.63513059177983,73.51508314243883,72.90019996104478,71.51211614103532,72.95582451426573
41.2,73.53821129888743,74.10076749445561,74.05742449135815,73.41928899511603,72.07489693444822,73.49651952789658
42.5,74.00306957104252,74.46845083805432,74.4861845050195,73.84941916130282,72.5267335265249,73.92226260891205
43.7,74.00306957104252,74.36845083805433,74.41508314243885,73.80920611180409,72.52922323055425,73.87602487030041
45.0,74.00306957104252,74.23513059177982,74.3437907541973,73.70019996104477,72.46752444557097,73.79974950860503
46.2,73.96845083805432,74.06845083805432,74.30065786069424,73.60019996104478,72.4068915608456,73.71768534420994
47.5,73.90306957104252,73.90306957104252,74.20065786069425,73.4717659101362,72.36261627806759,73.61375565052606
48.7,73.86845083805433,73.70306957104252,74.11508314243883,73.34288035185982,72.27624271623174,73.50648046520763
50.0,73.86845083805433,73.57150800786938,74.02946066855591,73.25335640399274,72.2438542862541,73.43738017938752
51.5,75.26845083805433,74.60690501035458,75.35873795327733,74.43008765391919,73.01768526290154,74.61315328484085
53.0,76.76845083805433,75.9069050103546,76.7874892989204,75.74448285318307,73.97603827079617,75.94889547828994
54.5,77.86845083805433,76.87609175449221,77.88748929892041,76.80833723319653,74.78656849404689,76.98040616172163
56.0,78.80306957104253,77.74283030471976,78.80229476693692,77.66987569194015,75.48629761468355,77.85506513589817
58.0,79.56845083805433,78.44283030471973,79.55971162456,78.40231930882494,76.09316979691847,78.58131257246521
60.0,80.26845083805433,79.01227178315618,80.17461192973443,79.00231930882494,76.70213477979762,79.20549286786226
61.5,80.76845083805433,79.37609175449221,80.61704993328868,79.4634273567708,77.30682373745304,79.66992366612871
63.0,81.26845083805433,79.71227178315618,81.05971162456001,79.89069522487671,77.83180243761718,80.11450498032512
65.0,81.7007674944556,80.11227178315617,81.45971162456,80.30231930882495,78.34170901424203,80.53827376338693
67.0,82.13435140868502,80.41227178315619,81.85971162456,80.68077695569976,78.77970423435461,80.92968550119039
69.0,82.73435140868501,80.81227178315618,82.40229476693692,81.17512455546704,79.09154178142188,81.42591954216932
71.0,83.36692185116051,81.28219967332303,82.95971162456,81.6788067099729,79.35968001788082,81.94584731900662
73.0,83.9669218511605,81.71916705502754,83.45971162455999,82.14460912882849,79.61056687943322,82.43004009677236
75.0,84.4669218511605,82.11916705502753,83.95971162456,82.61450119722154,79.86463637124392,82.88239071245239
77.5,85.0669218511605,82.71916705502754,84.54510093472827,83.2446091288285,80.63889484916756,83.50203838336421
80.0,85.6669218511605,83.38219967332306,85.15971162455999,83.8969656345876,81.50666183867195,84.15454488026457
82.5,86.16692185116051,83.98219967332304,85.68879404668057,84.47512455546705,82.24609846207005,84.71996460622672
85.0,86.63358982687997,84.41227178315619,86.10229476693692,84.92997233795323,82.81859325945557,85.17715220294001
87.5,86.6669218511605,84.3489851487955,86.10229476693692,84.88338653232525,82.88648845402109,85.17516993860663
90.0,86.5669218511605,84.18219967332304,86.03175513861906,84.75510903002112,82.90237945598363,85.08012479867087
92.5,86.5669218511605,84.04898514879551,85.97525122642456,84.62782477016167,82.88508665477082,85.0190120960533
95.0,86.6669218511605,83.91916705502754,86.01834583164506,84.57565297901421,82.706706811612,85.00736530469403
97.5,86.76692185116049,83.78982856673473,86.11834583164507,84.57190457586246,82.43591069267792,85.01111810735169
100.0,86.9669218511605,83.72758719283591,86.20489499373622,84.5621376888646,82.15131987036531,85.05326169831457
103.0,86.9669218511605,83.69471929119203,86.21834583164507,84.57467397396029,82.07130927718683,85.0460564670963
106.0,86.9669218511605,83.72758719283591,86.21834583164507,84.61092052251885,82.04333354190466,85.05460150242605
109.0,86.93358982687998,83.72758719283591,86.1610247430264,84.62857830832579,82.03653690745358,85.03185472365662
112.0,86.83358982687999,83.62758719283592,86.0610247430264,84.48737852734708,81.96418835861202,84.92716198616374
115.0,86.7007674944556,83.42758719283593,85.9048949937362,84.29102231465365,81.88386869086487,84.77230421393564
118.0,86.5669218511605,83.16588846059688,85.76264712636358,84.09102231465363,81.704003650351,84.60117068234742
122.0,86.53358982687998,82.89897445130926,85.66264712636357,83.9148462482193,81.36147209572017,84.46094057955499
125.0,86.4669218511605,82.66588846059686,85.56264712636356,83.74286887873889,81.02297367592527,84.31789312403
128.0,86.50076749445562,82.76588846059688,85.66264712636357,83.77527584522029,80.95660213893959,84.36904476418945
132.0,86.60076749445561,82.93752777300028,85.74933300911412,83.83792592682265,80.93693436319037,84.45819032749904
136.0,86.53435140868503,82.73752777300028,85.67949971036133,83.64357620718567,80.64971443803582,84.33089536330478
140.0,86.33435140868502,82.50473530118573,85.50879413841812,83.3741168571784,80.22872878187897,84.10407900828406
145.0,86.26845083805433,82.37662798253906,85.43924275721992,83.23580789708863,80.17432568319109,84.01737653924116
150.0,86.26845083805433,82.33752777300028,85.4248458197569,83.22064903223857,80.31394043038355,84.01723749275992
155.0,86.10228461396021,82.07662798253905,85.25383697975171,82.97724917504617,80.08510829299198,83.81883475241835
160.0,85.8022846139602,81.54898359150842,84.93924275721993,82.6502701923405,79.63873670229633,83.46817080149505
165.0,85.83435140868504,81.36194867563766,84.93821837558623,82.62874929312387,79.36092608035688,83.4293514202419
170.0,86.00228461396019,81.36194867563766,85.05354065498237,82.69736478610623,79.10694392405513,83.51336348083836
175.0,86.06845083805433,81.5026545034034,85.16653957825426,82.74079174103608,78.88038201658219,83.57783286297048
180.0,86.07071732495409,81.6026545034034,85.256113113523,82.72633700518993,78.70881803438772,83.60341703286421
185.0,86.03663575667186,81.5026545034034,85.25518249849905,82.65366170054388,78.63824703158694,83.5621792664729
190.0,85.83663575667187,81.4026545034034,85.12678689417815,82.54582305005225,78.52502411707384,83.41650730775243
195.0,85.7053180676647,81.3026545034034,84.98074803729256,82.42137818445684,78.34729516202844,83.28291712674091
200.0,85.7404416794549,81.37641629732153,85.09817545090702,82.47491046266475,78.17343677858749,83.337413207188
206.0,85.80531806766471,81.47641629732152,85.22645994933288,82.5451118877054,78.06191962100563,83.4162650313884
212.0,85.84044167945491,81.54391724861638,85.29953832281076,82.60115718133144,78.02029988490662,83.46608678570927
218.0,85.80986628672329,81.6026545034034,85.3136394060688,82.55955882733808,78.01896611492258,83.46060131978525
224.0,85.7457671943847,81.54391724861638,85.37172729776472,82.48745341992122,77.81853718629081,83.42610666844837
230.0,85.55260953202217,81.71792789764851,85.45611311352299,82.63880760893905,77.41430917029605,83.41491959842702
236.0,85.03257218046558,82.25062128010364,85.4817624374694,82.81614055486912,77.47413401122608,83.37257582948499
240.0,84.0950645803583,82.7026545034034,85.15354065498238,82.63298898008821,77.96330339917544,83.08180232667371
250.0,83.14314826109434,82.33752777300028,84.0959212612557,81.56858926175882,77.18632956761121,82.20174553817004
258.0,84.64044167945491,81.8489835915084,84.39728484062566,81.60411209377801,76.91445374720618,82.61618261748156
265.0,85.43663575667186,81.57641629732153,84.79852806661981,81.94381810677108,76.6773809693705,83.00295849482741
272.0,85.64044167945491,81.67641629732152,85.02645994933289,82.2463156689369,76.42998080863761,83.19496213992949
280.0,85.80986628672329,81.63546263134681,85.16910435091775,82.46378892678824,76.4322065381708,83.32799842290068
290.0,85.54576719438471,81.13546263134683,85.06999024155263,82.51684071425849,76.4406304463947,83.14877796757283
300.0,85.43257218046557,81.57641629732153,85.43054006344157,82.79290548396547,76.66773314355531,83.34033093844208
307.0,85.60464502318537,81.71792789764851,85.5615403272645,82.75971212232908,76.51527487331076,83.44580332796717
315.0,85.63257218046559,81.6026545034034,85.53544466851027,82.56823936004096,76.08550207682157,83.38221826438017
325.0,85.60464502318537,81.37641629732153,85.52294230691989,82.36851608191903,75.56320142207808,83.28777608440684
335.0,85.54314826109434,81.24391724861638,85.52294230691989,82.35909285352591,75.39317512693007,83.24276059032081
345.0,85.50464502318535,80.84391724861636,85.45821708819501,82.14606526047348,75.39039099977471,83.12416477231169
355.0,85.34314826109436,80.2857391564897,85.3148719390567,81.8331387157492,74.9592556932409,82.89088164708359
365.0,85.11592538879982,79.6026335053877,85.14315712943684,81.63460902658841,74.55206298021966,82.63441176112366
375.0,84.82869245367796,79.08573603864205,84.90487132123954,81.40966796913574,74.31963586024493,82.35413913806998
387.0,84.22869245367795,78.43155215291051,84.44425287945741,80.81516149070191,74.21177904146354,81.8168499394866
400.0,83.4429397936019,77.73510550729974,83.8070574323123,79.71883347687697,73.50166769201951,81.04973386342479
412.0,82.8429397936019,77.41394942912605,83.4582097559513,78.98569336071299,72.63421700797383,80.54468286561183
425.0,83.46878033996789,78.07089600007292,84.09083871537139,79.63180479461579,72.9911098713123,81.17061678480405
437.0,85.5687803399679,79.85131759580825,86.07091054784846,81.2146649700872,75.27971380476824,83.12926183322638
450.0,87.52526453928847,81.61498382011472,88.10983811824873,82.51950431117423,76.74021062902685,85.00681303425178
462.0,87.91832544184972,82.85038609828258,89.11752444402565,83.31825266440293,75.91292044675039,85.75604849340219
475.0,87.4672655885961,83.69265755490996,89.01254481422377,83.47866066978962,75.01535567091743,85.66621580836308
487.0,87.18888547155004,83.43308937677078,88.2822634199912,83.04952953038052,74.26924714193163,85.17402614725982
500.0,86.67082970284298,82.02457993687896,87.31876913648644,82.31011876394831,72.93859989448978,84.32405997232402
515.0,86.14898359150843,80.91323574403134,86.82919603982612,81.81346298910199,72.22828542752545,83.7503866763579
530.0,85.41627783177746,80.52756634145693,86.51752444402564,81.31862165197707,72.11743592170326,83.26828933998432
545.0,85.23821129888744,80.81323574403132,86.20888507559839,81.24099372485061,72.61003126847844,83.11198000922204
560.0,85.86692185116051,80.69472217650473,85.9286828220732,80.98430495425518,72.57750992091111,83.17480316237969
580.0,86.50076749445562,80.46174268592247,85.85147588371923,80.62959341453956,72.34961634528278,83.32632656997492
600.0,86.90231994589774,80.44465953615897,85.89246827316958,80.4546461647688,72.25768326220833,83.49101324899664
615.0,87.20231994589774,80.42756634145692,85.84037598944492,80.20947040514805,71.68687121313434,83.57501189346331
630.0,87.33746771551314,80.09689984743689,85.62974912379521,80.05155739573311,70.58951785215147,83.51085936800273
650.0,87.7069050103546,79.69689984743688,85.43651394195258,79.82151456066323,69.59858050687434,83.5709382389703
670.0,88.24576719438468,79.46382205324667,85.60842463087538,79.68392644657216,69.64754363876737,83.88123518424041
690.0,88.2560388500297,79.01498382011471,85.76545587289772,79.18304112432303,68.73970425553783,83.86139245461892
710.0,88.19238562216104,78.3719180290656,85.55536635662985,78.86535096503037,68.30338053682283,83.69740017322063
730.0,88.64511556931755,78.54245105819959,85.81296173924677,79.17962740111376,69.13308205739568,84.0681059465668
750.0,88.89393259456331,78.21411392837598,86.25604051898293,79.41726753887767,69.06267653370169,84.34324015678904
775.0,89.12179599023939,77.17191802906558,87.27678820280278,79.42723456283419,68.04639972956545,84.76325303621182
800.0,89.79238562216104,78.65315297924211,87.28408778040844,79.98417137701675,69.51566730507146,85.23825525187188
825.0,89.80131827952111,79.27915446671193,86.4574120312225,80.11300131000327,69.7504356095697,85.03624864343642
850.0,89.8948570588317,79.8149838201147,85.82566436382568,80.38603776453455,71.06025474435985,84.98700206356746
875.0,90.24314683892158,80.73209919948373,85.07935525056101,80.93168216983885,72.25383939200543,85.15538591819615
900.0,90.89643568420725,81.49780984381857,85.95956964529196,81.62429894159614,72.64127923784271,85.86269006999824
925.0,90.96615422006835,81.94066681957172,86.9287364825562,81.7160677408914,71.53873684762426,86.15156979150525
950.0,90.40785319525341,81.7590626365751,86.48355293107876,80.16898358905301,69.47431934481709,85.57801037395576
975.0,89.09040221489248,80.94066681957173,85.92556446576849,77.91750785558942,65.70855490202044,84.447296603066
1000.0,88.36348032238101,81.0412305303684,85.212264621961,77.92680522675045,66.64146107800694,83.84480561247308
1030.0,88.07953643779558,82.37625435142637,86.05288288962622,77.410734392536,65.95857924125386,84.07380518080733
1060.0,87.81845254529694,81.17951478283851,86.95457152500911,77.76348772516367,66.22776356522819,84.13718586557825
1090.0,89.23012177221653,80.10252973822757,86.13931326243319,78.8196192517705,67.63671460734223,84.5728554272145
1120.0,89.77089600007291,77.78397949702584,86.10048103822842,76.18119012180887,63.945000393511336,84.65400907591425
1150.0,90.0376990747845,78.20146480937386,87.35806837612651,77.03384116319569,66.78051477100168,85.24875240075282
1180.0,91.281262425955,80.5517743753474,88.4863721361384,77.11122953069534,65.61152887622534,86.46891652931495
1220.0,91.80936525668059,83.17697211958266,89.73133711234468,76.40204518214897,68.114958287637,87.3477055965256
1250.0,91.51592538879983,83.79562483724393,89.58271387021715,78.83194016347686,69.58891066973969,87.24484129334091
1280.0,90.8217959902394,84.08866490030833,88.90498786250991,78.81200373604116,69.44020630234057,86.67766746469695
1320.0,89.08915939292243,81.96062045150713,87.57426314581383,77.50796790031198,67.61944535671036,85.05698019793773
1360.0,87.97644070192742,79.7307933711823,87.56296212644075,77.03242784423901,66.1049267201674,84.30287763667985
1400.0,87.62188682922213,80.34882433806492,87.95504240786579,77.613255524454,65.95946918389956,84.38648037998092
1450.0,86.65237800738083,79.27655011200196,87.454398982402,76.72701218367568,65.62585789490137,83.63414589390212
1500.0,86.39965439277178,79.11505453119959,87.92703976285262,76.59372926332958,64.65315929507257,83.75500763755075
1550.0,86.14293979360191,76.22312489912069,87.44054495067974,78.38595691165399,64.9749460050528,83.34508750086279
1600.0,85.96235742942079,73.05847022189695,87.08312392279866,78.32636756272197,63.99351067651516,82.99417966171958
1650.0,86.11592692226708,73.16475982265035,87.12569374390719,77.91842140632315,63.49913729512657,83.05207540944893
1700.0,85.61592692226706,74.31371992656923,86.9753443050503,77.19811657182974,61.89588880065999,82.75895168032535
1750.0,85.59471929119205,76.18053254533693,87.70254477666117,76.1584345822995,63.34152669773347,83.16714302605395
1800.0,87.26023818113065,78.81753803239934,88.8165161734975,76.46081583400651,62.495532698882144,84.52036102356213
1850.0,87.82188682922212,80.48605330394487,89.53232684949364,77.14308061969054,62.08596365010975,85.23426418410524
1900.0,87.47269619418158,81.45866027600835,89.68555977910633,77.03238147064754,63.7823495592139,85.26797084700237
1950.0,87.75450510839087,83.18296591161956,89.634296851867,78.08749135341317,61.976006040268246,85.53783451196196
2000.0,87.3790630956635,82.63477854745447,89.41471471147965,78.70229278655997,63.71615017175172,85.26539277412259
2060.0,86.27075971706536,80.63120846163048,89.00889914957361,79.28549349869797,64.46017225244518,84.5421679007244
2120.0,85.46355877122028,78.01525611080511,88.7130815397828,78.17458039074782,60.29880299719248,83.89331947586386
2180.0,86.26021521031299,74.15068692884668,88.75128207691034,76.95355877199049,60.07173533974999,83.97736077120184
2240.0,86.6571425131386,72.6502557846858,88.760554188953,75.8822337225327,58.849261214832026,84.05784233773369
2300.0,86.25873049264037,74.14724754949478,88.25175661505237,76.70591781624684,61.166415343215604,83.67463976802576
2360.0,85.78789128195255,75.3972089706332,88.27940566719764,78.50201428747145,63.32493781282618,83.65354876679164
2400.0,86.27296178257869,74.76340256351435,88.31277096765045,78.84610328259423,64.56907895695143,83.8434731415815
2500.0,85.6643514329921,74.19897445130924,87.60904739550008,78.12805128584873,65.56417846445684,83.18071353769753
2580.0,84.74264975123037,77.65603736524558,86.58670915176099,77.26082877935984,66.55096993445225,82.40427809631763
2650.0,86.07578264344643,80.6372621743767,86.87260273359499,78.87826298703642,65.59696747162513,83.37851988234443
2720.0,88.69261039841294,81.45198388589621,88.91177346300793,80.45590163258105,66.3618575186138,85.49861244252118
2800.0,88.69802514804864,82.16185480256912,88.91808150522313,80.46103150018784,68.03386458570385,85.56911264411157
2900.0,87.75054792039127,80.81749764446495,87.2971052831789,81.02790425459138,66.08730571475769,84.42131258460888
3000.0,86.78017536225838,80.11442050468814,87.44041136748227,81.62265726703879,66.36180418974119,84.0940052105425
3070.0,87.486129583526,79.69802514804864,88.08594962627106,81.31437107710498,64.55990725465098,84.58063719569603
3150.0,87.54027291475582,81.68852003748098,88.17007820524441,80.86487404765323,63.91242105837232,84.7589054879403
3250.0,88.86597134844477,82.95017075212571,88.29838868368137,81.18658311194298,64.66684161861511,85.50868607430789
3350.0,90.0359867233715,83.12330427188867,88.51820531042382,80.6637930788905,63.762336449123254,86.11384473592153
3450.0,89.44645349087021,83.90364969489828,89.4947210368447,80.7407127571935,64.93414709945307,86.31014587520546
