Freq "Floor Bounce"
22.4 46.25157074422371
23.0 46.71766514588096
23.6 47.1761022118322
24.0 47.61103344599765
25.0 48.34648983580975
25.8 53.24597081255233
26.5 56.31928370949642
27.2 58.26311327481547
28.0 59.66311327481547
29.0 60.76311327481547
30.0 61.735720914587986
30.7 62.535720914588
31.5 63.235720914588015
32.5 63.935720914588
33.5 64.535720914588
34.5 66.0744226358739
35.5 67.49582059183349
36.5 68.58966574775772
37.5 69.4896657477577
38.7 70.25374045339257
40.0 70.95374045339257
41.2 71.58504674192541
42.5 72.0499050140805
43.7 72.0499050140805
45.0 72.0499050140805
46.2 72.0152862810923
47.5 71.9499050140805
48.7 71.91528628109229
50.0 71.91528628109229
51.5 73.3152862810923
53.0 74.81528628109231
54.5 75.9152862810923
56.0 76.8499050140805
58.0 77.61528628109231
60.0 78.3152862810923
61.5 78.81528628109231
63.0 79.3152862810923
65.0 79.7476029374936
67.0 80.181186851723
69.0 80.781186851723
71.0 81.41375729419849
73.0 82.01375729419847
75.0 82.51375729419848
77.5 83.11375729419846
80.0 83.71375729419847
82.5 84.21375729419849
85.0 84.68042526991796
87.5 84.71375729419849
90.0 84.61375729419846
92.5 84.61375729419846
95.0 84.71375729419849
97.5 84.81375729419847
100.0 85.01375729419848
103.0 85.01375729419848
106.0 85.01375729419848
109.0 84.98042526991796
112.0 84.88042526991795
115.0 84.74760293749358
118.0 84.61375729419846
122.0 84.58042526991794
125.0 84.51375729419847
128.0 84.5476029374936
132.0 84.64760293749359
136.0 84.58118685172299
140.0 84.381186851723
145.0 84.3152862810923
150.0 84.3152862810923
155.0 84.14912005699819
160.0 83.84912005699817
165.0 83.88118685172302
170.0 84.04912005699816
175.0 84.11528628109231
180.0 84.11755276799207
185.0 84.08347119970983
190.0 83.88347119970986
195.0 83.75215351070268
200.0 83.78727712249288
206.0 83.85215351070268
212.0 83.88727712249288
218.0 83.85670172976127
224.0 83.79260263742268
230.0 83.59944497506015
236.0 83.07940762350356
240.0 82.14190002339627
250.0 81.18998370413232
258.0 82.68727712249289
265.0 83.48347119970984
272.0 83.68727712249289
280.0 83.85670172976127
290.0 83.59260263742267
300.0 83.47940762350356
307.0 83.65148046622333
315.0 83.67940762350356
325.0 83.65148046622333
335.0 83.58998370413232
345.0 83.55148046622332
355.0 83.38998370413232
365.0 83.1627608318378
375.0 82.87552789671594
387.0 82.27552789671593
400.0 81.48977523663987
412.0 80.88977523663988
425.0 81.51561578300588
437.0 83.6156157830059
450.0 85.57209998232646
462.0 85.9651608848877
475.0 85.51410103163408
487.0 85.23572091458801
500.0 84.71766514588097
515.0 84.1958190345464
530.0 83.46311327481546
545.0 83.2850467419254
560.0 83.91375729419849
580.0 84.5476029374936
600.0 84.94915538893572
615.0 85.24915538893573
630.0 85.38430315855112
650.0 85.75374045339258
670.0 86.29260263742268
690.0 86.30287429306766
710.0 86.23922106519902
730.0 86.69195101235553
750.0 86.94076803760129
775.0 87.16863143327737
800.0 87.83922106519903
825.0 87.8481537225591
850.0 87.94169250186968
875.0 88.28998228195955
900.0 88.94327112724521
925.0 89.01298966310634
950.0 88.45468863829139
975.0 87.13723765793044
1000.0 86.41031576541899
1030.0 86.12637188083357
1060.0 85.86528798833491
1090.0 87.27695721525451
1120.0 87.81773144311089
1150.0 88.08453451782246
1180.0 89.32809786899298
1220.0 89.85620069971857
1250.0 89.5627608318378
1280.0 88.86863143327737
1320.0 87.1359948359604
1360.0 86.0232761449654
1400.0 85.6687222722601
1450.0 84.69921345041881
1500.0 84.44648983580977
1550.0 84.18977523663987
1600.0 84.00919287245877
1650.0 84.16276236530506
1700.0 83.66276236530504
1750.0 83.64155473423001
1800.0 85.30707362416862
1850.0 85.86872227226011
1900.0 85.51953163721956
1950.0 85.80134055142885
2000.0 85.42589853870147
2060.0 84.31759516010334
2120.0 83.51039421425826
2180.0 84.30705065335097
2240.0 84.70397795617657
2300.0 84.30556593567833
2360.0 83.83472672499053
2400.0 84.31979722561667
2500.0 83.7111868760301
2580.0 82.78948519426837
2650.0 84.12261808648441
2720.0 86.73944584145092
2800.0 86.74486059108662
2900.0 85.79738336342923
3000.0 84.82701080529635
3070.0 85.53296502656397
3150.0 85.5871083577938
3250.0 86.91280679148274
3350.0 88.08282216640947
3450.0 87.4932889339082
3550.0 87.62809786899298
3650.0 87.48948109735986
3750.0 86.0483607978423
3870.0 84.1329873769788
4000.0 82.91228068853307
4120.0 82.25603577593732
4250.0 81.86340999150119
4370.0 82.44917302262303
4500.0 84.5970061951637
4620.0 86.01766514588095
4750.0 86.95625792729817
4870.0 87.66403018739156
5000.0 88.14464528685656
5150.0 87.49244410984487
5300.0 86.63351589665996
5450.0 86.98580581293042
5600.0 88.44002543343183
5800.0 89.57484087420461
6000.0 88.0878514595609
6150.0 85.91556927840047
6300.0 84.77209998232647
6500.0 85.83257148168003
6700.0 86.1701381244389
6900.0 86.82215595797432
7100.0 86.70965145651425
7300.0 85.08618175047381
7500.0 81.75523983917212
7750.0 81.07890471501504
8000.0 84.14764464077467
8250.0 85.8266877831005
8500.0 86.7534781441013
8750.0 87.19662350350684
9000.0 85.72472623754352
9250.0 85.5687222722601
9500.0 85.21064591530958
9750.0 84.23806722917398
10000.0 84.77594097495839
10300.0 83.6407680376013
10600.0 84.01097738147948
10900.0 82.97286475877891
11200.0 85.12884996361355
11500.0 84.83939927023472
11800.0 83.52241830487273
12200.0 80.22704588006381
12500.0 78.9075705046477
12800.0 80.71605479879766
13200.0 82.13337758363808
13600.0 79.2228901468846
14000.0 79.4776288142203
14500.0 80.42235921564041
15000.0 81.34081786058758
15500.0 82.54034035079654
16000.0 80.67814842430536
16500.0 78.9611418216608
17000.0 78.09408299253276
17500.0 77.57517663722496
18000.0 75.38575565554869
18500.0 75.52986123235011
19000.0 72.86154987451741
19500.0 70.53190010756907
