Freq "Front Wall Bounce"
22.4 50.61056163617299
23.0 51.269234246087294
23.6 51.89694029647755
24.0 52.46923424608728
25.0 53.196940296477536
25.8 56.53334993889892
26.5 59.075969367980846
27.2 60.761918585476835
28.0 62.047493303732224
29.0 63.13301994805745
30.0 64.0191528280162
30.7 64.8045845565511
31.5 65.49063378270824
32.5 66.1191528280162
33.5 66.70491671501044
34.5 67.71915282801622
35.5 68.73301994805746
36.5 69.56191858547682
37.5 70.33301994805748
38.7 70.96191858547682
40.0 71.56191858547682
41.2 72.10425993439613
42.5 72.53301994805747
43.7 72.46191858547682
45.0 72.39062619723528
46.2 72.34749330373224
47.5 72.24749330373223
48.7 72.16191858547683
50.0 72.07629611159389
51.5 73.4055733963153
53.0 74.83432474195838
54.5 75.93432474195839
56.0 76.84913020997489
58.0 77.60654706759797
60.0 78.2214473727724
61.5 78.66388537632666
63.0 79.10654706759799
65.0 79.50654706759796
67.0 79.90654706759798
69.0 80.44913020997491
71.0 81.00654706759798
73.0 81.50654706759796
75.0 82.00654706759796
77.5 82.59193637776623
80.0 83.20654706759798
82.5 83.73562948971855
85.0 84.1491302099749
87.5 84.1491302099749
90.0 84.07859058165705
92.5 84.02208666946254
95.0 84.06518127468304
97.5 84.16518127468304
100.0 84.2517304367742
103.0 84.26518127468303
106.0 84.26518127468303
109.0 84.20786018606438
112.0 84.10786018606437
115.0 83.95173043677418
118.0 83.80948256940154
122.0 83.70948256940154
125.0 83.60948256940152
128.0 83.70948256940154
132.0 83.7961684521521
136.0 83.7263351533993
140.0 83.5556295814561
145.0 83.4860782002579
150.0 83.47168126279487
155.0 83.30067242278967
160.0 82.9860782002579
165.0 82.98505381862421
170.0 83.10037609802036
175.0 83.21337502129224
180.0 83.30294855656096
185.0 83.30201794153703
190.0 83.17362233721614
195.0 83.02758348033053
200.0 83.14501089394501
206.0 83.27329539237085
212.0 83.34637376584874
218.0 83.36047484910678
224.0 83.4185627408027
230.0 83.50294855656097
236.0 83.52859788050738
240.0 83.20037609802036
250.0 82.14275670429367
258.0 82.44412028366364
265.0 82.84536350965779
272.0 83.07329539237087
280.0 83.21593979395574
290.0 83.11682568459061
300.0 83.47737550647953
307.0 83.60837577030247
315.0 83.58228011154824
325.0 83.56977774995786
335.0 83.56977774995786
345.0 83.50505253123298
355.0 83.36170738209468
365.0 83.18999257247482
375.0 82.95170676427753
387.0 82.49108832249537
400.0 81.85389287535027
412.0 81.50504519898927
425.0 82.13767415840937
437.0 84.11774599088643
450.0 86.15667356128671
462.0 87.16435988706361
475.0 87.05938025726174
487.0 86.32909886302919
500.0 85.36560457952442
515.0 84.8760314828641
530.0 84.56435988706362
545.0 84.25572051863635
560.0 83.97551826511119
580.0 83.89831132675722
600.0 83.93930371620756
615.0 83.8872114324829
630.0 83.67658456683318
650.0 83.48334938499055
670.0 83.65526007391334
690.0 83.8122913159357
710.0 83.60220179966782
730.0 83.85979718228474
750.0 84.3028759620209
775.0 85.32362364584075
800.0 85.33092322344642
825.0 84.50424747426048
850.0 83.87249980686366
875.0 83.126190693599
900.0 84.00640508832994
925.0 84.97557192559417
950.0 84.53038837411673
975.0 83.97239990880648
1000.0 83.25910006499898
1030.0 84.09971833266421
1060.0 85.0014069680471
1090.0 84.18614870547117
1120.0 84.1473164812664
1150.0 85.40490381916449
1180.0 86.53320757917636
1220.0 87.77817255538265
1250.0 87.62954931325514
1280.0 86.95182330554789
1320.0 85.62109858885181
1360.0 85.60979756947874
1400.0 86.00187785090377
1450.0 85.50123442543996
1500.0 85.9738752058906
1550.0 85.48738039371771
1600.0 85.12995936583664
1650.0 85.17252918694517
1700.0 85.02217974808828
1750.0 85.74938021969916
1800.0 86.86335161653548
1850.0 87.57916229253162
1900.0 87.73239522214429
1950.0 87.68113229490498
2000.0 87.46155015451762
2060.0 87.05573459261159
2120.0 86.75991698282078
2180.0 86.79811751994832
2240.0 86.80738963199097
2300.0 86.29859205809035
2360.0 86.32624111023563
2400.0 86.35960641068843
2500.0 85.65588283853806
2580.0 84.63354459479896
2650.0 84.91943817663298
2720.0 86.95860890604591
2800.0 86.9649169482611
2900.0 85.34394072621687
3000.0 85.48724681052025
3070.0 86.13278506930904
3150.0 86.21691364828239
3250.0 86.34522412671934
3350.0 86.5650407534618
3450.0 87.54155647988266
3550.0 88.6460624219356
3650.0 89.04137818782398
3750.0 88.23404907227028
3870.0 86.70341552627904
4000.0 85.18601070601757
4120.0 84.78881338759187
4250.0 84.81491999808335
4370.0 84.95784846809616
4500.0 85.35468162979919
4620.0 86.1503854436058
4750.0 87.13379138609895
4870.0 88.54347366518031
5000.0 89.65934952207776
5150.0 90.17829788771591
5300.0 90.31107123243837
5450.0 90.32227933296771
5600.0 89.96791515440653
5800.0 89.0911261881017
6000.0 88.72425536663691
6150.0 85.91577480242097
6300.0 86.17338622857604
6500.0 87.7695015094068
6700.0 88.20465817486013
6900.0 88.56739934431012
7100.0 87.42595209025538
7300.0 85.83847700190974
7500.0 82.61771183239023
7750.0 83.77958440937842
8000.0 85.22042536830041
8250.0 86.70995437533738
8500.0 88.62290037118443
8750.0 88.04487287188749
9000.0 86.536937968105
9250.0 86.1285924569157
9500.0 86.52153635616608
9750.0 87.1091789035694
10000.0 87.93979276924213
10300.0 86.43163500638163
10600.0 85.16985018753665
10900.0 83.25939273817674
11200.0 87.12899591092825
11500.0 87.40301881614833
11800.0 84.98385307370152
12200.0 83.02707218282599
12500.0 82.79017522764006
12800.0 85.56323548173367
13200.0 85.41561610585178
13600.0 80.53248968986976
14000.0 79.95003696419374
14500.0 82.21037675687678
15000.0 84.27711542958399
15500.0 83.62725740562679
16000.0 82.13013625501124
16500.0 81.92048885787166
17000.0 79.4307687291508
17500.0 80.44011419168554
18000.0 81.041655232694
18500.0 78.81161495591657
19000.0 77.98849823412492
19500.0 81.14869641502312
