Freq "Side Wall Bounce"
22.4 52.34971964041971
23.0 53.01024125667492
23.6 53.64100050317178
24.0 54.20059257867932
25.0 54.8890483856173
25.8 58.020420743537315
26.5 60.450134406914785
27.2 62.10177646298136
28.0 63.381704756241575
29.0 64.44238600664343
30.0 65.32250153782708
30.7 66.10265644163714
31.5 66.76104905672467
32.5 67.4137275290026
33.5 67.98262075981664
34.5 69.0321017170956
35.5 70.04146291180585
36.5 70.91145282313902
37.5 71.64989049465397
38.7 72.30019996104477
40.0 72.90019996104478
41.2 73.41928899511603
42.5 73.84941916130282
43.7 73.80920611180409
45.0 73.70019996104477
46.2 73.60019996104478
47.5 73.4717659101362
48.7 73.34288035185982
50.0 73.25335640399274
51.5 74.43008765391919
53.0 75.74448285318307
54.5 76.80833723319653
56.0 77.66987569194015
58.0 78.40231930882494
60.0 79.00231930882494
61.5 79.4634273567708
63.0 79.89069522487671
65.0 80.30231930882495
67.0 80.68077695569976
69.0 81.17512455546704
71.0 81.6788067099729
73.0 82.14460912882849
75.0 82.61450119722154
77.5 83.2446091288285
80.0 83.8969656345876
82.5 84.47512455546705
85.0 84.92997233795323
87.5 84.88338653232525
90.0 84.75510903002112
92.5 84.62782477016167
95.0 84.57565297901421
97.5 84.57190457586246
100.0 84.5621376888646
103.0 84.57467397396029
106.0 84.61092052251885
109.0 84.62857830832579
112.0 84.48737852734708
115.0 84.29102231465365
118.0 84.09102231465363
122.0 83.9148462482193
125.0 83.74286887873889
128.0 83.77527584522029
132.0 83.83792592682265
136.0 83.64357620718567
140.0 83.3741168571784
145.0 83.23580789708863
150.0 83.22064903223857
155.0 82.97724917504617
160.0 82.6502701923405
165.0 82.62874929312387
170.0 82.69736478610623
175.0 82.74079174103608
180.0 82.72633700518993
185.0 82.65366170054388
190.0 82.54582305005225
195.0 82.42137818445684
200.0 82.47491046266475
206.0 82.5451118877054
212.0 82.60115718133144
218.0 82.55955882733808
224.0 82.48745341992122
230.0 82.63880760893905
236.0 82.81614055486912
240.0 82.63298898008821
250.0 81.56858926175882
258.0 81.60411209377801
265.0 81.94381810677108
272.0 82.2463156689369
280.0 82.46378892678824
290.0 82.51684071425849
300.0 82.79290548396547
307.0 82.75971212232908
315.0 82.56823936004096
325.0 82.36851608191903
335.0 82.35909285352591
345.0 82.14606526047348
355.0 81.8331387157492
365.0 81.63460902658841
375.0 81.40966796913574
387.0 80.81516149070191
400.0 79.71883347687697
412.0 78.98569336071299
425.0 79.63180479461579
437.0 81.2146649700872
450.0 82.51950431117423
462.0 83.31825266440293
475.0 83.47866066978962
487.0 83.04952953038052
500.0 82.31011876394831
515.0 81.81346298910199
530.0 81.31862165197707
545.0 81.24099372485061
560.0 80.98430495425518
580.0 80.62959341453956
600.0 80.4546461647688
615.0 80.20947040514805
630.0 80.05155739573311
650.0 79.82151456066323
670.0 79.68392644657216
690.0 79.18304112432303
710.0 78.86535096503037
730.0 79.17962740111376
750.0 79.41726753887767
775.0 79.42723456283419
800.0 79.98417137701675
825.0 80.11300131000327
850.0 80.38603776453455
875.0 80.93168216983885
900.0 81.62429894159614
925.0 81.7160677408914
950.0 80.16898358905301
975.0 77.91750785558942
1000.0 77.92680522675045
1030.0 77.410734392536
1060.0 77.76348772516367
1090.0 78.8196192517705
1120.0 76.18119012180887
1150.0 77.03384116319569
1180.0 77.11122953069534
1220.0 76.40204518214897
1250.0 78.83194016347686
1280.0 78.81200373604116
1320.0 77.50796790031198
1360.0 77.03242784423901
1400.0 77.613255524454
1450.0 76.72701218367568
1500.0 76.59372926332958
1550.0 78.38595691165399
1600.0 78.32636756272197
1650.0 77.91842140632315
1700.0 77.19811657182974
1750.0 76.1584345822995
1800.0 76.46081583400651
1850.0 77.14308061969054
1900.0 77.03238147064754
1950.0 78.08749135341317
2000.0 78.70229278655997
2060.0 79.28549349869797
2120.0 78.17458039074782
2180.0 76.95355877199049
2240.0 75.8822337225327
2300.0 76.70591781624684
2360.0 78.50201428747145
2400.0 78.84610328259423
2500.0 78.12805128584873
2580.0 77.26082877935984
2650.0 78.87826298703642
2720.0 80.45590163258105
2800.0 80.46103150018784
2900.0 81.02790425459138
3000.0 81.62265726703879
3070.0 81.31437107710498
3150.0 80.86487404765323
3250.0 81.18658311194298
3350.0 80.6637930788905
3450.0 80.7407127571935
3550.0 81.78789831765272
3650.0 81.1214208077135
3750.0 80.30203923152388
3870.0 79.82005788562118
4000.0 78.73173804826378
4120.0 79.23433000078056
4250.0 79.50208688986815
4370.0 79.63133505463057
4500.0 80.90207393331427
4620.0 80.82336994594264
4750.0 80.6511924749475
4870.0 81.26669931936293
5000.0 81.48904257635256
5150.0 81.15524446561739
5300.0 81.52287103098836
5450.0 82.34593077131943
5600.0 83.29330014924646
5800.0 84.11540918944142
6000.0 83.36201069271443
6150.0 80.49389581002221
6300.0 80.22595232971973
6500.0 80.63444325487995
6700.0 80.41606647448403
6900.0 79.75736728566794
7100.0 78.84227730205026
7300.0 77.69977462008023
7500.0 75.92366185571679
7750.0 77.35003105997693
8000.0 80.16943255445516
8250.0 81.22061196893794
8500.0 81.40578042845883
8750.0 80.14152872879565
9000.0 78.47464012107962
9250.0 79.33163671192732
9500.0 80.44353771903296
9750.0 79.84560227730464
10000.0 79.63688307158685
10300.0 76.67668321369418
10600.0 73.92380513174128
10900.0 72.67264977092319
11200.0 76.60557098711278
11500.0 77.25299409179819
11800.0 77.10511789812831
12200.0 75.98673836994269
12500.0 75.16915036972593
12800.0 76.72011041425735
13200.0 75.80418789102191
13600.0 72.69478463704075
14000.0 72.96642941680021
14500.0 74.12328752449012
15000.0 72.0171482181538
15500.0 73.83484985914501
16000.0 74.74888380226521
16500.0 75.12418069133513
17000.0 69.0575438249483
17500.0 69.37820352009845
18000.0 70.34272482982622
18500.0 69.85959288684614
19000.0 69.10165398909773
19500.0 70.5372125076973
