Freq "Total Early Reflection"
22.4 53.408108862662814
23.0 54.06142482602637
23.6 54.64683626092271
24.0 55.18877075750309
25.0 55.82165898679766
25.8 58.44900209461646
26.5 60.67865027668962
27.2 62.274084498438
28.0 63.50918791374015
29.0 64.52437466029133
30.0 65.391983570837
30.7 66.1611143451758
31.5 66.81854311532975
32.5 67.45160922192187
33.5 68.02161656161378
34.5 69.06532176850583
35.5 70.10043293056914
36.5 70.95705438486527
37.5 71.70574641583623
38.7 72.34976947025311
40.0 72.95582451426573
41.2 73.49651952789658
42.5 73.92226260891205
43.7 73.87602487030041
45.0 73.79974950860503
46.2 73.71768534420994
47.5 73.61375565052606
48.7 73.50648046520763
50.0 73.43738017938752
51.5 74.61315328484085
53.0 75.94889547828994
54.5 76.98040616172163
56.0 77.85506513589817
58.0 78.58131257246521
60.0 79.20549286786226
61.5 79.66992366612871
63.0 80.11450498032512
65.0 80.53827376338693
67.0 80.92968550119039
69.0 81.42591954216932
71.0 81.94584731900662
73.0 82.43004009677236
75.0 82.88239071245239
77.5 83.50203838336421
80.0 84.15454488026457
82.5 84.71996460622672
85.0 85.17715220294001
87.5 85.17516993860663
90.0 85.08012479867087
92.5 85.0190120960533
95.0 85.00736530469403
97.5 85.01111810735169
100.0 85.05326169831457
103.0 85.0460564670963
106.0 85.05460150242605
109.0 85.03185472365662
112.0 84.92716198616374
115.0 84.77230421393564
118.0 84.60117068234742
122.0 84.46094057955499
125.0 84.31789312403
128.0 84.36904476418945
132.0 84.45819032749904
136.0 84.33089536330478
140.0 84.10407900828406
145.0 84.01737653924116
150.0 84.01723749275992
155.0 83.81883475241835
160.0 83.46817080149505
165.0 83.4293514202419
170.0 83.51336348083836
175.0 83.57783286297048
180.0 83.60341703286421
185.0 83.5621792664729
190.0 83.41650730775243
195.0 83.28291712674091
200.0 83.337413207188
206.0 83.4162650313884
212.0 83.46608678570927
218.0 83.46060131978525
224.0 83.42610666844837
230.0 83.41491959842702
236.0 83.37257582948499
240.0 83.08180232667371
250.0 82.20174553817004
258.0 82.61618261748156
265.0 83.00295849482741
272.0 83.19496213992949
280.0 83.32799842290068
290.0 83.14877796757283
300.0 83.34033093844208
307.0 83.44580332796717
315.0 83.38221826438017
325.0 83.28777608440684
335.0 83.24276059032081
345.0 83.12416477231169
355.0 82.89088164708359
365.0 82.63441176112366
375.0 82.35413913806998
387.0 81.8168499394866
400.0 81.04973386342479
412.0 80.54468286561183
425.0 81.17061678480405
437.0 83.12926183322638
450.0 85.00681303425178
462.0 85.75604849340219
475.0 85.66621580836308
487.0 85.17402614725982
500.0 84.32405997232402
515.0 83.7503866763579
530.0 83.26828933998432
545.0 83.11198000922204
560.0 83.17480316237969
580.0 83.32632656997492
600.0 83.49101324899664
615.0 83.57501189346331
630.0 83.51085936800273
650.0 83.5709382389703
670.0 83.88123518424041
690.0 83.86139245461892
710.0 83.69740017322063
730.0 84.0681059465668
750.0 84.34324015678904
775.0 84.76325303621182
800.0 85.23825525187188
825.0 85.03624864343642
850.0 84.98700206356746
875.0 85.15538591819615
900.0 85.86269006999824
925.0 86.15156979150525
950.0 85.57801037395576
975.0 84.447296603066
1000.0 83.84480561247308
1030.0 84.07380518080733
1060.0 84.13718586557825
1090.0 84.5728554272145
1120.0 84.65400907591425
1150.0 85.24875240075282
1180.0 86.46891652931495
1220.0 87.3477055965256
1250.0 87.24484129334091
1280.0 86.67766746469695
1320.0 85.05698019793773
1360.0 84.30287763667985
1400.0 84.38648037998092
1450.0 83.63414589390212
1500.0 83.75500763755075
1550.0 83.34508750086279
1600.0 82.99417966171958
1650.0 83.05207540944893
1700.0 82.75895168032535
1750.0 83.16714302605395
1800.0 84.52036102356213
1850.0 85.23426418410524
1900.0 85.26797084700237
1950.0 85.53783451196196
2000.0 85.26539277412259
2060.0 84.5421679007244
2120.0 83.89331947586386
2180.0 83.97736077120184
2240.0 84.05784233773369
2300.0 83.67463976802576
2360.0 83.65354876679164
2400.0 83.8434731415815
2500.0 83.18071353769753
2580.0 82.40427809631763
2650.0 83.37851988234443
2720.0 85.49861244252118
2800.0 85.56911264411157
2900.0 84.42131258460888
3000.0 84.0940052105425
3070.0 84.58063719569603
3150.0 84.7589054879403
3250.0 85.50868607430789
3350.0 86.11384473592153
3450.0 86.31014587520546
3550.0 86.9774367321573
3650.0 86.90010506291203
3750.0 85.81742685792555
3870.0 84.21633649459311
4000.0 82.83454247188388
4120.0 82.45257390460156
4250.0 82.46615437846367
4370.0 82.79432893813004
4500.0 83.86320069679225
4620.0 84.93541491907551
4750.0 85.77289757132066
4870.0 86.685208796307
5000.0 87.42130264634896
5150.0 87.47880050576545
5300.0 87.2639380405687
5450.0 87.41339764211058
5600.0 87.85127648455888
5800.0 88.11355453602064
6000.0 87.3079112392185
6150.0 84.62279646688121
6300.0 84.22097477474352
6500.0 85.47739579327123
6700.0 85.76201518298093
6900.0 86.16760321556558
7100.0 85.46100080118534
7300.0 83.8592064226023
7500.0 80.73525364542489
7750.0 81.3140613247857
8000.0 83.49375394997726
8250.0 84.93353580346752
8500.0 86.25785654793042
8750.0 86.03574612457315
9000.0 84.58348763906594
9250.0 84.41399911185735
9500.0 84.53628438915364
9750.0 84.4889468571914
10000.0 85.21411897603964
10300.0 83.7889027190518
10600.0 82.99666460469584
10900.0 81.39047753214071
11200.0 84.48650872830466
11500.0 84.61565393346507
11800.0 82.8356554316691
12200.0 80.50565295162527
12500.0 79.81231461589066
12800.0 82.15600570656183
13200.0 82.46185178330414
13600.0 78.32445519650206
14000.0 78.21569327081961
14500.0 79.80296486539883
15000.0 81.29386613164543
15500.0 81.39947026075377
16000.0 79.89032421071276
16500.0 79.18032936348645
17000.0 77.08529635887761
17500.0 77.47795299780003
18000.0 77.32099986182831
18500.0 75.83305723378788
19000.0 74.49139684557487
19500.0 76.7794829912519
