Freq,On Axis,Listening Window,Sound Power,Early Reflections,Early Reflections DI,Sound Power DI,DI offset
22.4,37.29240506329113,37.137899542489905,36.11080619148335,36.56199193448363,30.575907608006275,31.027093351006556,30
23.0,38.192405063291105,38.06008854146249,37.03070015120234,37.49742457529693,30.56266396616556,31.029388390260152,30
23.6,39.09240506329114,38.98267763419473,37.97160583070446,38.42722779170022,30.55544984249451,31.011071803490267,30
24.0,39.992405063291116,39.88267763419471,38.86928286523228,39.327307811987836,30.55536982220687,31.013394768962428,30
25.0,40.89240506329112,40.78267763419471,39.771605830704445,40.22722779170023,30.555449842494482,31.011071803490267,30
25.8,41.79240506329113,41.68267763419469,40.64285846180009,41.10128268626123,30.58139494793346,31.0398191723946,30
26.5,42.692405063291105,42.53789954248991,41.51344517034396,41.963656397200126,30.574243145289785,31.024454372145954,30
27.2,43.492405063291116,43.4051498412815,42.38350990838255,42.84150698653848,30.563642854743023,31.02163993289895,30
28.0,44.39240506329112,44.23789954248993,43.22157520222676,43.68650695193229,30.55139259055764,31.016324340263168,30
29.0,45.192405063291105,45.082677634194724,44.07879382564771,44.53074180267838,30.551935831516346,31.003883808547016,30
30.0,45.992405063291116,45.9051498412815,44.907715048958366,45.352402002647906,30.552747838633593,30.997434792323133,30
30.7,46.89240506329112,46.73789954248993,45.71080619148337,46.16199193448362,30.575907608006304,31.027093351006556,30
31.5,47.692405063291105,47.53789954248991,46.52241046110878,46.982798271987846,30.555101270502064,31.015489081381133,30
32.5,48.492405063291116,48.33789954248992,47.31593444134255,47.77760626677285,30.560293275717072,31.021965101147373,30
33.5,49.192405063291105,49.126502626213224,48.11072746193496,48.558648829560454,30.56785379665277,31.015775164278267,30
34.5,50.09240506329114,49.937899542489916,48.92241046110878,49.38279827198785,30.555101270502064,31.015489081381133,30
35.5,50.89240506329112,50.805149841281505,49.790240269164386,50.24314125754505,30.562008583736457,31.01490957211712,30
36.5,51.89240506329112,51.78267763419471,50.74496318112587,51.20969299467821,30.572984639516505,31.037714453068844,30
37.5,52.89240506329112,52.805149841281505,51.783509908382555,52.24150698653848,30.563642854743023,31.02163993289895,30
38.7,54.09240506329114,53.98267763419473,52.94496318112586,53.409692994678196,30.572984639516534,31.037714453068872,30
40.0,55.39240506329112,55.26008854146251,54.230700151202356,54.69742457529692,30.562663966165587,31.029388390260152,30
41.2,56.79240506329113,56.68267763419472,55.6787938256477,56.1307418026784,30.551935831516317,31.003883808547016,30
42.5,58.39240506329112,58.28267763419473,57.23894981807142,57.697424575296935,30.58525305889779,31.043727816123308,30
43.7,59.992405063291116,59.9051498412815,58.89580094136363,59.350613845449644,30.554535995831856,31.009348899917867,30
45.0,61.69240506329113,61.62650262621324,60.61849171789591,61.07593492708139,30.550567699131847,31.00801090831733,30
46.2,63.492405063291116,63.38267763419472,62.37160583070445,62.82722779170021,30.55544984249451,31.011071803490267,30
47.5,65.29240506329113,65.13789954248992,64.11080619148336,64.56199193448363,30.57590760800629,31.027093351006556,30
48.7,66.89240506329112,66.82650262621323,65.81849171789591,66.2759349270814,30.550567699131832,31.008010908317317,30
50.0,68.59240506329112,68.48267763419472,67.45050559783436,67.9096929946782,30.57298463951652,31.03217203636035,30
51.5,70.09240506329112,70.00514984128151,68.99393165224346,69.44314125754504,30.56200858373647,31.011218189038047,30
53.0,71.59240506329112,71.4600885414625,70.43070015120234,70.89742457529694,30.56266396616556,31.029388390260152,30
54.5,72.89240506329112,72.78267763419471,71.74886894608933,72.20969299467822,30.57298463951649,31.03380868810538,30
56.0,74.09240506329112,73.9826776341947,72.94496318112586,73.40969299467821,30.57298463951649,31.037714453068844,30
58.0,75.19240506329112,75.03789954248992,74.02157520222674,74.48650695193228,30.55139259055764,31.016324340263182,30
60.0,76.09240506329112,75.98267763419472,74.9604468031761,75.42379102023706,30.558886613957654,31.022230831018618,30
61.5,76.89240506329112,76.78267763419471,75.7604468031761,76.22379102023706,30.558886613957654,31.022230831018618,30
63.0,77.49240506329112,77.4051498412815,76.39024026916438,76.84314125754503,30.56200858373647,31.01490957211712,30
65.0,77.99240506329112,77.9051498412815,76.8996027858088,77.35061384544964,30.554535995831856,31.005547055472704,30
67.0,78.39240506329112,78.28267763419473,77.25429600235528,77.71372145744063,30.5689561767541,31.02838163183945,30
69.0,78.59240506329112,78.50514984128151,77.49580094136363,77.95061384544965,30.554535995831856,31.00934889991788,30
71.0,78.79240506329113,78.68267763419472,77.642750317176,78.10415557839089,30.57852205580383,31.039927317018723,30
73.0,78.89240506329112,78.73789954248991,77.71080619148336,78.16199193448362,30.57590760800629,31.027093351006556,30
75.0,78.89240506329112,78.78267763419471,77.72891115478295,78.1965191986137,30.586158435581012,31.053766479411763,30
77.5,78.79240506329113,78.7051498412815,77.68866981390616,78.15061384544966,30.55453599583184,31.016480027375337,30
80.0,78.79240506329113,78.68267763419472,77.63192647519081,78.09742457529693,30.58525305889779,31.05075115900391,30
82.5,78.69240506329112,78.58267763419472,77.57879382564771,78.03074180267839,30.55193583151633,31.003883808547016,30
85.0,78.59240506329112,78.52650262621323,77.51885986835406,77.96560567426162,30.560896951951605,31.007642757859173,30
87.5,78.59240506329112,78.46008854146248,77.46025273215808,77.9146818188625,30.545406722599978,30.9998358093044,30
90.0,78.49240506329112,78.38267763419472,77.39272271477813,77.83657638758055,30.54610124661417,30.98995491941659,30
92.5,78.39240506329112,78.3051498412815,77.32104686700552,77.75936885314296,30.545780988138546,30.984102974275984,30
95.0,78.39240506329112,78.2600885414625,77.25852681854222,77.71105844915468,30.549030092307817,31.001561722920272,30
97.5,78.29240506329113,78.1826776341947,77.18229806594685,77.63493964384786,30.547737990346846,31.00037956824785,30
100.0,78.29240506329113,78.1378995424899,77.11593444134256,77.57760626677283,30.560293275717072,31.021965101147345,30
103.0,78.1924050632911,78.08267763419471,77.04274778653547,77.50800771706234,30.57466991713237,31.039929847659238,30
106.0,78.1924050632911,78.06008854146249,76.98102195342393,77.47935882000375,30.580729721458738,31.079066588038557,30
109.0,78.09240506329114,78.0051498412815,76.90034360604538,77.40385400013903,30.60129584114246,31.10480623523611,30
112.0,78.09240506329114,78.0051498412815,76.87415444615719,77.39027544728027,30.61487439400122,31.1309953951243,30
115.0,78.09240506329114,78.0051498412815,76.81117592342044,77.36313267436388,30.64201716691761,31.193973917861058,30
118.0,78.1924050632911,78.01660285630027,76.76432526923392,77.34334466225789,30.673258194042376,31.252277587066345,30
122.0,78.1924050632911,78.01660285630027,76.71420237702483,77.30811612646262,30.708486729837645,31.302400479275434,30
125.0,78.1924050632911,78.01660285630027,76.68465166200708,77.30404797377646,30.712554882523804,31.331951194293183,30
128.0,78.29240506329113,78.07368216752356,76.65896395870955,77.31295418304167,30.76072798448189,31.41471820881401,30
132.0,78.29240506329113,78.09568955731665,76.64756954523224,77.3180906027845,30.777598954532152,31.448120012084402,30
136.0,78.29240506329113,78.14142049152586,76.62583849859897,77.32250413675801,30.81891635476785,31.515581992926897,30
140.0,78.39240506329112,78.15304258348941,76.6043260446592,77.3325896483773,30.820452935112115,31.548716538830206,30
145.0,78.39240506329112,78.2186152171237,76.56322744092317,77.3405447092579,30.8780705078658,31.655387776200527,30
150.0,78.49240506329112,78.23029841623749,76.4916874829467,77.31109865276663,30.919199763470857,31.738610933290786,30
155.0,78.49240506329112,78.25304258348937,76.4090329970794,77.288338608579,30.96470397491038,31.84400958640998,30
160.0,78.39240506329112,78.19818857421716,76.27144079569305,77.21176379499461,30.986424779222546,31.926747778524103,30
165.0,78.39240506329112,78.15603688739237,76.10125642254503,77.1034000869501,31.052636800442272,32.05478046484734,30
170.0,78.29240506329113,78.0761938763834,75.90747541673485,76.9957594535097,31.080434422873694,32.168718459648545,30
175.0,78.29240506329113,77.987991599072,75.68921519365148,76.86904541059828,31.11894618847373,32.298776405420526,30
180.0,78.1924050632911,77.95603688739236,75.47470563294914,76.7486441887851,31.207392698607265,32.48133125444322,30
185.0,78.09240506329114,77.85603688739236,75.25932252810652,76.61073400931313,31.24530287807923,32.59671435928584,30
190.0,77.99240506329112,77.75603688739237,75.06687306112165,76.50410237066038,31.251934516731993,32.689163826270715,30
195.0,77.99240506329112,77.71444562028901,74.88534521507532,76.39495220118263,31.31949341910638,32.829100405213694,30
200.0,77.99240506329112,77.69149788104552,74.7534682424822,76.32545547366388,31.36604240738164,32.93802963856332,30
206.0,77.99240506329112,77.69492161759065,74.65214272361901,76.28499343950422,31.40992817808643,33.042778893971644,30
212.0,77.99240506329112,77.69492161759065,74.5907588889465,76.26805906218962,31.42686255540103,33.104162728644155,30
218.0,78.09240506329114,77.77187020810914,74.5643975317263,76.28121701465457,31.490653193454563,33.207472676382835,30
224.0,78.09240506329114,77.79492161759065,74.54498950251435,76.29502274060647,31.499898876984176,33.24993211507629,30
230.0,78.1924050632911,77.89492161759064,74.53584262496378,76.34461697634585,31.550304641244793,33.35907899262686,30
236.0,78.29240506329113,77.90694188908722,74.5198206505382,76.34205451948694,31.564887369600285,33.38712123854903,30
240.0,78.29240506329113,77.92878180411508,74.47835280243724,76.33909405781168,31.589687746303397,33.45042900167783,30
250.0,78.29240506329113,77.92878180411508,74.41682108684945,76.32065333629113,31.608128467823946,33.51196071726562,30
258.0,78.29240506329113,77.94815451559707,74.34483665613037,76.29049268044052,31.657661835156546,33.6033178594667,30
265.0,78.1924050632911,77.87133181093948,74.21500560320767,76.20967507332496,31.66165673761452,33.65632620773181,30
272.0,78.09240506329114,77.83624792741448,74.09927706538936,76.15146747494337,31.684780452471102,33.73697086202512,30
280.0,78.09240506329114,77.76788941950988,73.9499648633098,76.05188621406181,31.716003205448075,33.81792455620008,30
290.0,77.99240506329112,77.73277760331146,73.82144918022418,75.9766327097313,31.756144893580156,33.911328423087284,30
300.0,77.89240506329112,77.69818857421716,73.69603536943616,75.90917969399591,31.789008880221246,34.002153204780996,30
307.0,77.89240506329112,77.69818857421716,73.58624651071473,75.85766127959197,31.84052729462519,34.111942063502426,30
315.0,77.89240506329112,77.72110108066563,73.49015117640418,75.82141200870178,31.89968907196385,34.23094990426145,30
325.0,77.99240506329112,77.73277760331146,73.40399786678331,75.79425271099451,31.93852489231695,34.32877973652815,30
335.0,78.09240506329114,77.85603688739236,73.36222903398038,75.82194942468196,32.0340874627104,34.49380785341198,30
345.0,78.1924050632911,77.93624792741446,73.31741781656173,75.83946658494608,32.096781342468375,34.61883011085273,30
355.0,78.29240506329113,78.05948868270598,73.28738939797161,75.89081562979634,32.16867305290964,34.77209928473437,30
365.0,78.49240506329112,78.17575686088479,73.22558115051656,75.8924042327747,32.283352628110094,34.95017571036823,30
375.0,78.59240506329112,78.25694628507858,73.13017758773792,75.87710555868036,32.37984072639823,35.126768697340665,30
387.0,78.69240506329112,78.31669378741019,73.02540790597644,75.8490356718745,32.467658115535684,35.29128588143375,30
400.0,78.69240506329112,78.31669378741019,72.8683320751162,75.76961328603826,32.54708050137192,35.44836171229399,30
412.0,78.69240506329112,78.29848511328782,72.656411906293,75.63862943483004,32.65985567845779,35.64207320699482,30
425.0,78.69240506329112,78.21077490281333,72.41337691661725,75.4723051086754,32.73846979413793,35.797397986196074,30
437.0,78.59240506329112,78.11077490281333,72.15212704976072,75.2732454519296,32.837529450883736,35.95864785305261,30
450.0,78.49240506329112,77.98672229490698,71.88463227473899,75.06930886583903,32.91741342906795,36.10209002016799,30
462.0,78.39240506329112,77.88672229490697,71.66024719160586,74.89630595807019,32.99041633683679,36.22647510330111,30
475.0,78.29240506329113,77.76308778796606,71.42834636808784,74.71123586128131,33.05185192668475,36.33474141987821,30
487.0,78.1924050632911,77.68144516448815,71.24615656759566,74.54452498592735,33.1369201785608,36.43528859689249,30
500.0,78.09240506329114,77.60015015468751,71.12086313458349,74.42088523473522,33.17926491995229,36.479287020104024,30
515.0,78.09240506329114,77.60015015468751,71.03265703257654,74.32247110524501,33.2776790494425,36.567493122110974,30
530.0,78.09240506329114,77.6647410392534,71.03774761791986,74.31479596481664,33.34994507443676,36.62699342133354,30
545.0,78.09240506329114,77.73369188396308,71.06279448389705,74.31587615877278,33.417815725190295,36.670897400066025,30
560.0,78.1924050632911,77.78679366893398,71.13618895144641,74.33988065904394,33.44691300989004,36.65060471748757,30
580.0,78.29240506329113,77.91084588264411,71.2466845744749,74.41564925794053,33.49519662470358,36.66416130816921,30
600.0,78.39240506329112,78.01084588264413,71.36581089733114,74.48991751135394,33.520928371290196,36.64503498531299,30
615.0,78.49240506329112,78.11084588264413,71.47558658059864,74.54999963573684,33.56084624690729,36.63525930204548,30
630.0,78.49240506329112,78.15590233624205,71.58880136439947,74.603223678166,33.55267865807605,36.56710097184258,30
650.0,78.59240506329112,78.21513110894834,71.69706406662675,74.6792019160696,33.53592919287874,36.51806704232159,30
670.0,78.69240506329112,78.23259559910639,71.78562663201434,74.7346939602169,33.49790163888949,36.44696896709205,30
690.0,78.69240506329112,78.21486741986027,71.87096316804183,74.79434762561756,33.42051979424271,36.343904251818444,30
710.0,78.69240506329112,78.17547425212915,72.00326500142293,74.90010231845169,33.27537193367746,36.17220925070622,30
730.0,78.69240506329112,78.13662945616898,72.12667128876444,75.00009788557692,33.136531570592055,36.009958167404534,30
750.0,78.69240506329112,78.07364493169975,72.2794209406079,75.13564607492371,32.937998856776034,35.79422399109184,30
775.0,78.59240506329112,78.01971648084135,72.46846142770292,75.32076772552277,32.69894875531858,35.55125505313843,30
800.0,78.49240506329112,77.91971648084136,72.64356132872905,75.50722497426015,32.412491506581205,35.27615515211231,30
825.0,78.39240506329112,77.81971648084135,72.81621719351115,75.70505986591557,32.11465661492578,35.0034992873302,30
850.0,78.29240506329113,77.73453095731408,72.99497588830086,75.9168614114346,31.817669545879482,34.73955506901322,30
875.0,78.1924050632911,77.65177828596707,73.16716553186377,76.12246269174169,31.52931559422538,34.484612754103296,30
900.0,78.09240506329114,77.56831576485607,73.31889325704613,76.32090953523569,31.24740622962038,34.24942250780994,30
925.0,77.99240506329112,77.52900565545004,73.43878960102597,76.50661400496544,31.022391650484593,34.09021605442406,30
950.0,77.89240506329112,77.46964744401677,73.52324979010145,76.62847683984478,30.841170604171992,33.94639765391533,30
975.0,77.89240506329112,77.51084588264412,73.54798232686672,76.71360034397092,30.797245538673195,33.9628635557774,30
1000.0,77.89240506329112,77.52985675771268,73.50079572599249,76.72808042486973,30.801776332842948,34.02906103172019,30
1030.0,77.99240506329112,77.60802226138082,73.36707060567456,76.65442186819665,30.953600393184175,34.24095165570627,30
1060.0,78.09240506329114,77.68891535588769,73.17688511156453,76.51445858485138,31.174456771036304,34.51203024432316,30
1090.0,78.29240506329113,77.80072151843187,72.96636566444084,76.36554277956229,31.43517873886958,34.83435585399103,30
1120.0,78.39240506329112,77.9231007922766,72.7695060395956,76.21103142992501,31.712069362351585,35.153594752681,30
1150.0,78.59240506329112,78.08253189733136,72.5693837771586,76.05667022410644,32.025861673224924,35.51314812017276,30
1180.0,78.69240506329112,78.18727128333502,72.40155889306921,75.92810416847392,32.2591671148611,35.785712390265815,30
1220.0,78.79240506329113,78.31077490281332,72.24974860630023,75.80796943376696,32.502805469046365,36.06102629651309,30
1250.0,78.89240506329112,78.34716640900687,72.11119098716968,75.69139321084266,32.65577319816421,36.235975421837196,30
1280.0,78.89240506329112,78.41753331499591,71.98665255568145,75.58320572630096,32.83432758869495,36.43088075931446,30
1320.0,78.79240506329113,78.40526266276797,71.86481961501136,75.47058013028561,32.934682532482356,36.54044304775661,30
1360.0,78.79240506329113,78.40694088972661,71.77592623970152,75.36532882280802,33.04161206691859,36.631014650025094,30
1400.0,78.59240506329112,78.38749108711319,71.68529360624771,75.26417419382797,33.12331689328522,36.70219748086548,30
1450.0,78.49240506329112,78.35280840166148,71.59640176639556,75.14598883752993,33.20681956413155,36.75640663526592,30
1500.0,78.49240506329112,78.35280840166148,71.5212976773342,75.06424720653533,33.28856119512615,36.83151072432727,30
1550.0,78.39240506329112,78.34042676397489,71.45539287706096,74.98944256944016,33.35098419453473,36.88503388691393,30
1600.0,78.39240506329112,78.36311808865528,71.34437982546328,74.88255964635287,33.48055844230241,37.018738263192006,30
1650.0,78.49240506329112,78.34842415009888,71.19571836991777,74.75510278012541,33.59332136997347,37.15270578018111,30
1700.0,78.49240506329112,78.39361792705672,71.04969677648172,74.64496420673086,33.74865372032586,37.343921150575,30
1750.0,78.69240506329112,78.4623430385508,70.87271110147047,74.51959271756856,33.94275032098224,37.58963193708033,30
1800.0,78.79240506329113,78.45590137057775,70.66519260724263,74.37057998994082,34.08532138063693,37.79070876333512,30
1850.0,78.89240506329112,78.46802997641922,70.47374907347792,74.24880033873099,34.21922963768823,37.9942809029413,30
1900.0,78.99240506329112,78.42611027782871,70.24804943047454,74.09454714310921,34.3315631347195,38.178060847354175,30
1950.0,78.99240506329112,78.29931633492976,70.00071676474111,73.91376968204128,34.38554665288848,38.29859957018864,30
2000.0,78.99240506329112,78.14011743665517,69.71101270462724,73.71164313255701,34.42847430409816,38.42910473202794,30
2060.0,78.79240506329113,77.86507195540706,69.41903703275064,73.47553399874577,34.389537956661286,38.44603492265642,30
2120.0,78.59240506329112,77.52208575282405,69.07552847190388,73.18913821927411,34.33294753354994,38.446557280920175,30
2180.0,78.39240506329112,77.16668721504924,68.77466301492609,72.93849881962501,34.228188395424226,38.392024200123146,30
2240.0,78.09240506329114,76.8325899391116,68.50543862792986,72.71252200592733,34.120067933184274,38.32715131118174,30
2300.0,77.89240506329112,76.50524964068661,68.30026233133638,72.53973468922773,33.965514951458886,38.20498730935023,30
2360.0,77.69240506329112,76.24511194569523,68.15005467725256,72.41491318780722,33.83019875788801,38.09505726844267,30
2400.0,77.49240506329112,76.05663324250041,68.08643146050741,72.36892452179049,33.68770872070992,37.970201781993,30
2500.0,77.49240506329112,76.0505941864895,68.14571393568265,72.44713343491419,33.60346075157531,37.904880250806855,30
2580.0,77.59240506329112,76.11035620317402,68.25327428793226,72.5703228330127,33.540033370161325,37.857081915241764,30
2650.0,77.79240506329113,76.3550492004215,68.4785738798157,72.81346328750531,33.54158591291619,37.876475320605806,30
2720.0,78.09240506329114,76.64726192650056,68.74534909413532,73.09182330994247,33.55543861655809,37.90191283236524,30
2800.0,78.39240506329112,76.96655256067673,69.0239281373129,73.38895673018328,33.57759583049345,37.94262442336384,30
