Freq "Listening Window"
22.4 21.513883761103912
23.0 22.12319297833072
23.6 22.785581374763794
24.0 23.3949513914025
25.0 23.99107511028491
25.8 24.563272924768043
26.5 25.2430202668519
27.2 26.13593055267613
28.0 27.245628705678783
29.0 28.52280559346339
30.0 30.02280559346336
30.7 31.695836628978654
31.5 33.425814784372236
32.5 34.925814784372236
33.5 35.82581478437224
34.5 36.42384806176888
35.5 37.22384806176886
36.5 38.476938755076915
37.5 39.92863790054939
38.7 41.17159871083366
40.0 42.028637900549384
41.2 42.85978847711978
42.5 44.4019328219692
43.7 46.35978847711981
45.0 48.01240531482013
46.2 49.11240531482012
47.5 50.21240531482012
48.7 51.487181129549086
50.0 52.98718112954906
51.5 54.71935922445395
53.0 56.54067959278591
54.5 58.35154774230331
56.0 60.073202787967446
58.0 61.47320278796745
60.0 63.073202787967446
61.5 65.15204187419211
63.0 67.25204187419212
65.0 69.40623331379885
67.0 71.6276180586507
69.0 73.83877249007391
71.0 75.83877249007391
73.0 77.3276180586507
75.0 78.13877249007392
77.5 78.8609957718757
80.0 79.56099577187571
82.5 79.76099577187571
85.0 79.9938743718545
87.5 80.53717873051065
90.0 81.05890536322387
92.5 81.99387437185452
95.0 83.3163279975234
97.5 84.35890536322388
100.0 84.97023744815662
103.0 85.29281329520846
106.0 85.17023744815661
109.0 84.97023744815662
112.0 84.89281329520846
115.0 84.49281329520846
118.0 83.92621015383257
122.0 83.96971018796764
125.0 84.91476245148907
128.0 85.44901542823474
132.0 85.06971018796763
136.0 84.94901542823473
140.0 84.66971018796762
145.0 84.06971018796763
150.0 84.26971018796763
155.0 85.14901542823473
160.0 85.26971018796762
165.0 84.70328449402552
170.0 84.30328449402553
175.0 84.52621015383258
180.0 84.76971018796762
185.0 84.84701360926961
190.0 85.24701360926962
195.0 85.74701360926962
200.0 85.30328449402553
206.0 84.9470136092696
212.0 84.9470136092696
218.0 84.80380769404731
224.0 84.56919486783487
230.0 84.22471847978659
236.0 83.9470136092696
240.0 84.0038076940473
250.0 84.3038076940473
258.0 84.3586410523403
265.0 84.40380769404729
272.0 84.78327516087863
280.0 85.13789335294636
290.0 85.3175217159578
300.0 85.35281801256818
307.0 85.35281801256818
315.0 85.25281801256818
325.0 85.33297960438266
335.0 85.36789968194797
345.0 85.30388021752589
355.0 85.2485812141902
365.0 85.28472149080507
375.0 85.28472149080507
387.0 85.22031591934619
400.0 84.94422536283686
412.0 84.78015187119685
425.0 84.66746407678829
437.0 84.70166510946393
450.0 84.88015187119687
462.0 84.78015187119685
475.0 84.53848745126915
487.0 84.3256771690939
500.0 84.18444928772226
515.0 84.28444928772227
530.0 84.46182980678505
545.0 84.72146639109837
560.0 84.98165598164519
580.0 85.12146639109837
600.0 85.10691218466789
615.0 85.00691218466788
630.0 84.88165598164518
650.0 85.0418892229596
670.0 85.32457218047557
690.0 85.64188922295959
710.0 85.77739172979265
730.0 85.77739172979265
750.0 85.57739172979267
775.0 85.38559678229944
800.0 85.30809313430576
825.0 85.36986340374705
850.0 85.59815392166435
875.0 85.8742084359919
900.0 86.16864558498452
925.0 86.29599049249062
950.0 86.33363679567087
975.0 86.24798131439444
1000.0 86.07432239143131
1030.0 85.77432239143131
1060.0 85.42383583979064
1090.0 85.049724465659
1120.0 84.69951064633379
1150.0 84.59722325119714
1180.0 84.74018314079026
1220.0 85.13309296266517
1250.0 85.49264847785815
1280.0 85.74789500294821
1320.0 85.75732732423256
1360.0 85.69205417800605
1400.0 85.49801371303161
1450.0 85.34631226183416
1500.0 85.29859762075336
1550.0 85.35542581290102
1600.0 85.52855455508755
1650.0 85.79523962730157
1700.0 85.98272631509553
1750.0 86.11681212728963
1800.0 86.22173621711134
1850.0 86.22312948013057
1900.0 86.04807477961353
1950.0 85.72518791631263
2000.0 85.27373860454686
2060.0 84.90687291771523
2120.0 84.59363507317981
2180.0 84.3725743931424
2240.0 84.323416083979
2300.0 84.65601908680776
2360.0 85.19476333938753
2400.0 85.66615694055001
2500.0 85.97710412198963
2580.0 86.23977821201571
2650.0 86.41276247358675
2720.0 86.56694269069845
2800.0 86.50926052649992
2900.0 86.26001566578347
3000.0 86.01275185957819
3070.0 85.90056293099568
3150.0 85.69869761853984
3250.0 85.51629350355499
3350.0 85.4447823959791
3450.0 85.69942261750525
3550.0 86.33814291313558
3650.0 86.99072585897514
3750.0 87.19437625077272
3870.0 86.94388278242721
4000.0 86.89864862650161
4120.0 87.17746064268697
4250.0 87.18526124721875
4370.0 86.89239497800736
4500.0 86.365058149242
4620.0 86.11396542751935
4750.0 86.24345248165152
4870.0 86.63162172134342
5000.0 87.11509158847632
5150.0 87.28071424669722
5300.0 87.09333417983049
5450.0 86.62969376707393
5600.0 86.17456459957637
5800.0 86.1101232565502
6000.0 86.36450671428251
6150.0 86.47289665264212
6300.0 86.3892321518121
6500.0 86.17769896638572
6700.0 86.14981344602947
6900.0 86.26916529709597
7100.0 86.6167226167666
7300.0 87.29918699173616
7500.0 87.76456402176083
7750.0 87.93923191312908
8000.0 87.82696405228663
8250.0 87.72603818780355
8500.0 87.81296445121156
8750.0 88.27238242887366
9000.0 87.95271098885202
9250.0 86.39116586536299
9500.0 85.13523622313521
9750.0 85.40364819358463
10000.0 86.009263431706
10300.0 85.68721502084666
10600.0 85.46485643944656
10900.0 86.03388157159154
11200.0 86.58217348804209
11500.0 86.48117130243888
11800.0 84.90221738584935
12200.0 83.04327343815937
12500.0 83.2271762201763
12800.0 85.021867373449
13200.0 87.12636010314627
13600.0 88.24987851545302
14000.0 88.22211274341322
14500.0 86.75611018022273
15000.0 85.26867909546094
15500.0 84.45349438938668
16000.0 83.06001566578347
16500.0 82.47769488950938
17000.0 81.86783380068252
17500.0 79.73529207878819
18000.0 77.2984051988095
18500.0 74.68823522157203
19000.0 71.8253576539342
19500.0 69.28243674962654
