Freq "Sound Power"
20.5078 52.12767106967053
21.9727 54.57643632890674
23.4375 56.092303063103
24.9023 58.28988427162517
26.3672 59.87741231522074
27.832 61.39032835065288
29.2969 62.818942579176706
30.7617 64.34959166324893
32.2266 65.27639255827637
33.6914 66.69808423626465
35.1562 67.57385233611927
36.6211 68.73284771153007
38.0859 70.06743820383726
39.5508 70.9774084612282
41.0156 72.11280322595023
42.4805 73.01783389230648
43.9453 73.86825781227438
45.4102 74.56956999128921
46.875 75.7009743891909
48.3398 76.34882147984199
51.2695 77.7363583145344
52.7344 78.44659422330203
54.1992 79.0567419935804
55.6641 79.58659850898425
58.5938 80.58729161865294
60.0586 80.99537441439303
62.9883 81.83923922580612
64.4531 82.18083956885644
67.3828 82.69737617552511
68.8477 82.86484327238946
71.7773 83.30600228759934
74.707 83.82465507551694
77.6367 84.06278496089597
79.1016 84.09138737182616
82.0312 84.29946291191511
84.9609 84.5422955782888
87.8906 84.55602564915536
90.8203 84.74470250921621
95.2148 84.84178143533398
98.1445 84.890613708114
101.074 84.83072643863922
105.469 84.95076339533577
108.398 85.06572807973528
112.793 85.09231145567178
117.188 85.05780852003642
120.117 85.12379054727776
124.512 85.10593213623596
128.906 85.13636176749588
133.301 85.12962215146334
139.16 85.05819696832657
143.555 85.03958486196564
147.949 84.96394444795223
153.809 84.89851204520052
159.668 84.95688309449255
165.527 85.02177364879479
171.387 84.96443105220514
177.246 84.77747050928899
183.105 84.63795596337059
188.965 84.55870965455054
196.289 84.47255032176312
203.613 84.41988003223472
210.938 84.40785287729538
218.262 84.35395163464875
225.586 84.3049049975992
232.91 84.18831978483439
241.699 83.94726893073818
250.488 83.81360366569118
259.277 84.01862890043503
268.066 83.73782914992319
276.855 83.64157560608018
287.109 83.60651396383139
297.363 83.39828830486209
307.617 83.12378919857173
319.336 83.38965868464868
329.59 83.28856028915253
341.309 83.17950807681251
353.027 82.98548558865816
366.211 83.09440032479456
379.395 83.24960172435411
392.578 83.03255070282941
405.762 82.79537582820845
420.41 82.93285985447012
435.059 82.51929312322312
451.172 82.63293733025898
465.82 82.57219307192251
483.398 82.60245934029527
499.512 82.3433434574201
517.09 82.67435976435499
536.133 81.95673391852937
555.176 82.21542240451893
574.219 82.29081377614108
594.727 81.99725129771842
615.234 81.7758875873551
637.207 81.82399225883123
659.18 81.08050126597753
682.617 80.79829928963639
707.52 80.88578818847971
732.422 80.70811239067478
757.324 81.2351878585315
785.156 80.95602635886522
811.523 80.02932274183055
840.82 80.34531802445642
870.117 79.72703565477536
900.879 80.61866013778095
933.105 80.00684229875118
965.332 80.33927937524919
1000.49 79.98019028552592
1035.64 80.10039010397655
1072.27 79.44612333473692
1108.89 79.34256951894432
1148.44 79.00986714547491
1189.45 78.53906576525632
1230.47 78.45118218294476
1274.41 78.18265054414161
1319.82 77.93035461724854
1366.7 78.48827828549973
1413.57 77.9970873759939
1463.38 77.63844463873006
1516.11 77.00104236199478
1568.85 75.75436194591774
1624.51 74.80750624350372
1681.64 74.94568633894873
1741.7 75.6675795704701
1803.22 76.51722324020439
1866.21 75.70135700474734
1932.13 75.74629559417573
1999.51 75.84824393637547
2069.82 76.30292523054041
2143.07 76.614268309312
2219.24 76.44608811149456
2296.88 76.06766585614733
2378.91 76.11360006443276
2462.4 77.10430090768874
2548.83 77.6059803932794
2639.65 77.48169673324418
2731.93 77.04994406309532
2828.61 77.31326651112794
2928.22 78.01605280653953
3030.76 78.53284334146352
3137.7 78.7497099655174
3249.02 78.828214031447
3363.28 78.75003460880295
3481.93 78.90700942663082
3604.98 79.05513552400373
3732.42 79.29828949175365
3864.26 79.29013317494856
4000.49 78.7092878386245
4141.11 79.0291639937783
4287.6 78.81911245393182
4438.48 78.60550412490159
4595.21 78.53166100256543
4756.35 78.5336854340907
4924.8 78.71229506076828
5097.66 78.70658123559393
5277.83 78.61959092328343
5463.87 78.95164596202159
5657.23 78.6838845557886
5856.45 78.59902803767369
6062.99 78.39740608304234
6276.86 77.94252274594037
6498.05 77.72579503310621
6726.56 77.87747808385421
6963.87 77.3210837135538
7209.96 77.50113588079557
7464.84 77.07418163417549
7727.05 76.74205530720499
7999.51 76.83900317924774
8282.23 76.36861216245732
8573.73 76.35230017893338
8876.95 76.08804594823353
9188.96 76.03620434918963
9514.16 75.56345417949896
9849.61 75.22162709999756
10196.8 75.07026163473162
10555.7 74.93495406391487
10927.7 74.83624309380355
11313.0 74.57578866437626
11712.9 74.48055570742063
12126.0 74.2337940180781
12553.7 73.78110085129427
12996.1 73.89149550341877
13454.6 74.00103835206188
13929.2 73.70265974626689
14419.9 73.3618025278758
14928.2 72.85545868989873
15455.6 72.40376614757771
16000.5 72.52386929842106
16564.5 72.22690194003769
17148.9 71.5662884439938
17752.4 70.85439006714962
18379.4 70.09134828936067
19026.9 69.20731354220163
19697.8 67.89211275269167
19999.5 67.1230218330551
