Freq,On Axis,Listening Window,Sound Power,Early Reflections,Early Reflections DI,Sound Power DI,DI offset
22.4,35.95189873417722,35.95189873417722,35.95189873417722,35.95189873417722,40.0,40.0,40
23.0,36.65189873417721,36.65189873417721,36.65189873417721,36.65189873417721,40.0,40.0,40
23.6,37.25189873417723,37.25189873417723,37.25189873417723,37.25189873417723,40.0,40.0,40
24.0,37.551898734177215,37.551898734177215,37.551898734177215,37.551898734177215,40.0,40.0,40
25.0,37.851898734177226,37.851898734177226,37.851898734177226,37.851898734177226,40.0,40.0,40
25.8,38.15189873417721,38.15189873417721,38.15189873417721,38.15189873417721,40.0,40.0,40
26.5,38.351898734177226,38.351898734177226,38.351898734177226,38.351898734177226,40.0,40.0,40
27.2,38.75189873417723,38.75189873417723,38.75189873417723,38.75189873417723,40.0,40.0,40
28.0,39.15189873417721,39.15189873417721,39.15189873417721,39.15189873417721,40.0,40.0,40
29.0,39.551898734177215,39.551898734177215,39.551898734177215,39.551898734177215,40.0,40.0,40
30.0,40.95189873417722,40.95189873417722,40.95189873417722,40.95189873417722,40.0,40.0,40
30.7,43.65189873417721,43.65189873417721,43.65189873417721,43.65189873417721,40.0,40.0,40
31.5,45.351898734177226,45.351898734177226,45.351898734177226,45.351898734177226,40.0,40.0,40
32.5,46.95189873417722,46.95189873417722,46.95189873417722,46.95189873417722,40.0,40.0,40
33.5,49.65189873417721,49.65189873417721,49.65189873417721,49.65189873417721,40.0,40.0,40
34.5,51.551898734177215,51.0356960374334,51.76930993362471,51.5051426444097,39.530553393023695,39.266386103808685,40
35.5,52.851898734177226,52.315246578095056,52.832921970929064,52.631976066121425,39.68327051197363,39.48232460716599,40
36.5,53.15189873417721,52.59017939216413,52.92476797253896,52.79819469494363,39.7919846972205,39.66541141962517,40
37.5,53.25189873417723,52.69121639354877,52.863156331405676,52.787978831908916,39.903237561639855,39.828060062143095,40
38.7,53.75189873417723,53.15811638382739,53.17474546894958,53.15913788276664,39.99897850106075,39.98337091487781,40
40.0,55.051898734177215,54.543769817769785,54.45047441782266,54.466677892720966,40.07709192504882,40.093295399947124,40
41.2,56.25189873417723,55.720422176933326,55.48688927628051,55.54957307874598,40.17084909818735,40.23353290065282,40
42.5,58.65189873417721,58.12854461474767,57.798985558644446,57.90245326236125,40.22609135238642,40.32955905610322,40
43.7,60.851898734177226,60.28684102352865,59.87551738151306,60.01514329026641,40.27169773326224,40.41132364201559,40
45.0,63.25189873417722,62.6958365608411,62.2068197309185,62.37383737532572,40.32199918551538,40.489016829922605,40
46.2,66.2518987341772,65.73021014111272,65.15005850269183,65.35297591204979,40.377234229062935,40.58015163842089,40
47.5,68.55189873417721,68.08129150729172,67.41979697630612,67.65110642554012,40.4301850817516,40.66149453098561,40
48.7,71.75189873417722,71.34428264278975,70.62742276172425,70.87890509380274,40.46537754898701,40.7168598810655,40
50.0,74.15189873417722,73.69094926036935,72.9258922329086,73.20836479488428,40.482584465485075,40.765057027460756,40
51.5,77.15189873417722,76.79361146758994,75.97088210336722,76.27256180849481,40.52104965909513,40.822729364222724,40
53.0,79.25189873417722,78.86997193015667,78.01449667806513,78.33566607525057,40.534305854906094,40.85547525209154,40
54.5,80.55189873417721,80.2120496487276,79.32144487723166,79.65488160888819,40.55716803983941,40.890604771495944,40
56.0,81.45189873417722,81.1366292945921,80.199386934196,80.54751232305092,40.58911697154117,40.9372423603961,40
58.0,81.35189873417721,81.11652049671873,80.13523845745297,80.50477783794747,40.61174265877126,40.981282039265764,40
60.0,80.95189873417722,80.73034919122098,79.73915652561595,80.12675225029277,40.60359694092821,40.99119266560503,40
61.5,79.8518987341772,79.70379495138123,78.69692974079909,79.09355334153267,40.61024160984856,41.006865210582134,40
63.0,79.15189873417722,79.00054935398835,77.98998861227072,78.40117630787186,40.59937304611648,41.010560741717626,40
65.0,79.05189873417721,78.94025460150588,77.91489640419648,78.33206477448552,40.60818982702037,41.0253581973094,40
67.0,79.95189873417722,79.86324666269324,78.84368849748184,79.25989018682358,40.60335647586966,41.01955816521141,40
69.0,81.15189873417724,81.14307466678274,80.01109611500097,80.50974473483953,40.63332993194321,41.13197855178177,40
71.0,82.45189873417722,82.45000936056442,80.83805419644155,81.609842747685,40.84016661287943,41.611955164122875,40
73.0,83.35189873417723,83.29232807937937,81.3114280016696,82.3176798539297,40.97464822544967,41.98090007770978,40
75.0,84.45189873417722,84.33779677746807,82.02395284898452,83.23923182868394,41.09856494878413,42.31384392848355,40
77.5,85.45189873417722,85.3416942996114,82.76513291025438,84.14925372610055,41.19244057351085,42.576561389357025,40
80.0,86.15189873417724,86.11367331841768,83.2946139649827,84.82273793683227,41.29093538158541,42.81905935343498,40
82.5,87.05189873417721,86.94950005127306,83.95139703041856,85.6191949170498,41.330305134223266,42.9981030208545,40
85.0,87.85189873417721,87.78114408340832,84.61393575173038,86.39350868607863,41.38763539732969,43.16720833167794,40
87.5,88.55189873417721,88.46534498642364,85.13865976544395,87.02231530183458,41.443029684589064,43.3266852209797,40
90.0,88.95189873417722,88.86895037523665,85.45032358353932,87.41186442736553,41.45708594787112,43.418626791697335,40
92.5,88.95189873417722,88.86895037523665,85.33977662881675,87.38743661510286,41.481513760133794,43.5291737464199,40
95.0,88.35189873417723,88.25382109857274,84.61154975989237,86.73501776795868,41.51880333061406,43.642271338680374,40
97.5,87.25189873417723,87.24257149530018,83.49881032529765,85.67491690967566,41.567654585624524,43.74376117000253,40
100.0,86.45189873417722,86.33898511183783,82.54347735973595,84.79262375915133,41.5463613526865,43.795507752101884,40
103.0,86.15189873417724,86.12769696287108,82.26862893670364,84.54775537861967,41.579941584251415,43.85906802616745,40
106.0,86.65189873417722,86.5988108206168,82.81929903631607,85.03011346409536,41.56869735652144,43.77951178430074,40
109.0,87.3518987341772,87.18248042004967,83.52774417416256,85.64174867769131,41.54073174235836,43.65473624588711,40
112.0,87.75189873417722,87.63282350069456,84.08038937205725,86.09339952736397,41.539423973330585,43.5524341286373,40
115.0,88.15189873417722,87.90628726888968,84.47876614241714,86.39869346649574,41.50759380239394,43.42752112647254,40
118.0,88.35189873417723,88.08215528375968,84.79601572038736,86.59520403586434,41.486951247895334,43.286139563372316,40
122.0,88.55189873417721,88.24774734195032,85.08216028014074,86.7666952776934,41.481052064256914,43.165587061809575,40
125.0,88.55189873417721,88.26103942420606,85.25077502159803,86.82170326909124,41.439336155114816,43.01026440260803,40
128.0,88.55189873417721,88.17327360317165,85.35289802148684,86.77175616532598,41.40151743784567,42.820375581684814,40
132.0,88.35189873417723,87.95796036875024,85.31024438558485,86.59619641985837,41.36176394889186,42.647715983165384,40
136.0,88.15189873417722,87.70067155290987,85.17978405583547,86.34343833088366,41.35723322202621,42.5208874970744,40
140.0,87.95189873417722,87.40944685202251,84.81696412401739,85.99493000832048,41.41451684370203,42.59248272800512,40
145.0,87.65189873417721,87.10991076227388,84.38925989667666,85.59373045393401,41.51618030833987,42.72065086559722,40
150.0,87.3518987341772,86.79561585948198,83.98536571839922,85.20869035145431,41.586925508027676,42.81025014108276,40
155.0,87.05189873417721,86.40859819622838,83.46674094450435,84.71721152853236,41.69138666769602,42.94185725172403,40
160.0,86.55189873417721,85.90065848938279,82.87215800756513,84.13512893202665,41.765529557356146,43.02850048181766,40
165.0,86.15189873417724,85.52605851784618,82.37756608297072,83.6415916758162,41.88446684202998,43.148492434875465,40
170.0,85.95189873417722,85.28654188364618,82.04466694732469,83.29799450216255,41.98854738148363,43.241874936321494,40
175.0,85.95189873417722,85.35986766079033,81.9576345256201,83.30863696918586,42.051230691604474,43.402233135170235,40
180.0,86.35189873417721,85.83006263624915,82.22801218156125,83.80551942416574,42.024543212083415,43.6020504546879,40
185.0,86.95189873417722,86.48246753279734,82.72013310866537,84.49707353989538,41.98539399290196,43.76233442413198,40
190.0,87.3518987341772,87.03319118088406,83.10804301745216,85.04283021821469,41.99036096266937,43.9251481634319,40
195.0,87.45189873417722,87.18646571077026,83.14833808765171,85.2187439370524,41.96772177371787,44.038127623118555,40
200.0,86.95189873417722,86.69403039932178,82.52669895966379,84.72848019797091,41.965550201350865,44.167331439657985,40
206.0,85.75189873417722,85.58868288448494,81.32379562745376,83.60334776025603,41.98533512422891,44.26488725703118,40
212.0,84.65189873417722,84.35821123374112,80.0355787751108,82.31928196893078,42.038929264810335,44.32263245863031,40
218.0,83.95189873417722,83.67994243102966,79.32121570516004,81.5990264809215,42.080915950108164,44.358726725869616,40
224.0,83.85189873417721,83.49313676803455,79.13739744626042,81.39802410559048,42.095112662444066,44.355739321774124,40
230.0,83.45189873417722,83.07205116043653,78.70403538142577,80.97458303344857,42.09746812698796,44.36801577901076,40
236.0,84.75189873417723,84.33958282425228,79.9713327273492,82.23205712359233,42.10752570065995,44.36825009690307,40
240.0,86.95189873417722,86.58224275556607,82.13307353039342,84.44564977445809,42.13659298110798,44.44916922517265,40
250.0,86.55189873417721,86.21410940333406,81.65080929957277,84.03466797793405,42.179441425400015,44.56330010376129,40
258.0,85.85189873417723,85.54722914817313,80.84369838170824,83.30528957773801,42.24193957043512,44.703530766464894,40
265.0,85.75189873417722,85.55074187899159,80.72300853677696,83.27987001615303,42.27087186283856,44.82773334221463,40
272.0,85.75189873417722,85.60150473486867,80.63018819682375,83.26727753593849,42.33422719893018,44.97131653804492,40
280.0,85.45189873417722,85.27973141305996,80.3393448272903,82.95609542189722,42.323635991162746,44.94038658576966,40
290.0,85.15189873417721,84.94607908898631,80.0244989330588,82.59358984724628,42.35248924174003,44.921580155927515,40
300.0,85.15189873417721,84.94607908898631,80.09082796915074,82.5998587097557,42.346220379230616,44.85525111983557,40
307.0,85.75189873417722,85.54607908898632,80.73657755522335,83.20545591620522,42.34062317278109,44.80950153376297,40
315.0,86.05189873417721,85.86186644643732,80.88570783055447,83.46545046614294,42.39641598029438,44.97615861588285,40
325.0,85.85189873417723,85.56895626325237,80.38379185584982,83.0812561494805,42.48770011377188,45.18516440740255,40
335.0,85.25189873417722,84.99287056386207,79.59041117388149,82.428586748742,42.56428381512006,45.40245938998058,40
345.0,85.45189873417722,85.19382761711535,79.83431161233649,82.66883472858443,42.52499288853092,45.359516004778854,40
355.0,86.15189873417724,85.91226696526759,80.99858557354868,83.57826167571024,42.33400528955735,44.91368139171891,40
365.0,86.2518987341772,86.17744306111918,81.70699794819534,84.04978992996163,42.127653131157544,44.47044511292384,40
375.0,85.75189873417722,85.74725307303183,81.56912563054301,83.76131495997485,41.985938113056974,44.178127442488815,40
387.0,84.95189873417722,84.72034494397718,80.36031806180583,82.56575725107561,42.15458769290157,44.360026882171354,40
400.0,85.25189873417722,84.67516385088962,80.05879770117949,82.28255617038678,42.392607680502834,44.61636614971013,40
412.0,86.15189873417724,85.3345628216925,80.40980753413771,82.65785205077108,42.67671077092142,44.92475528755479,40
425.0,85.65189873417722,84.78179853013044,79.49651432738473,81.81004348899414,42.971755041136305,45.285284202745714,40
437.0,84.65189873417722,83.75461952012715,78.02440738120576,80.42714901938307,43.327470500744084,45.73021213892139,40
450.0,84.75189873417723,83.83183223168872,77.73259642141221,80.28421977725601,43.54761245443271,46.09923581027651,40
462.0,84.55189873417721,83.73564311470503,77.67590690163568,80.39004406540323,43.345599049301796,46.05973621306934,40
475.0,83.35189873417723,82.72794297090256,76.68474768070003,79.5736415710788,43.154301399823765,46.04319529020253,40
487.0,82.3518987341772,81.74996441746508,75.76694280699654,78.86914231833312,42.88082209913196,45.98302161046854,40
500.0,82.85189873417721,82.06976333994396,76.18770426921047,79.48468279198151,42.58508054796245,45.88205907073349,40
515.0,82.3518987341772,81.61565067636808,75.86951218719166,79.17420022892695,42.44145044744113,45.74613848917642,40
530.0,82.55189873417721,82.00647221461001,76.54811363939208,79.52105597429029,42.48541624031972,45.45835857521793,40
545.0,82.85189873417721,82.66802892401182,77.55646601538974,80.27302536446349,42.39500355954833,45.111562908622076,40
560.0,82.3518987341772,82.19429709629743,77.15086798700823,80.41858697549577,41.77571012080166,45.04342910928921,40
580.0,83.85189873417721,83.64012696552768,78.63055087160085,82.17443940287886,41.465687562648824,45.00957609392684,40
600.0,85.55189873417721,85.18531970533232,79.9322869409594,83.6793170145169,41.50600269081542,45.25303276437292,40
615.0,85.55189873417721,85.10579790860595,79.76792552715116,83.61532254029535,41.4904753683106,45.33787238145479,40
630.0,84.95189873417722,84.32512659214466,79.18438013307531,82.9544317703275,41.37069482181715,45.14074645906935,40
650.0,84.15189873417722,83.42074183244114,78.61410343425577,82.23356790876396,41.18717392367718,44.80663839818537,40
670.0,83.85189873417721,82.91042236650279,77.82030207926898,81.62597447792099,41.284447888581795,45.0901202872338,40
690.0,83.45189873417722,82.44286323443534,76.79808101467692,80.76567407418806,41.67718916024728,45.64478221975841,40
710.0,83.7518987341772,82.81772634448316,76.63536380978258,80.59619513635303,42.22153120813013,46.18236253470059,40
730.0,82.95189873417722,81.96058453126984,75.72709921399402,79.70822066463218,42.252363866637666,46.23348531727582,40
750.0,79.95189873417722,79.10954667134997,73.2253970196612,77.17834253639631,41.93120413495366,45.88414965168877,40
775.0,80.45189873417722,79.69605639082975,74.30229449643942,78.23825661142762,41.45779977940214,45.39376189439034,40
800.0,82.05189873417721,81.43725559879134,76.25218923281693,80.09281256090404,41.3444430378873,45.18506636597441,40
825.0,83.15189873417722,82.46237063619878,77.52294808068858,81.19572363541337,41.26664700078541,44.939422555510205,40
850.0,83.85189873417721,83.41250336563105,79.15193387210954,82.47280202342965,40.9397013422014,44.260569493521515,40
875.0,85.15189873417721,84.83295366841205,80.19428552694639,83.37983336083548,41.45312030757657,44.63866814146566,40
900.0,85.15189873417721,85.01089212316245,79.69232021807294,82.86156965456206,42.14932246860039,45.31857190508951,40
925.0,84.15189873417722,84.6292698737752,79.8498769791935,82.68519743906883,41.94407243470637,44.779392894581704,40
950.0,84.35189873417721,84.12348947377394,78.27227471130884,81.30109098308708,42.822398490686865,45.851214762465105,40
975.0,85.65189873417722,84.53543873481404,76.78304436231518,80.35319478534853,44.1822439494655,47.752394372498856,40
1000.0,86.55189873417721,85.33977129061398,76.78734230000877,80.52421617335743,44.81555511725655,48.55242899060521,40
1030.0,85.75189873417722,84.32262484810927,75.16317277391094,79.2533948586334,45.06922998947587,49.15945207419833,40
1060.0,84.8518987341772,83.35498682282201,73.35854686218353,78.27075847239834,45.08422835042367,49.99643996063848,40
1090.0,84.15189873417722,82.91322774812936,73.7442523237139,77.9843147774927,44.92891297063666,49.168975424415464,40
1120.0,82.75189873417722,81.22135977423375,72.68150468676417,76.82453568920559,44.39682408502816,48.539855087469576,40
1150.0,82.3518987341772,80.99949954196774,73.38428438312296,77.13398744116438,43.86551210080336,47.61521515884478,40
1180.0,82.15189873417722,80.89766815594359,73.17408191389035,76.9825334095252,43.91513474641839,47.723586242053244,40
1220.0,81.95189873417722,80.57567309275024,72.10841965604082,76.47630472501793,44.09936836773231,48.46725343670941,40
1250.0,81.95189873417722,81.11662176649061,73.0030474708935,77.25728386198655,43.85933790450406,48.113574295597104,40
1280.0,81.45189873417722,80.65830535526386,72.34530173035812,76.71212685470472,43.94617850055914,48.31300362490575,40
1320.0,83.25189873417722,82.76447661553883,74.48124694442592,78.71724447039861,44.047232145140214,48.283229671112906,40
1360.0,82.75189873417722,82.30805817370559,74.43093421477627,78.4622420947475,43.845816078958094,47.87712395892932,40
1400.0,82.95189873417722,81.83949256946956,73.84787107059576,78.10274336718571,43.736749202283846,47.9916214988738,40
1450.0,82.55189873417721,81.43655090321255,73.27273943039076,77.50227478433523,43.93427611887732,48.16381147282179,40
1500.0,82.15189873417722,81.31539886981868,73.49763444779347,77.21204434686003,44.103354522958654,47.817764422025206,40
1550.0,81.45189873417722,79.24304092066572,70.9377668910738,74.8483664592077,44.394674461458024,48.305274029591914,40
1600.0,81.35189873417721,78.84747716514174,68.83005370656473,73.66092750963058,45.18654965551116,50.017423458577014,40
1650.0,80.25189873417722,77.91065777264565,67.37036214090745,72.51887008923669,45.391787683408964,50.5402956317382,40
1700.0,80.65189873417722,78.34501119356328,67.5557598278392,72.74337223313618,45.601638960427096,50.789251365724084,40
1750.0,82.85189873417721,80.31491196448214,69.5390141581847,74.78633320400756,45.52857876047457,50.775897806297436,40
1800.0,85.55189873417721,82.32637482682428,71.20032057057658,76.60491589989347,45.72145892693081,51.1260542562477,40
1850.0,86.15189873417724,82.39724978980036,71.24830713490529,76.71150228104344,45.68574750875692,51.148942654895066,40
1900.0,85.25189873417722,81.55426863412491,70.20894280921259,75.87204252314243,45.682226110982484,51.34532582491232,40
1950.0,82.25189873417723,79.02350392485317,67.85449939000164,73.57587981196195,45.44762411289122,51.16900453485154,40
2000.0,82.55189873417721,79.63749166304473,68.41709771776478,74.30933952732188,45.328152135722846,51.22039394527995,40
2060.0,84.45189873417722,81.11580174062605,69.81862007789664,75.81776769152144,45.298034049104615,51.297181662729415,40
2120.0,84.55189873417721,80.43297115099922,68.86281061492947,75.09628777863178,45.336683372367446,51.57016053606975,40
2180.0,82.55189873417721,78.57326830971782,67.43732671955202,73.22929629058162,45.3439720191362,51.1359415901658,40
2240.0,81.45189873417722,78.14456362206371,67.02892774613412,72.59622234109206,45.548341280971655,51.1156358759296,40
2300.0,81.65189873417722,78.79062329404755,68.1921001594678,73.35766340523988,45.43295988880767,50.59852313457975,40
2360.0,82.3518987341772,79.6387970575952,68.97849727531352,74.16187001709771,45.476927040497486,50.66029978228168,40
2400.0,82.15189873417722,79.41656417416603,69.03136337845906,74.12496382578155,45.29160034838448,50.385200795706965,40
2500.0,82.25189873417723,79.88211467606257,69.43480826103534,74.45099155410539,45.431123121957185,50.44730641502723,40
2580.0,83.15189873417722,80.68043734085164,70.18629597404242,75.31042461986743,45.37001272098421,50.49414136680922,40
2650.0,82.85189873417721,80.51568606797535,69.9802766559932,74.9381527269143,45.577533341061056,50.53540941198216,40
2720.0,83.15189873417722,80.88850676459032,70.6055884361175,75.33595930649587,45.55254745809445,50.28291832847282,40
2800.0,82.15189873417722,80.35114391352081,70.70339295385965,75.1556249249606,45.19551898856021,49.64775095966117,40
2900.0,82.25189873417723,81.14649956655036,71.8771383005049,76.36288439957546,44.7836151669749,49.269361266045465,40
3000.0,84.05189873417721,83.21517318006788,73.98114274320578,78.50276209648597,44.71241108358191,49.2340304368621,40
3070.0,83.25189873417722,82.57227057059723,73.33775278409438,77.88431424319563,44.687956327401594,49.23451778650285,40
3150.0,83.05189873417721,82.36299097843842,72.99812931157496,77.37306847563951,44.989922502798905,49.36486166686346,40
