Freq "On Axis"
22.4 35.95189873417722
23.0 36.65189873417721
23.6 37.25189873417723
24.0 37.551898734177215
25.0 37.851898734177226
25.8 38.15189873417721
26.5 38.351898734177226
27.2 38.75189873417723
28.0 39.15189873417721
29.0 39.551898734177215
30.0 40.95189873417722
30.7 43.65189873417721
31.5 45.351898734177226
32.5 46.95189873417722
33.5 49.65189873417721
34.5 51.551898734177215
35.5 52.851898734177226
36.5 53.15189873417721
37.5 53.25189873417723
38.7 53.75189873417723
40.0 55.051898734177215
41.2 56.25189873417723
42.5 58.65189873417721
43.7 60.851898734177226
45.0 63.25189873417722
46.2 66.2518987341772
47.5 68.55189873417721
48.7 71.75189873417722
50.0 74.15189873417722
51.5 77.15189873417722
53.0 79.25189873417722
54.5 80.55189873417721
56.0 81.45189873417722
58.0 81.35189873417721
60.0 80.95189873417722
61.5 79.8518987341772
63.0 79.15189873417722
65.0 79.05189873417721
67.0 79.95189873417722
69.0 81.15189873417724
71.0 82.45189873417722
73.0 83.35189873417723
75.0 84.45189873417722
77.5 85.45189873417722
80.0 86.15189873417724
82.5 87.05189873417721
85.0 87.85189873417721
87.5 88.55189873417721
90.0 88.95189873417722
92.5 88.95189873417722
95.0 88.35189873417723
97.5 87.25189873417723
100.0 86.45189873417722
103.0 86.15189873417724
106.0 86.65189873417722
109.0 87.3518987341772
112.0 87.75189873417722
115.0 88.15189873417722
118.0 88.35189873417723
122.0 88.55189873417721
125.0 88.55189873417721
128.0 88.55189873417721
132.0 88.35189873417723
136.0 88.15189873417722
140.0 87.95189873417722
145.0 87.65189873417721
150.0 87.3518987341772
155.0 87.05189873417721
160.0 86.55189873417721
165.0 86.15189873417724
170.0 85.95189873417722
175.0 85.95189873417722
180.0 86.35189873417721
185.0 86.95189873417722
190.0 87.3518987341772
195.0 87.45189873417722
200.0 86.95189873417722
206.0 85.75189873417722
212.0 84.65189873417722
218.0 83.95189873417722
224.0 83.85189873417721
230.0 83.45189873417722
236.0 84.75189873417723
240.0 86.95189873417722
250.0 86.55189873417721
258.0 85.85189873417723
265.0 85.75189873417722
272.0 85.75189873417722
280.0 85.45189873417722
290.0 85.15189873417721
300.0 85.15189873417721
307.0 85.75189873417722
315.0 86.05189873417721
325.0 85.85189873417723
335.0 85.25189873417722
345.0 85.45189873417722
355.0 86.15189873417724
365.0 86.2518987341772
375.0 85.75189873417722
387.0 84.95189873417722
400.0 85.25189873417722
412.0 86.15189873417724
425.0 85.65189873417722
437.0 84.65189873417722
450.0 84.75189873417723
462.0 84.55189873417721
475.0 83.35189873417723
487.0 82.3518987341772
500.0 82.85189873417721
515.0 82.3518987341772
530.0 82.55189873417721
545.0 82.85189873417721
560.0 82.3518987341772
580.0 83.85189873417721
600.0 85.55189873417721
615.0 85.55189873417721
630.0 84.95189873417722
650.0 84.15189873417722
670.0 83.85189873417721
690.0 83.45189873417722
710.0 83.7518987341772
730.0 82.95189873417722
750.0 79.95189873417722
775.0 80.45189873417722
800.0 82.05189873417721
825.0 83.15189873417722
850.0 83.85189873417721
875.0 85.15189873417721
900.0 85.15189873417721
925.0 84.15189873417722
950.0 84.35189873417721
975.0 85.65189873417722
1000.0 86.55189873417721
1030.0 85.75189873417722
1060.0 84.8518987341772
1090.0 84.15189873417722
1120.0 82.75189873417722
1150.0 82.3518987341772
1180.0 82.15189873417722
1220.0 81.95189873417722
1250.0 81.95189873417722
1280.0 81.45189873417722
1320.0 83.25189873417722
1360.0 82.75189873417722
1400.0 82.95189873417722
1450.0 82.55189873417721
1500.0 82.15189873417722
1550.0 81.45189873417722
1600.0 81.35189873417721
1650.0 80.25189873417722
1700.0 80.65189873417722
1750.0 82.85189873417721
1800.0 85.55189873417721
1850.0 86.15189873417724
1900.0 85.25189873417722
1950.0 82.25189873417723
2000.0 82.55189873417721
2060.0 84.45189873417722
2120.0 84.55189873417721
2180.0 82.55189873417721
2240.0 81.45189873417722
2300.0 81.65189873417722
2360.0 82.3518987341772
2400.0 82.15189873417722
2500.0 82.25189873417723
2580.0 83.15189873417722
2650.0 82.85189873417721
2720.0 83.15189873417722
2800.0 82.15189873417722
2900.0 82.25189873417723
3000.0 84.05189873417721
3070.0 83.25189873417722
3150.0 83.05189873417721
3250.0 83.65189873417724
3350.0 83.35189873417723
3450.0 83.45189873417722
3550.0 83.55189873417721
3650.0 83.05189873417721
3750.0 84.15189873417722
3870.0 84.15189873417722
4000.0 84.35189873417721
4120.0 83.45189873417722
4250.0 83.35189873417723
4370.0 82.55189873417721
4500.0 81.45189873417722
4620.0 82.45189873417722
4750.0 84.15189873417722
4870.0 83.7518987341772
5000.0 84.45189873417722
5150.0 83.15189873417722
5300.0 81.2518987341772
5450.0 81.45189873417722
5600.0 80.45189873417722
5800.0 81.35189873417721
6000.0 83.35189873417723
6150.0 83.65189873417724
6300.0 84.15189873417722
6500.0 84.95189873417722
6700.0 83.95189873417722
6900.0 83.45189873417722
7100.0 83.05189873417721
7300.0 83.7518987341772
7500.0 83.55189873417721
7750.0 84.15189873417722
8000.0 83.7518987341772
8250.0 82.85189873417721
8500.0 81.35189873417721
8750.0 81.15189873417724
9000.0 84.55189873417721
9250.0 84.55189873417721
9500.0 83.95189873417722
9750.0 84.25189873417722
10000.0 85.95189873417722
10300.0 85.65189873417722
10600.0 83.55189873417721
10900.0 84.95189873417722
11200.0 85.55189873417721
11500.0 82.95189873417722
11800.0 80.35189873417721
12200.0 79.45189873417722
12500.0 82.15189873417722
12800.0 82.65189873417721
13200.0 83.55189873417721
13600.0 84.15189873417722
14000.0 85.85189873417723
14500.0 88.85189873417721
15000.0 89.95189873417722
15500.0 86.35189873417721
16000.0 88.45189873417722
16500.0 90.05189873417721
17000.0 85.15189873417721
17500.0 79.8518987341772
18000.0 76.05189873417721
18500.0 69.05189873417721
19000.0 70.65189873417722
19500.0 64.95189873417722
