Freq "Estimated In-Room Response"
20.5078 53.91721684873734
21.9727 57.27347994852407
23.4375 59.136603744619876
24.9023 60.37726249661743
26.3672 62.99627157936919
27.832 64.92565350736882
29.2969 66.79051035292865
30.7617 68.76462191825135
32.2266 70.57971609179639
33.6914 72.37351702852922
35.1562 73.86155457575735
36.6211 75.10889986715387
38.0859 76.73987244590568
39.5508 77.81613637930565
41.0156 78.75011889492
42.4805 79.46852318304143
43.9453 80.06285586975262
45.4102 80.57856424826052
46.875 81.01607939341089
48.3398 81.34898321381232
51.2695 81.89965832509331
52.7344 82.19605375972246
54.1992 82.4426395101476
55.6641 82.63375344919838
58.5938 83.04152808840779
60.0586 83.22263890655094
62.9883 83.5072618659203
64.4531 83.61001705207059
67.3828 83.73988187180717
68.8477 83.724855372303
71.7773 83.7470380350586
74.707 83.58744457890559
77.6367 83.21748776405728
79.1016 83.08803949699669
82.0312 82.94906930964865
84.9609 82.73767309197247
87.8906 82.68199047634745
90.8203 82.74323057473296
95.2148 82.51765165204112
98.1445 82.41424133500647
101.074 82.45775453271713
105.469 82.37994026559159
108.398 82.32493896422541
112.793 82.26480260934936
117.188 81.96014499001568
120.117 82.18890648615218
124.512 82.32564289584745
128.906 82.18929858792784
133.301 82.03496744206711
139.16 81.76212840357758
143.555 81.5262360458394
147.949 81.69144372823604
153.809 81.36725493260606
159.668 80.83849188658702
165.527 80.64697566120586
171.387 81.30817993122692
177.246 81.17635610357841
183.105 81.23368996944131
188.965 81.1738660804189
196.289 80.86333359449682
203.613 80.6867129140199
210.938 80.8855347404297
218.262 81.23958806190699
225.586 81.1828374526193
232.91 81.07662468890989
241.699 80.78940625218692
250.488 81.14023177412282
259.277 81.63025669683118
268.066 81.6500715032439
276.855 81.01301214111074
287.109 81.07303800271163
297.363 81.19486757514082
307.617 81.20186473341688
319.336 80.74658125051049
329.59 80.76379329196642
341.309 80.67272123222035
353.027 80.70187177648098
366.211 80.85101054882713
379.395 80.47199504370883
392.578 80.36187552333732
405.762 80.0956082684482
420.41 80.36996440878197
435.059 79.93728200679219
451.172 80.03441523254789
465.82 80.18539419767451
483.398 80.3149078051349
499.512 80.10355531564004
517.09 80.76303932128661
536.133 80.48032866481391
555.176 80.1896143687755
574.219 80.66029816488377
594.727 80.0628543222522
615.234 80.15904085166561
637.207 79.93806340921871
659.18 79.69198705432252
682.617 79.67370562229664
707.52 79.27149102043835
732.422 79.19042793372508
757.324 78.87963068045245
785.156 79.08401674893126
811.523 78.55107711104931
840.82 78.62879583111749
870.117 78.1941371626721
900.879 78.08512067462344
933.105 77.75954409205448
965.332 77.68725155349905
1000.49 77.73992999121562
1035.64 77.79575624055265
1072.27 77.71296452582614
1108.89 77.45149003764864
1148.44 77.84417656155085
1189.45 77.81050783386164
1230.47 78.1302290319396
1274.41 78.51329421613524
1319.82 78.67926037475696
1366.7 78.62118245855174
1413.57 78.29782137981776
1463.38 78.02284540760789
1516.11 78.2283366200209
1568.85 78.43397586584227
1624.51 78.24571080608195
1681.64 78.06251343726206
1741.7 78.2627075107451
1803.22 78.27584837795678
1866.21 77.78900300633583
1932.13 78.0992341829198
1999.51 78.27109575109262
2069.82 77.92413407513943
2143.07 77.48276828119269
2219.24 77.79587684545355
2296.88 77.88150556670601
2378.91 77.66680422626408
2462.4 77.76929261608808
2548.83 77.88624140284406
2639.65 77.75910152942035
2731.93 77.57719789684302
2828.61 77.62207892430673
2928.22 77.49644016516048
3030.76 77.1262411327947
3137.7 77.02366800417273
3249.02 77.16583374665521
3363.28 77.01013577384487
3481.93 77.51411654633306
3604.98 77.30845581370369
3732.42 77.46811225768738
3864.26 77.15860128389501
4000.49 77.12977380572941
4141.11 76.9046962825604
4287.6 76.97082274914449
4438.48 76.88422810021493
4595.21 76.79184369229672
4756.35 76.9972655511356
4924.8 76.72244803572734
5097.66 76.8075480072279
5277.83 77.0220083752355
5463.87 77.07931888531881
5657.23 76.95375336749403
5856.45 76.92758866301266
6062.99 77.01233287729752
6276.86 76.97446225322862
6498.05 76.96173417407381
6726.56 76.98896833353116
6963.87 76.92740424865987
7209.96 76.65801947157262
7464.84 76.3532893368221
7727.05 76.16093587079152
7999.51 76.46424233340625
8282.23 76.4602169738876
8573.73 76.59185183482852
8876.95 76.64736539114857
9188.96 76.46487844671397
9514.16 76.36290953278642
9849.61 76.39648327144185
10196.8 76.47505609447933
10555.7 76.5088315611834
10927.7 76.64248465895552
11313.0 76.61592816013776
11712.9 76.43345658033685
12126.0 76.17824506585488
12553.7 76.06554862767935
12996.1 76.22867992665248
13454.6 76.51066988275726
13929.2 76.3421175330239
14419.9 76.51355585772792
14928.2 76.555889786075
15455.6 76.63322696848392
16000.5 76.51837716492182
16564.5 76.15604687920195
17148.9 75.57640782316122
17752.4 75.00142770766004
18379.4 74.38092727304146
19026.9 73.5753517779735
19697.8 72.98286592194415
19999.5 72.75832808551694
